Data from N1R0 150C sample 7_Subt2__3__14-23-12-579.txt Node

Date: Tue Sep 16 14:23:12 PDT 2025
User: uwsun
Spectrometer: HDX01956
Trigger mode: 0
Integration Time (sec): 5.000000E-1
Scans to average: 1
Nonlinearity correction enabled: true
Boxcar width: 0
Storing dark spectrum: false
XAxis mode: Wavelengths
Number of Pixels in Spectrum: 2068
>>>>>Begin Spectral Data<<<<<
194.03	-4.01162
194.578	6.01949
195.127	3.00961
195.676	8.02572
196.225	18.04793
196.773	-31.08705
197.321	14.03911
197.87	21.05483
198.418	47.12304
198.966	34.09116
199.513	54.13946
200.061	13.03379
200.609	47.12587
201.156	-3.00678
201.704	46.11777
202.251	22.05961
202.798	43.11329
203.345	52.13102
203.892	35.09019
204.438	15.03647
204.985	41.09942
205.532	4.01076
206.078	24.05991
206.624	68.17317
207.17	70.16684
207.716	52.1299
208.262	37.0754
208.808	61.15576
209.354	34.08591
209.899	-4.01033
210.445	57.14498
210.99	24.05997
211.535	60.14399
212.08	24.05709
212.625	2.00512
213.17	60.15522
213.715	36.08425
214.259	17.04074
214.804	-7.01763
215.348	44.10394
215.892	67.16521
216.436	-17.04004
216.98	-1.00226
217.524	52.12664
218.068	61.1562
218.612	59.15229
219.155	48.11559
219.698	65.15685
220.242	25.06287
220.785	69.16436
221.328	28.07045
221.871	62.15995
222.414	17.04286
222.956	14.03418
223.499	38.08624
224.041	-5.01171
224.583	-2.00433
225.126	17.03812
225.668	23.05688
226.21	47.12056
226.751	32.07271
227.293	1.00232
227.835	5.01251
228.376	-13.03032
228.918	-9.02289
229.459	34.0861
230	67.16259
230.541	34.07948
231.082	7.0174
231.622	-31.07217
232.163	-3.00739
232.704	64.16178
233.244	66.16517
233.784	9.02222
234.324	58.13238
234.864	5.01155
235.404	9.0216
235.944	40.09548
236.484	53.13371
237.023	42.10033
237.563	38.08977
238.102	72.17167
238.641	18.04595
239.18	22.05262
239.719	24.06101
240.258	-3.0069
240.797	10.02437
241.335	5.01239
241.874	69.13638
242.412	71.17411
242.95	42.10301
243.488	-14.03225
244.026	64.1506
244.564	37.07766
245.102	54.12415
245.64	2.00487
246.177	-3.00683
246.715	63.15288
247.252	3.00696
247.789	123.22806
248.326	24.05889
248.863	46.10292
249.4	45.10352
249.936	87.18406
250.473	47.11277
251.009	19.04435
251.546	39.08871
252.082	34.07472
252.618	22.05023
253.154	35.08557
253.69	37.08437
254.226	77.18588
254.761	32.07313
255.297	-6.01345
255.832	27.06537
256.367	29.06932
256.903	41.09281
257.438	57.13515
257.972	4.00912
258.507	6.01407
259.042	69.15186
259.576	34.07679
260.111	10.02345
260.645	48.10535
261.179	63.14932
261.713	58.13169
262.247	12.02797
262.781	23.04962
263.315	2.00495
263.849	-8.02048
264.382	57.13254
264.915	56.13429
265.449	33.08182
265.982	35.0809
266.515	33.08224
267.048	-16.03498
267.58	33.0725
268.113	14.031
268.646	7.01746
269.178	-9.02065
269.71	131.28976
270.243	97.22617
270.775	60.1556
271.307	-31.07574
271.838	84.19959
272.37	52.12891
272.902	57.13076
273.433	89.19908
273.965	58.14247
274.496	23.05794
275.027	47.11857
275.558	36.08931
276.089	43.10899
276.62	11.02823
277.15	64.15883
277.681	7.01544
278.211	41.10136
278.741	53.11963
279.272	43.1001
279.802	37.09334
280.332	27.06498
280.861	38.09223
281.391	55.12683
281.921	49.11864
282.45	2.00506
282.98	40.10559
283.509	75.17267
284.038	62.14385
284.567	28.0665
285.096	39.09617
285.625	-3.00693
286.153	76.18357
286.682	41.09594
287.21	22.05336
287.739	54.12934
288.267	19.04721
288.795	44.1163
289.323	16.03843
289.851	85.20185
290.378	-26.0598
290.906	65.16099
291.433	34.08613
291.961	42.09779
292.488	20.05052
293.015	4.00968
293.542	66.17157
294.069	60.15064
294.596	11.02743
295.122	52.12669
295.649	22.04926
296.175	45.10994
296.702	54.13401
297.228	25.06133
297.754	27.06211
298.28	70.16338
298.806	25.06146
299.332	61.13886
299.857	44.10197
300.383	82.20779
300.908	41.10258
301.433	78.19329
301.958	58.13505
302.483	15.03794
303.008	28.07101
303.533	24.06297
304.058	11.02625
304.582	44.10587
305.107	-4.01064
305.631	50.11541
306.155	16.03819
306.679	39.09358
307.203	32.07592
307.727	22.05332
308.251	31.07796
308.775	83.20429
309.298	30.07385
309.822	23.05889
310.345	75.18166
310.868	63.15426
311.391	59.14741
311.914	25.0639
312.437	38.08879
312.96	50.11999
313.482	-4.00967
314.005	23.05854
314.527	-13.03461
315.049	51.13109
315.571	57.13091
316.093	20.05063
316.615	27.06619
317.137	58.12907
317.659	29.07175
318.18	3.00734
318.702	78.18548
319.223	36.07545
319.744	74.16945
320.265	13.03248
320.786	76.19238
321.307	8.02025
321.828	41.09469
322.348	58.13903
322.869	37.09016
323.389	287.54864
323.909	6.01412
324.43	22.05384
324.95	6.01416
325.47	65.16375
325.989	36.08741
326.509	15.03466
327.029	53.12382
327.548	37.086
328.067	47.11645
328.587	48.12267
329.106	40.09237
329.625	63.16616
330.144	51.1213
330.662	34.08191
331.181	70.16824
331.7	47.1117
332.218	49.1092
332.736	47.1126
333.255	63.15139
333.773	57.13734
334.291	39.09965
334.808	57.13159
335.326	50.11514
335.844	79.18926
336.361	86.22425
336.879	62.14913
337.396	92.22731
337.913	51.12078
338.43	18.04193
338.947	64.15604
339.464	36.08018
339.981	43.10447
340.497	26.06554
341.014	45.11219
341.53	34.07898
342.046	107.27033
342.562	59.1498
343.078	62.14919
343.594	95.22924
344.11	96.23345
344.626	68.17464
345.141	75.17535
345.657	68.15758
346.172	85.20859
346.687	63.14799
347.202	107.2485
347.717	51.12455
348.232	78.19745
348.747	44.10451
349.261	89.1999
349.776	94.2273
350.29	106.26861
350.805	73.18357
351.319	89.2107
351.833	120.28018
352.347	77.1856
352.861	91.21751
353.374	80.18583
353.888	80.19919
354.401	70.16312
354.915	103.23722
355.428	108.27232
355.941	60.14317
356.454	93.21111
356.967	33.07921
357.48	56.13034
357.993	69.17289
358.505	69.17102
359.018	102.25332
359.53	68.16943
360.042	88.2015
360.554	157.38584
361.066	83.20534
361.578	105.23671
362.09	110.26528
362.602	139.31386
363.113	116.27689
363.625	99.22919
364.136	89.19998
364.647	127.3046
365.158	118.27843
365.669	119.28748
366.18	88.21094
366.691	74.16638
367.201	108.26233
367.712	142.32854
368.222	111.25983
368.733	80.17854
369.243	120.27279
369.753	83.19535
370.263	151.3667
370.773	85.21021
371.282	141.33946
371.792	176.40915
372.301	73.17967
372.811	100.26467
373.32	127.27974
373.829	109.26053
374.338	146.32799
374.847	155.36026
375.356	62.14953
375.865	160.34687
376.373	143.32856
376.882	165.41744
377.39	127.30912
377.898	117.2902
378.407	152.34805
378.915	149.32984
379.423	127.29856
379.93	208.48124
380.438	84.20511
380.946	175.4077
381.453	159.38251
381.96	209.49572
382.468	173.40717
382.975	212.51473
383.482	196.43832
383.989	219.55542
384.495	245.56424
385.002	231.48229
385.509	279.6515
386.015	281.56583
386.521	266.59435
387.028	261.58234
387.534	261.54927
388.04	332.77204
388.546	287.61887
389.051	310.66286
389.557	333.74296
390.063	326.71034
390.568	397.90546
391.073	324.69399
391.578	374.86934
392.084	461.98079
392.589	432.87889
393.093	498.10188
393.598	495.05212
394.103	524.146
394.607	633.36987
395.112	647.427
395.616	744.58874
396.12	738.48333
396.624	884.78042
397.128	921.88768
397.632	1077.08042
398.136	1051.99867
398.639	1175.22384
399.143	1268.49616
399.646	1514.66142
400.15	1605.69377
400.653	1829.82264
401.156	2006.90247
401.659	2360.42694
402.162	2843.30352
402.664	3821.90795
403.167	5327.72152
403.67	10356.96313
404.172	33297.47975
404.674	60202.063
405.176	63738.15102
405.678	63977.72923
406.18	64011.81569
406.682	63863.44694
407.184	63926.60148
407.686	41425.5832
408.187	16588.87988
408.688	9787.18238
409.19	6754.78204
409.691	5394.68437
410.192	4566.04984
410.693	4046.64148
411.194	3476.13177
411.694	3392.43495
412.195	3031.76609
412.696	2690.34879
413.196	2524.78035
413.696	2404.3509
414.196	2406.97124
414.696	2405.51394
415.196	2242.15562
415.696	2030.88983
416.196	1687.79145
416.695	1356.45777
417.195	1168.26466
417.694	1145.90334
418.194	976.71641
418.693	927.79494
419.192	898.80782
419.691	851.70486
420.19	867.7929
420.688	837.77862
421.187	765.35612
421.685	732.49964
422.184	710.48269
422.682	531.05912
423.18	506.07157
423.678	455.96928
424.176	450.95759
424.674	427.88949
425.172	380.84412
425.669	353.82199
426.167	329.72918
426.664	314.68274
427.161	302.66698
427.659	264.61975
428.156	311.63604
428.652	204.50347
429.149	270.63432
429.646	226.49309
430.143	223.52238
430.639	215.49891
431.135	187.45973
431.632	175.39547
432.128	196.46264
432.624	180.45676
433.12	138.31358
433.616	154.33572
434.111	168.39425
434.607	103.24657
435.103	156.32476
435.598	224.45635
436.093	126.29222
436.588	149.33287
437.083	121.27065
437.578	157.35986
438.073	106.2645
438.568	144.35095
439.062	154.32688
439.557	94.21982
440.051	37.08426
440.546	102.23159
441.04	113.2701
441.534	91.22851
442.028	100.24026
442.522	75.18036
443.015	24.05232
443.509	96.23275
444.002	80.19563
444.496	70.15273
444.989	62.15082
445.482	96.23659
445.975	108.24869
446.468	60.13097
446.961	104.22557
447.454	95.21276
447.947	74.17678
448.439	79.19351
448.931	91.20867
449.424	110.27756
449.916	110.26639
450.408	40.09226
450.9	46.1122
451.392	56.14226
451.884	70.16112
452.375	34.08459
452.867	59.13317
453.358	74.16965
453.849	63.13545
454.341	59.13377
454.832	24.05252
455.323	115.28357
455.814	29.06693
456.304	62.14374
456.795	46.10563
457.285	9.0201
457.776	60.13706
458.266	70.16594
458.756	57.13478
459.247	74.17657
459.737	56.13562
460.226	138.3104
460.716	66.15761
461.206	36.08649
461.695	-7.01748
462.185	78.18455
462.674	25.05763
463.163	75.16811
463.653	77.16398
464.142	32.07787
464.63	70.16901
465.119	62.14413
465.608	86.20048
466.096	22.04822
466.585	41.09401
467.073	11.02616
467.561	57.13656
468.05	26.06023
468.538	36.0881
469.026	27.06431
469.513	11.02351
470.001	47.10821
470.489	36.08584
470.976	107.24752
471.463	24.05993
471.951	24.0598
472.438	44.10346
472.925	64.15031
473.412	37.08986
473.899	62.14197
474.385	20.04916
474.872	16.03756
475.359	57.13978
475.845	35.07301
476.331	31.06645
476.817	36.08771
477.303	27.06305
477.789	20.04785
478.275	10.02494
478.761	25.05957
479.247	73.16221
479.732	20.05007
480.218	75.19507
480.703	12.0297
481.188	88.1894
481.673	36.08303
482.158	66.14254
482.643	63.16013
483.128	58.1351
483.612	53.1262
484.097	41.09886
484.581	44.10193
485.066	53.12958
485.55	89.19563
486.034	37.08061
486.518	110.26026
487.002	5.01223
487.486	-13.03187
487.969	2.00489
488.453	4.01001
488.936	38.08582
489.42	34.07557
489.903	-6.01504
490.386	-41.0867
490.869	104.22576
491.352	-4.00971
491.835	14.02895
492.318	-7.01592
492.8	44.09152
493.283	53.13486
493.765	4.00987
494.247	60.13932
494.73	0
495.212	1.00239
495.694	38.08977
496.175	32.07712
496.657	42.09953
497.139	16.02785
497.62	10.02422
498.102	53.13165
498.583	-16.03968
499.064	40.08946
499.545	15.03444
500.026	44.09978
500.507	-12.02796
500.988	68.16912
501.469	-32.08075
501.949	11.0273
502.43	28.06773
502.91	105.22078
503.39	16.03982
503.87	56.13224
504.35	37.08671
504.83	-12.02661
505.31	-9.02191
505.79	-28.06712
506.269	-46.10757
506.749	-8.0185
507.228	16.03791
507.707	18.04049
508.187	14.03367
508.666	63.15558
509.145	9.02122
509.623	25.05882
510.102	5.01219
510.581	70.16818
511.059	-7.01778
511.538	11.02849
512.016	2.00484
512.494	12.02903
512.972	-26.06315
513.45	-11.02598
513.928	-13.03197
514.406	14.03455
514.884	21.05436
515.361	22.05294
515.839	43.09931
516.316	29.07077
516.793	20.0507
517.27	-29.07077
517.747	25.06437
518.224	2.00466
518.701	-14.0314
519.178	22.05531
519.654	-4.00957
520.131	16.03987
520.607	-55.13692
521.083	-57.13207
521.56	-38.09112
522.036	-3.00662
522.512	47.11611
522.987	37.08942
523.463	15.03581
523.939	49.12167
524.414	4.00925
524.89	50.1194
525.365	-30.06897
525.84	-8.01945
526.315	-5.01224
526.79	54.12191
527.265	15.03496
527.74	-8.01963
528.215	-13.03072
528.689	-45.10078
529.164	-58.12751
529.638	-51.13146
530.112	-62.14907
530.587	2.00434
531.061	16.039
531.534	5.01216
532.008	52.1265
532.482	25.05783
532.956	-6.01545
533.429	60.14667
533.903	20.04419
534.376	25.05567
534.849	-30.07016
535.322	25.05932
535.795	-25.06124
536.268	7.0171
536.741	-16.03849
537.213	-13.0303
537.686	-36.08954
538.158	6.0138
538.631	-9.02205
539.103	1.00229
539.575	-16.03353
540.047	-12.02657
540.519	22.0529
540.991	47.11474
541.463	-10.02434
541.934	-46.10618
542.406	26.06285
542.877	-4.00915
543.348	-2.00488
543.82	17.04163
544.291	6.01416
544.762	-2.00482
545.233	39.09913
545.703	15.03373
546.174	-35.08273
546.645	6.01467
547.115	7.01707
547.585	-22.05147
548.056	8.01988
548.526	6.01441
548.996	-51.12455
549.466	31.07577
549.935	-2.00484
550.405	-17.03806
550.875	-10.0241
551.344	-67.16375
551.814	2.00465
552.283	9.01992
552.752	-3.00714
553.221	-22.04961
553.69	34.07754
554.159	43.10751
554.628	11.02528
555.096	-12.03094
555.565	-37.08375
556.033	55.13161
556.502	-46.11337
556.97	35.07858
557.438	-20.04778
557.906	8.0191
558.374	1.00235
558.842	26.0628
559.31	20.0453
559.777	-8.01983
560.245	-35.08199
560.712	-37.08658
561.18	-32.07245
561.647	-34.0771
562.114	-8.01863
562.581	4.00995
563.048	-21.049
563.514	3.00761
563.981	-38.08897
564.448	-45.10418
564.914	-38.09012
565.381	-24.05593
565.847	-11.02602
566.313	-54.12831
566.779	-26.0597
567.245	-91.21735
567.711	-65.15945
568.176	-63.14533
568.642	-44.11285
569.108	-41.1027
569.573	-113.27082
570.038	-59.12712
570.504	-46.10647
570.969	-61.15444
571.434	-26.05896
571.899	-103.25211
572.363	15.0348
572.828	-22.05153
573.293	-30.07016
573.757	-23.05439
574.222	-76.17563
574.686	-15.03511
575.15	15.03647
575.614	34.08088
576.078	-63.15168
576.542	-18.04178
577.006	-42.09718
577.469	-18.04492
577.933	17.0392
578.396	-57.13838
578.86	-30.07197
579.323	17.04136
579.786	-9.0199
580.249	10.02385
580.712	-35.08665
581.175	-62.15628
581.637	-63.14764
582.1	-42.09385
582.563	-59.12914
583.025	-29.0718
583.487	8.01676
583.95	-86.1909
584.412	-6.01285
584.874	-39.09695
585.336	-28.06766
585.797	-13.02884
586.259	-49.1173
586.721	-65.15649
587.182	-47.11088
587.643	-6.01385
588.105	-49.11837
588.566	-51.1095
589.027	-23.05726
589.488	-54.12712
589.949	-49.12154
590.41	4.00808
590.87	17.03937
591.331	38.08382
591.791	-34.08041
592.252	-37.08807
592.712	-19.04626
593.172	-13.03011
593.632	24.05398
594.092	-56.12823
594.552	-5.01103
595.011	-62.14584
595.471	15.03444
595.931	-32.07386
596.39	-32.07828
596.849	-40.09519
597.308	-93.20553
597.768	-17.04443
598.227	-39.09557
598.685	-37.0862
599.144	-32.07694
599.603	-27.06431
600.062	-69.15026
600.52	-4.00919
600.978	-16.03841
601.437	6.01383
601.895	-49.10798
602.353	-21.04707
602.811	27.06151
603.269	-26.06292
603.727	6.01456
604.184	0
604.642	20.04953
605.099	15.03541
605.557	-6.01477
606.014	-39.08612
606.471	-15.03813
606.928	42.09404
607.385	22.05547
607.842	31.07165
608.299	44.1033
608.755	22.05368
609.212	37.08317
609.668	22.05015
610.125	31.07512
610.581	60.14075
611.037	15.03398
611.493	19.04472
611.949	62.15099
612.405	99.20082
612.861	41.09469
613.316	60.14372
613.772	57.13076
614.227	86.20568
614.683	53.11277
615.138	5.01185
615.593	-2.0047
616.048	102.23149
616.503	85.20511
616.958	94.23353
617.412	88.20772
617.867	79.17627
618.321	102.20894
618.776	70.15396
619.23	60.14042
619.684	111.24501
620.138	97.2201
620.592	81.19531
621.046	115.26856
621.5	107.25468
621.954	33.07333
622.407	74.16303
622.861	26.06337
623.314	34.07726
623.768	99.23165
624.221	34.06738
624.674	74.1702
625.127	96.22115
625.58	34.0766
626.033	36.07898
626.485	43.1029
626.938	62.1472
627.39	89.20645
627.843	96.2192
628.295	43.09923
628.747	95.22438
629.199	32.0731
629.651	105.23796
630.103	53.12143
630.555	16.03398
631.006	44.10229
631.458	51.1198
631.909	4.00903
632.361	42.09691
632.812	50.11559
633.263	61.13205
633.714	10.02135
634.165	49.11721
634.616	14.03325
635.067	52.11432
635.518	84.19736
635.968	18.03562
636.419	100.21596
636.869	40.09468
637.319	60.13871
637.769	16.03618
638.219	60.14092
638.669	46.10913
639.119	10.02404
639.569	-7.01692
640.019	50.11527
640.468	33.07412
640.918	39.0924
641.367	-9.02036
641.816	60.13285
642.265	99.22828
642.714	34.07804
643.163	91.20825
643.612	65.15845
644.061	38.08143
644.51	65.14833
644.958	50.11029
645.406	57.13567
645.855	31.07529
646.303	20.04639
646.751	72.1656
647.199	47.10639
647.647	71.16385
648.095	17.03893
648.543	48.09734
648.99	96.22801
649.438	59.13583
649.885	84.20747
650.333	91.17497
650.78	3.00729
651.227	73.17735
651.674	70.15881
652.121	52.12716
652.568	77.18714
653.015	24.05943
653.461	23.05481
653.908	61.13937
654.354	49.11632
654.801	26.06109
655.247	39.08446
655.693	15.03907
656.139	54.12831
656.585	81.19161
657.031	29.06826
657.477	51.11125
657.922	19.04332
658.368	38.0932
658.813	45.10207
659.259	68.16375
659.704	86.2019
660.149	25.05774
660.594	63.14863
661.039	73.16511
661.484	45.10629
661.929	85.19655
662.373	-10.02525
662.818	23.0569
663.262	60.14426
663.707	30.07624
664.151	87.2097
664.595	43.10372
665.039	36.08915
665.483	41.10395
665.927	59.13762
666.371	57.13348
666.814	83.19505
667.258	87.20739
667.701	56.11887
668.145	73.18001
668.588	63.155
669.031	23.05416
669.474	41.09808
669.917	47.10266
670.36	65.16099
670.803	93.22187
671.245	-3.00619
671.688	55.13302
672.13	47.106
672.573	25.06305
673.015	98.23303
673.457	69.14898
673.899	117.27794
674.341	42.10079
674.783	36.08607
675.225	53.12968
675.666	72.17463
676.108	31.06699
676.549	-1.00234
676.991	48.10491
677.432	12.02394
677.873	11.02517
678.314	68.16033
678.755	75.18303
679.196	48.10916
679.637	6.01439
680.078	73.16873
680.518	60.13662
680.959	33.07831
681.399	52.12778
681.839	83.19884
682.28	61.15031
682.72	14.03204
683.16	79.19473
683.6	57.12866
684.039	97.19694
684.479	89.21671
684.919	53.12387
685.358	28.06944
685.798	34.08805
686.237	98.2298
686.676	62.13888
687.115	78.18147
687.554	109.25605
687.993	65.14233
688.432	67.15123
688.871	123.27592
689.309	81.19168
689.748	75.15401
690.186	46.10677
690.625	80.18539
691.063	44.10423
691.501	76.1855
691.939	43.10755
692.377	58.13919
692.815	98.23563
693.253	62.1459
693.69	71.15343
694.128	84.2009
694.565	30.07071
695.003	87.21894
695.44	84.19597
695.877	95.21967
696.314	33.06908
696.751	77.17188
697.188	95.21635
697.625	39.08659
698.061	47.11153
698.498	59.13778
698.934	90.21129
699.371	67.15567
699.807	66.15374
700.243	99.23428
700.679	64.14076
701.115	95.21731
701.551	66.15119
701.987	79.16955
702.422	111.25922
702.858	97.22697
703.294	99.22254
703.729	32.07723
704.164	74.17386
704.599	94.20588
705.035	47.10439
705.47	111.26339
705.904	111.25105
706.339	88.19818
706.774	110.25168
707.209	114.25915
707.643	118.2754
708.078	102.24273
708.512	44.1092
708.946	74.1723
709.38	97.22572
709.814	98.2169
710.248	111.26532
710.682	162.37645
711.116	131.31072
711.549	70.17581
711.983	72.16354
712.416	145.33382
712.85	75.18248
713.283	110.2534
713.716	87.21128
714.149	80.18164
714.582	133.29
715.015	85.20426
715.448	118.28984
715.881	108.22564
716.313	72.1652
716.746	128.29451
717.178	79.18644
717.61	132.3265
718.043	130.31174
718.475	115.27193
718.907	83.203
719.339	108.23873
719.77	111.25932
720.202	124.30187
720.634	123.29388
721.065	107.24565
721.497	140.33213
721.928	102.2432
722.359	75.17934
722.79	130.30209
723.221	107.25878
723.652	150.36857
724.083	132.28727
724.514	167.36892
724.945	137.31036
725.375	129.29259
725.806	99.2379
726.236	126.31269
726.666	117.26785
727.096	140.33124
727.526	191.47303
727.956	114.25337
728.386	180.4234
728.816	201.49342
729.246	206.48643
729.675	91.2166
730.105	128.3032
730.534	186.41441
730.964	115.27855
731.393	194.45419
731.822	200.48942
732.251	194.47174
732.68	202.44483
733.109	190.449
733.537	244.56609
733.966	203.48501
734.395	220.48284
734.823	197.41386
735.251	154.35617
735.68	187.44097
736.108	160.38469
736.536	206.45859
736.964	151.3365
737.392	193.46112
737.82	194.44153
738.247	194.44064
738.675	215.47892
739.102	202.48087
739.53	253.61737
739.957	224.55302
740.384	204.46711
740.811	181.4308
741.238	267.6176
741.665	283.62411
742.092	151.33288
742.519	227.53591
742.945	292.66589
743.372	263.61704
743.798	221.53829
744.225	234.52286
744.651	225.53428
745.077	201.47803
745.503	196.45059
745.929	266.6071
746.355	240.55108
746.781	240.55703
747.207	204.46185
747.632	223.52729
748.058	272.64674
748.483	249.53831
748.908	255.60014
749.334	261.60708
749.759	284.63457
750.184	243.55428
750.609	301.68821
751.033	275.59935
751.458	264.54959
751.883	244.56654
752.307	253.56029
752.732	278.67064
753.156	255.59149
753.58	295.6473
754.005	212.50545
754.429	286.63508
754.853	270.63333
755.277	278.61886
755.7	259.60576
756.124	238.56024
756.548	233.51944
756.971	289.65945
757.394	226.5481
757.818	276.67085
758.241	247.59418
758.664	268.63723
759.087	273.57604
759.51	251.5829
759.933	250.57082
760.356	300.72671
760.778	259.5991
761.201	277.6257
761.623	242.54118
762.046	258.56385
762.468	287.64034
762.89	258.59074
763.312	275.63181
763.734	265.60006
764.156	263.61077
764.578	260.55307
765	296.67283
765.421	222.53901
765.843	253.62564
766.264	267.5903
766.686	256.59651
767.107	242.55255
767.528	238.58023
767.949	232.55694
768.37	298.6908
768.791	206.46733
769.212	235.56124
769.632	232.51304
770.053	206.51232
770.473	237.53732
770.894	197.4595
771.314	234.51811
771.734	219.48115
772.154	261.62571
772.575	260.5586
772.994	213.45398
773.414	238.5307
773.834	231.54261
774.254	204.47142
774.673	247.5693
775.093	216.51024
775.512	214.50101
775.931	221.53124
776.351	191.45408
776.77	203.47368
777.189	199.44787
777.607	204.49494
778.026	203.48
778.445	158.38507
778.864	200.48049
779.282	164.3719
779.701	193.45989
780.119	182.44024
780.537	154.36647
780.955	185.44438
781.373	231.5371
781.791	239.50917
782.209	172.36684
782.627	148.37463
783.045	138.29918
783.462	125.30732
783.88	158.39238
784.297	136.32861
784.715	174.42896
785.132	144.33092
785.549	175.41604
785.966	188.44944
786.383	187.43943
786.8	213.46443
787.217	142.32528
787.633	158.38104
788.05	163.35903
788.466	168.36996
788.883	129.31949
789.299	135.30608
789.715	183.42382
790.131	133.31705
790.547	151.35913
790.963	121.28767
791.379	98.23938
791.795	149.31882
792.21	117.25987
792.626	116.26113
793.041	125.29489
793.457	135.31662
793.872	138.30607
794.287	132.30662
794.702	83.19383
795.117	135.3228
795.532	119.2891
795.947	86.19613
796.362	72.16208
796.776	142.30903
797.191	106.24992
797.605	121.27567
798.02	106.2472
798.434	178.37254
798.848	137.32733
799.262	102.24348
799.676	150.34802
800.09	96.22696
800.504	94.21801
800.918	20.04464
801.331	33.08227
801.745	27.05987
802.158	16.03867
802.572	114.2645
802.985	70.16145
803.398	67.15357
803.811	51.12437
804.224	45.10711
804.637	38.08831
805.05	70.15474
805.462	89.20882
805.875	60.1515
806.288	69.1619
806.7	56.13475
807.112	28.06236
807.525	43.10109
807.937	59.14156
808.349	35.08452
808.761	92.21843
809.173	102.23806
809.584	64.15172
809.996	-16.03835
810.408	59.14948
810.819	71.16104
811.231	62.16123
811.642	103.24619
812.053	78.18369
812.464	-1.00231
812.875	41.1024
813.286	89.223
813.697	83.18075
814.108	62.14527
814.519	109.23353
814.929	32.07904
815.34	10.02336
815.75	56.13913
816.16	37.08817
816.571	54.13538
816.981	41.09232
817.391	83.19025
817.801	54.13033
818.211	76.1734
818.62	59.13784
819.03	54.12737
819.44	20.04994
819.849	-13.03169
820.259	-2.00494
820.668	3.00723
821.077	65.15738
821.486	84.19111
821.895	37.08709
822.304	51.13073
822.713	34.07738
823.122	35.08446
823.531	53.11909
823.939	55.12995
824.348	47.10954
824.756	26.06282
825.164	60.14481
825.573	65.15738
825.981	70.16588
826.389	48.11629
826.797	65.15998
827.205	61.13566
827.612	45.10661
828.02	2.00454
828.428	-29.07235
828.835	37.09534
829.243	-2.0046
829.65	38.0923
830.057	3.00704
830.464	77.18257
830.871	58.13425
831.278	32.07489
831.685	44.09388
832.092	17.03995
832.499	34.07204
832.905	35.08519
833.312	-18.03917
833.718	31.07543
834.124	70.15357
834.531	15.03635
834.937	43.10724
835.343	0
835.749	33.07315
836.155	46.11669
836.561	52.12351
836.966	44.10334
837.372	-1.00247
837.777	53.12789
838.183	52.11009
838.588	29.07027
838.993	54.12668
839.399	35.08318
839.804	10.02374
840.209	29.07256
840.613	18.03857
841.018	39.09496
841.423	71.17552
841.828	12.02968
842.232	39.09154
842.637	50.11486
843.041	3.00754
843.445	4.00968
843.849	29.06985
844.253	35.07993
844.657	10.02467
845.061	90.1982
845.465	52.12098
845.869	44.09832
846.272	34.08051
846.676	30.06875
847.079	33.08203
847.483	33.07936
847.886	23.05359
848.289	42.11027
848.692	4.00979
849.095	-7.01628
849.498	7.01697
849.901	68.14761
850.304	16.03696
850.707	2.00495
851.109	29.07061
851.512	35.08337
851.914	30.07385
852.316	55.13577
852.718	51.13082
853.121	36.08528
853.523	23.05151
853.925	13.03339
854.326	20.04887
854.728	29.07261
855.13	33.08343
855.531	-3.00699
855.933	47.10734
856.334	58.14051
856.736	65.14065
857.137	14.03181
857.538	14.03446
857.939	46.11136
858.34	7.01636
858.741	27.06824
859.142	1.00232
859.542	5.01296
859.943	31.07444
860.343	0
860.744	38.08939
861.144	83.19558
861.544	34.0801
861.945	11.0272
862.345	25.0588
862.745	33.07993
863.145	20.04524
863.544	33.08098
863.944	73.16477
864.344	11.02613
864.743	21.05035
865.143	87.21642
865.542	-32.07139
865.941	61.14575
866.34	26.05927
866.74	32.08353
867.139	38.08904
867.537	-12.02948
867.936	-13.03061
868.335	32.07857
868.734	41.10151
869.132	-3.00667
869.531	33.07594
869.929	6.01331
870.327	80.18319
870.726	28.06674
871.124	74.16358
871.522	32.07857
871.92	46.1093
872.318	0
872.715	33.07758
873.113	29.0678
873.511	37.08864
873.908	13.03244
874.306	36.08728
874.703	13.0312
875.1	-6.01472
875.497	51.1169
875.894	82.19611
876.291	23.05472
876.688	29.07259
877.085	48.10978
877.482	28.06773
877.878	41.09646
878.275	60.14716
878.671	-2.00416
879.068	56.12962
879.464	28.06527
879.86	38.08645
880.256	-3.00707
880.652	3.00742
881.048	27.06389
881.444	-19.04331
881.84	22.05408
882.236	33.08005
882.631	38.09047
883.027	19.04425
883.422	-4.00989
883.817	29.07111
884.213	-5.01251
884.608	50.12081
885.003	34.07826
885.398	17.04129
885.793	18.04356
886.188	-20.0484
886.582	39.09564
886.977	32.07257
887.371	12.02921
887.766	1.00243
888.16	2.00476
888.554	35.08279
888.949	20.04858
889.343	72.16725
889.737	-8.02105
890.131	64.15423
890.525	41.10203
890.918	25.06081
891.312	18.04112
891.706	12.03053
892.099	52.12697
892.492	68.13828
892.886	-25.05948
893.279	-7.01732
893.672	31.07692
894.065	30.07268
894.458	-19.04609
894.851	38.08897
895.244	1.00248
895.637	74.17101
896.029	52.12303
896.422	-23.05403
896.814	17.04076
897.206	50.11605
897.599	59.13984
897.991	77.17918
898.383	15.03433
898.775	61.13318
899.167	-3.00689
899.559	3.0073
899.951	8.01805
900.342	34.08265
900.734	55.13467
901.125	43.10821
901.517	51.1206
901.908	18.04098
902.299	22.05217
902.69	39.08936
903.082	78.1804
903.473	51.11929
903.863	-9.02223
904.254	34.07688
904.645	18.0427
905.036	20.04783
905.426	49.10553
905.817	24.05645
906.207	-38.08733
906.597	-8.01836
906.987	-1.0025
907.378	30.0738
907.768	39.10018
908.158	23.05401
908.547	53.13404
908.937	-16.0395
909.327	30.07005
909.717	-1.00242
910.106	-31.07222
910.495	32.07612
910.885	52.12716
911.274	-12.02914
911.663	-11.02691
912.052	25.0588
912.441	41.10147
912.83	-15.03312
913.219	24.06062
913.608	50.11821
913.997	43.10502
914.385	33.07588
914.774	17.0399
915.162	46.1066
915.55	20.04631
915.939	-14.03473
916.327	13.03114
916.715	55.13722
917.103	22.05131
917.491	76.17905
917.878	54.12707
918.266	10.02507
918.654	48.11925
919.041	32.08204
919.429	31.07037
919.816	-4.00984
920.203	37.08732
920.591	47.11238
920.978	50.11757
921.365	31.07913
921.752	-29.0662
922.139	69.14227
922.525	68.1569
922.912	30.07021
923.299	60.14339
923.685	11.0276
924.072	-45.09854
924.458	18.04336
924.844	0
925.231	-10.02233
925.617	40.09938
926.003	2.00495
926.389	6.01468
926.774	20.04885
927.16	44.10491
927.546	36.09035
927.931	25.05983
928.317	0
928.702	40.09034
929.088	61.14145
929.473	35.08678
929.858	58.13718
930.243	74.17162
930.628	8.01907
931.013	20.04802
931.398	20.04342
931.783	-15.0381
932.167	79.18666
932.552	26.0627
932.937	38.09022
933.321	30.07339
933.705	-18.04367
934.09	10.02394
934.474	15.034
934.858	11.02778
935.242	5.01115
935.626	31.07717
936.009	31.08082
936.393	31.0774
936.777	41.10203
937.16	35.08887
937.544	-47.10621
937.927	34.08385
938.311	56.12998
938.694	56.14332
939.077	16.03698
939.46	13.03012
939.843	-5.00977
940.226	11.02721
940.609	59.1311
940.991	-32.07907
941.374	29.06884
941.757	25.05925
942.139	41.08856
942.522	62.13894
942.904	22.05102
943.286	17.04166
943.668	92.23073
944.05	-2.00479
944.432	36.08518
944.814	-28.06648
945.196	13.03093
945.578	30.06996
945.959	-11.0247
946.341	-23.05382
946.722	87.19268
947.104	61.13954
947.485	-7.01578
947.866	63.1538
948.247	41.1008
948.628	-16.03712
949.009	-29.07259
949.39	30.0715
949.771	-57.12629
950.152	-7.01671
950.532	53.1291
950.913	29.06722
951.293	27.07152
951.674	20.04668
952.054	40.09745
952.434	15.0361
952.814	9.02041
953.194	-3.00753
953.574	25.05907
953.954	-27.06164
954.334	69.16644
954.714	-21.0501
955.093	51.12027
955.473	63.153
955.853	58.14462
956.232	9.02399
956.611	-17.03901
956.99	19.04642
957.37	1.00246
957.749	-25.05698
958.128	36.0881
958.506	11.02777
958.885	29.07038
959.264	30.07191
959.643	103.22316
960.021	34.08187
960.4	25.0543
960.778	7.01641
961.156	-32.07796
961.535	36.07955
961.913	110.24488
962.291	59.14767
962.669	26.06405
963.047	24.05963
963.424	71.17643
963.802	26.06185
964.18	-6.01449
964.557	49.10721
964.935	49.11101
965.312	6.01529
965.69	29.06932
966.067	-19.04441
966.444	-19.0446
966.821	-16.04027
967.198	-38.08872
967.575	39.09147
967.952	17.03845
968.329	42.09891
968.705	86.17545
969.082	51.12793
969.458	35.08203
969.835	26.06097
970.211	73.18186
970.587	17.04102
970.963	-28.06946
971.339	-12.03072
971.715	58.1393
972.091	60.14136
972.467	-39.09351
972.843	29.07035
973.219	81.18298
973.594	23.05834
973.97	-10.02239
974.345	25.05792
974.721	-1.00231
975.096	71.16561
975.471	16.0364
975.846	0
976.221	5.01234
976.596	71.16555
976.971	57.13604
977.346	21.04657
977.72	-19.0469
978.095	23.05749
978.469	33.07528
978.844	19.04585
979.218	3.00708
979.593	35.0801
979.967	18.04143
980.341	60.13246
980.715	52.12631
981.089	24.05795
981.463	22.04855
981.837	4.00959
982.21	25.05421
982.584	25.05847
982.957	17.04135
983.331	17.03806
983.704	101.2392
984.078	19.04512
984.451	30.0706
984.824	42.09903
985.197	-15.03477
985.57	-14.03355
985.943	-16.03762
986.316	-8.01872
986.688	54.12435
987.061	49.11033
987.434	81.2053
987.806	-7.01619
988.179	6.0136
988.551	51.12372
988.923	25.05896
989.295	45.1074
989.667	33.0771
990.039	74.17806
990.411	-37.0814
990.783	26.05656
991.155	-15.03518
991.527	21.04879
991.898	23.05565
992.27	24.05792
992.641	39.09347
993.012	-5.01105
993.384	14.03201
993.755	-9.02246
994.126	84.1942
994.497	9.02137
994.868	5.01092
995.239	36.08353
995.61	21.05113
995.98	-13.03059
996.351	34.08175
996.722	9.02039
997.092	46.10499
997.462	6.01372
997.833	42.09439
998.203	29.0665
998.573	25.06035
998.943	58.13067
999.313	18.04186
999.683	53.12226
1000.053	-55.12033
1000.423	35.08103
1000.792	29.07175
1001.162	-6.01421
1001.531	10.02389
1001.901	39.09297
1002.27	-15.03165
1002.639	-12.02957
1003.009	50.11343
1003.378	-9.02243
1003.747	60.13424
1004.116	27.06199
1004.485	5.01153
1004.853	11.02656
1005.222	-36.08685
1005.591	20.0455
1005.959	36.07801
1006.328	23.04987
1006.696	-26.06066
1007.064	-21.05087
1007.433	-9.02164
1007.801	9.02094
1008.169	-2.00484
1008.537	57.11975
1008.905	48.10779
1009.273	34.08007
1009.64	77.17748
1010.008	9.02064
1010.375	53.12065
1010.743	40.08524
1011.11	48.11106
1011.478	39.09354
1011.845	21.04715
1012.212	52.1137
1012.579	29.06868
1012.946	8.01812
1013.313	30.06784
1013.68	47.1
1014.047	-21.04854
1014.414	-23.05259
1014.78	25.06019
1015.147	-4.00923
1015.513	11.02557
1015.88	19.04658
1016.246	-13.03069
1016.612	46.09947
1016.978	61.14402
1017.344	22.05256
1017.71	50.11582
1018.076	3.00674
1018.442	49.12171
1018.808	45.10924
1019.174	-1.00241
1019.539	-23.04887
1019.905	39.08867
1020.27	-1.00238
1020.636	5.01139
1021.001	48.1104
1021.366	28.06499
1021.731	98.244
1022.096	33.0811
1022.461	87.19597
1022.826	55.12602
1023.191	-5.01277
1023.556	35.07806
1023.92	14.03285
1024.285	-6.014
1024.649	28.06553
1025.014	8.0189
1025.378	41.09987
1025.742	20.04743
1026.107	26.05605
1026.471	57.12582
1026.835	17.04067
1027.199	21.04879
1027.562	-7.01552
1027.926	44.10241
1028.29	-22.05426
1028.654	32.07009
1029.017	67.15782
1029.381	28.06453
1029.744	0
1030.107	67.15086
1030.471	66.15161
1030.834	24.05134
1031.197	44.10132
1031.56	2.00452
1031.923	10.02512
1032.286	82.18255
1032.648	1.00227
1033.011	49.10906
1033.374	5.01118
1033.736	-3.00768
1034.099	50.11683
1034.461	-2.00495
1034.823	11.02661
1035.185	31.07438
1035.548	40.09391
1035.91	22.05054
1036.272	74.1607
1036.634	54.12628
1036.995	2.00449
1037.357	51.11952
1037.719	37.08654
1038.08	98.22233
1038.442	6.0137
1038.803	7.01592
1039.165	-4.00973
1039.526	16.03728
1039.887	33.07564
1040.248	67.16076
1040.609	25.05875
1040.97	66.15337
1041.331	55.13467
1041.692	39.08893
1042.053	53.114
1042.413	-11.02457
1042.774	76.17647
1043.134	27.06077
1043.495	13.03156
1043.855	97.2259
1044.215	33.07824
1044.576	66.15167
1044.936	73.15755
1045.296	32.0768
1045.656	-21.04943
1046.016	35.08048
1046.375	19.04437
1046.735	46.10151
1047.095	61.13605
1047.454	51.1009
1047.814	27.06243
1048.173	39.08774
1048.533	1.00221
1048.892	-29.06799
1049.251	10.02405
1049.61	35.08292
1049.969	-5.01134
1050.328	79.16142
1050.687	35.08113
1051.046	51.11826
1051.405	-22.05262
1051.763	43.09563
1052.122	5.01204
1052.48	15.03559
1052.839	70.15958
1053.197	58.12992
1053.555	-2.00428
1053.914	60.13965
1054.272	5.01138
1054.63	27.0637
1054.988	51.11704
1055.345	13.02632
1055.703	68.15627
1056.061	58.14509
1056.419	55.1393
1056.776	-31.07168
1057.134	-50.11043
1057.491	31.07478
1057.848	19.04529
1058.206	9.02001
1058.563	20.04201
1058.92	51.11135
1059.277	29.06879
1059.634	3.00669
1059.991	58.13297
1060.348	25.05435
1060.704	70.16293
1061.061	66.14248
1061.418	39.09086
1061.774	14.03335
1062.131	48.12444
1062.487	-29.0653
1062.843	29.06953
1063.199	39.09326
1063.555	33.07397
1063.911	0
1064.267	46.08911
1064.623	25.05916
1064.979	-69.15351
1065.335	25.05677
1065.691	-29.06634
1066.046	40.08338
1066.402	-9.01956
1066.757	50.12122
1067.112	6.01414
1067.468	45.10319
1067.823	-28.06386
1068.178	32.07369
1068.533	57.13191
1068.888	77.17366
1069.243	17.04046
1069.598	-18.04208
1069.952	57.12508
1070.307	43.10278
1070.662	71.16274
1071.016	73.15749
1071.371	68.14767
1071.725	-7.01601
1072.079	34.07864
1072.434	-6.01417
1072.788	-8.01813
1073.142	105.24501
1073.496	16.03639
1073.85	33.07299
1074.203	-1.00235
1074.557	48.12478
1074.911	38.08607
1075.265	58.12816
1075.618	65.15162
1075.971	27.06151
1076.325	14.03471
1076.678	17.03734
1077.031	-55.1183
1077.385	39.08132
1077.738	16.0345
1078.091	64.1397
1078.444	42.09175
1078.796	37.0878
1079.149	38.09102
1079.502	71.16084
1079.855	33.07379
1080.207	26.06135
1080.56	-21.05326
1080.912	24.05604
1081.264	58.13398
1081.617	8.0189
1081.969	71.17249
1082.321	7.01642
1082.673	13.02901
1083.025	20.04524
1083.377	21.04732
1083.728	53.11704
1084.08	14.03348
1084.432	25.05765
1084.783	17.03738
1085.135	34.08243
1085.486	-15.03339
1085.838	45.1067
1086.189	64.14972
1086.54	18.0411
1086.891	56.13872
1087.242	43.10231
1087.593	54.12345
1087.944	57.12392
1088.295	39.08424
1088.646	105.24607
1088.996	42.09764
1089.347	-10.0236
1089.698	65.14821
1090.048	-12.03011
1090.398	44.09657
1090.749	-19.04357
1091.099	54.1321
1091.449	24.05788
1091.799	30.07227
1092.149	5.01197
1092.499	7.01649
1092.849	25.06144
1093.199	47.11187
1093.548	33.07704
1093.898	5.01204
1094.248	9.02214
1094.597	25.06253
1094.947	33.08539
1095.296	62.14732
1095.645	37.09234
1095.994	48.11022
1096.343	43.10443
1096.692	52.13401
1097.041	71.18833
1097.39	1.00241
1097.739	11.02768
1098.088	38.09763
1098.437	49.12613
1098.785	-7.01823
1099.134	-23.05856
1099.482	8.02152
1099.83	12.0306
1100.179	49.12573
1100.527	-32.08213
1100.875	20.05171
1101.223	47.1214
1101.571	-12.03229
1101.919	93.23822
1102.267	4.01111
1102.615	5.01606
1102.962	-1.00321
1103.31	7.02247
1103.658	-6.01925
