Data from N1R0 150C sample 5_Subt2__3__14-19-51-083.txt Node

Date: Tue Sep 16 14:19:51 PDT 2025
User: uwsun
Spectrometer: HDX01956
Trigger mode: 0
Integration Time (sec): 5.000000E-1
Scans to average: 1
Nonlinearity correction enabled: true
Boxcar width: 0
Storing dark spectrum: false
XAxis mode: Wavelengths
Number of Pixels in Spectrum: 2068
>>>>>Begin Spectral Data<<<<<
194.03	-17.04947
194.578	6.01949
195.127	-4.01283
195.676	3.00965
196.225	-14.03748
196.773	-14.03921
197.321	-23.06463
197.87	28.07301
198.418	35.09181
198.966	56.1496
199.513	55.14202
200.061	1.0026
200.609	56.14975
201.156	15.03376
201.704	-1.00258
202.251	24.065
202.798	4.01061
203.345	32.08092
203.892	29.0748
204.438	-14.03422
204.985	32.07773
205.532	15.04026
206.078	0
206.624	37.09474
207.17	51.122
207.716	29.07274
208.262	44.08952
208.808	70.17846
209.354	36.09094
209.899	-5.01292
210.445	20.0512
210.99	60.14896
211.535	63.1511
212.08	21.04998
212.625	-9.02309
213.17	102.26196
213.715	27.0633
214.259	70.16607
214.804	26.06509
215.348	73.17148
215.892	68.16765
216.436	10.02343
216.98	45.10082
217.524	67.16271
218.068	46.1181
218.612	82.21082
219.155	31.07489
219.698	57.13775
220.242	28.07037
220.785	44.10531
221.328	16.04034
221.871	98.25125
222.414	32.08046
222.956	-4.0098
223.499	-3.00687
224.041	14.03268
224.583	32.06878
225.126	36.08041
225.668	1.00248
226.21	43.11038
226.751	63.14226
227.293	12.02772
227.835	77.19022
228.376	44.10148
228.918	24.06069
229.459	10.02543
230	48.1169
230.541	35.0818
231.082	21.05207
231.622	-6.0139
232.163	-4.00986
232.704	65.16428
233.244	57.14288
233.784	15.03699
234.324	124.27925
234.864	45.1031
235.404	52.12379
235.944	28.06699
236.484	51.12871
237.023	12.02883
237.563	50.11784
238.102	59.14102
238.641	11.02812
239.18	17.0407
239.719	46.11649
240.258	18.04125
240.797	28.06801
241.335	47.1156
241.874	84.16544
242.412	86.2103
242.95	50.12245
243.488	18.0412
244.026	66.15525
244.564	45.09429
245.102	36.08306
245.64	45.10875
246.177	5.01136
246.715	73.17682
247.252	10.02316
247.789	70.13151
248.326	71.17269
248.863	10.02254
249.4	60.13761
249.936	96.2027
250.473	75.17899
251.009	35.08145
251.546	80.18046
252.082	8.01768
252.618	12.02746
253.154	73.17722
253.69	63.1429
254.226	61.1477
254.761	43.09805
255.297	30.06676
255.832	44.1062
256.367	47.11196
256.903	64.14419
257.438	52.12341
257.972	8.01823
258.507	-40.09464
259.042	41.09076
259.576	97.21626
260.111	48.11172
260.645	62.13568
261.179	23.05493
261.713	3.00689
262.247	22.05119
262.781	48.103
263.315	-5.01239
263.849	48.12168
264.382	41.09564
264.915	56.13429
265.449	1.00249
265.982	38.08778
266.515	96.2365
267.048	64.13757
267.58	86.18684
268.113	43.09464
268.646	21.05226
269.178	7.01601
269.71	89.19858
270.243	75.17563
270.775	67.17354
271.307	36.08685
271.838	45.10773
272.37	7.0175
272.902	47.10803
273.433	67.15055
273.965	53.1303
274.496	43.10794
275.027	76.19074
275.558	82.20171
276.089	44.1115
276.62	6.01541
277.15	55.13672
277.681	3.00662
278.211	51.12585
278.741	33.07479
279.272	86.19851
279.802	53.13333
280.332	22.053
280.861	38.09223
281.391	75.17225
281.921	-8.01958
282.45	64.16016
282.98	56.14742
283.509	86.19756
284.038	48.11168
284.567	58.13696
285.096	63.15466
285.625	-1.00231
286.153	63.15254
286.682	72.16745
287.21	19.04611
287.739	45.10797
288.267	35.08672
288.795	31.08212
289.323	28.06709
289.851	33.07915
290.378	49.11101
290.906	34.08469
291.433	87.21831
291.961	67.15524
292.488	41.10318
293.015	95.22603
293.542	105.27112
294.069	87.21736
294.596	14.0349
295.122	63.15317
295.649	25.05594
296.175	17.04175
296.702	84.20732
297.228	24.05889
297.754	67.15289
298.28	55.12874
298.806	49.11994
299.332	35.0801
299.857	81.18633
300.383	38.09705
300.908	78.19385
301.433	107.26374
301.958	49.1143
302.483	34.0857
303.008	79.19852
303.533	26.06819
304.058	37.08786
304.582	70.16761
305.107	7.01859
305.631	70.16093
306.155	19.04533
306.679	74.17637
307.203	91.21343
307.727	56.13485
308.251	64.15999
308.775	74.18244
309.298	76.1855
309.822	23.05889
310.345	95.22924
310.868	93.22645
311.391	81.20157
311.914	9.02307
312.437	56.13039
312.96	78.18619
313.482	45.10773
314.005	-18.04615
314.527	22.05823
315.049	47.1209
315.571	113.25662
316.093	78.19541
316.615	41.10024
317.137	72.15976
317.659	77.18882
318.18	14.03417
318.702	46.11006
319.223	22.04625
319.744	89.20318
320.265	75.18528
320.786	88.22229
321.307	17.04296
321.828	74.16979
322.348	29.0699
322.869	107.25732
323.389	38.07703
323.909	66.15349
324.43	75.18173
324.95	60.14009
325.47	67.16873
325.989	104.2493
326.509	73.16672
327.029	73.16987
327.548	58.13425
328.067	91.22365
328.587	100.25323
329.106	58.13345
329.625	61.16094
330.144	93.2194
330.662	88.20982
331.181	116.27636
331.7	41.09755
332.218	78.17278
332.736	95.22551
333.255	90.21516
333.773	69.16587
334.291	118.29732
334.808	71.16346
335.326	60.13789
335.844	103.24563
336.361	149.38432
336.879	97.23176
337.396	117.28776
337.913	92.21616
338.43	94.21567
338.947	89.21598
339.464	39.0868
339.981	59.14291
340.497	116.28766
341.014	99.24438
341.53	43.09971
342.046	171.42706
342.562	113.28416
343.078	117.27859
343.594	88.21263
344.11	132.31882
344.626	125.31782
345.141	132.30517
345.657	148.33753
346.172	167.40358
346.687	78.18269
347.202	158.36324
347.717	91.22058
348.232	122.3064
348.747	134.31274
349.261	139.30899
349.776	173.41208
350.29	172.43073
350.805	134.33327
351.319	91.21535
351.833	164.37959
352.347	112.26817
352.861	157.37052
353.374	110.254
353.888	151.3711
354.401	73.17001
354.915	186.42127
355.428	126.31668
355.941	130.30603
356.454	120.27091
356.967	123.29017
357.48	159.36254
357.993	137.33905
358.505	112.27541
359.018	158.38837
359.53	157.38484
360.042	179.40237
360.554	186.45466
361.066	117.28765
361.578	193.42724
362.09	126.30295
362.602	194.43313
363.113	156.36952
363.625	173.39462
364.136	167.36923
364.647	167.39748
365.158	133.31291
365.669	156.37422
366.18	174.41024
366.691	152.33627
367.201	162.3895
367.712	185.42437
368.222	215.49299
368.733	158.34692
369.243	192.43008
369.753	172.39779
370.263	209.50202
370.773	124.30446
371.282	201.4784
371.792	227.52238
372.301	139.33794
372.811	228.59041
373.32	209.45242
373.829	172.40616
374.338	227.50146
374.847	169.39171
375.356	196.46067
375.865	258.54762
376.373	190.43243
376.882	267.66315
377.39	216.51696
377.898	190.46495
378.407	261.58451
378.915	298.63914
379.423	225.51881
379.93	303.68777
380.438	243.57568
380.946	313.70931
381.453	280.65807
381.96	332.76869
382.468	327.74645
382.975	353.83428
383.482	355.76778
383.989	410.00199
384.495	447.98776
385.002	453.89916
385.509	459.03169
386.015	552.04064
386.521	475.01348
387.028	521.09787
387.534	522.03365
388.04	598.31524
388.546	565.14377
389.051	627.2469
389.557	642.33874
390.063	621.26651
390.568	708.51115
391.073	676.33608
391.578	729.57314
392.084	807.58609
392.589	834.54046
393.093	952.90874
393.598	934.79776
394.103	1034.01855
394.607	1137.19659
395.112	1204.34676
395.616	1344.49976
396.12	1424.41707
396.624	1574.67623
397.128	1729.90981
397.632	1985.03111
398.136	2076.00347
398.639	2193.16613
399.143	2383.51831
399.646	2782.39763
400.15	3048.30598
400.653	3305.1715
401.156	3785.96641
401.659	4437.18116
402.162	5412.30074
402.664	7173.35439
403.167	10143.13494
403.67	19297.54208
404.172	58472.02645
404.674	63195.16735
405.176	63738.15102
405.678	63977.72923
406.18	64011.81569
406.682	63863.44694
407.184	63926.60148
407.686	63841.39382
408.187	32196.7231
408.688	19039.66022
409.19	13120.20643
409.691	10465.13218
410.192	8737.15188
410.693	7650.75707
411.194	6809.7284
411.694	6417.0646
412.195	5956.58287
412.696	5338.42389
413.196	4999.89083
413.696	4726.88591
414.196	4846.2712
414.696	4697.14136
415.196	4437.85772
415.696	4111.78077
416.196	3400.29553
416.695	2565.31453
417.195	2244.28371
417.694	2125.63596
418.194	1913.57693
418.693	1852.81828
419.192	1759.85639
419.691	1723.77263
420.19	1722.8925
420.688	1586.82754
421.187	1620.25695
421.685	1523.57172
422.184	1407.4897
422.682	1139.95663
423.18	1033.93874
423.678	909.74412
424.176	809.58554
424.674	800.52693
425.172	794.60995
425.669	675.46956
426.167	717.45861
426.664	579.18607
427.161	576.19721
427.659	527.17124
428.156	548.0589
428.652	465.08993
429.149	426.97022
429.646	458.95003
430.143	408.92097
430.639	360.81132
431.135	346.82549
431.632	320.7017
432.128	329.75646
432.624	343.84502
433.12	282.62203
433.616	311.65535
434.111	296.67719
434.607	266.61688
435.103	263.53446
435.598	254.51394
436.093	255.57624
436.588	241.52815
437.083	197.43373
437.578	225.50866
438.073	191.46922
438.568	200.48232
439.062	205.43028
439.557	190.43593
440.051	146.32516
440.546	167.37416
441.04	169.39961
441.534	144.35814
442.028	191.45093
442.522	176.41512
443.015	77.16597
443.509	117.28254
444.002	125.30311
444.496	152.32587
444.989	88.21303
445.482	114.28001
445.975	175.39757
446.468	107.23123
446.961	178.37996
447.454	105.23467
447.947	69.16499
448.439	138.33432
448.931	143.32448
449.424	153.38308
449.916	152.36518
450.408	144.32522
450.9	92.22246
451.392	127.31856
451.884	143.32435
452.375	98.24098
452.867	66.14876
453.358	111.25258
453.849	138.29189
454.341	120.26869
454.832	93.20055
455.323	134.32926
455.814	127.28735
456.304	72.16659
456.795	37.08512
457.285	88.19331
457.776	136.3059
458.266	97.22875
458.756	43.10196
459.247	109.25834
459.737	116.27774
460.226	135.30384
460.716	133.31352
461.206	70.16709
461.695	72.17725
462.185	110.25865
462.674	79.18013
463.163	135.29885
463.653	81.17234
464.142	97.23318
464.63	75.18091
465.119	91.21034
465.608	80.18671
466.096	64.13905
466.585	61.13931
467.073	46.10867
467.561	88.20958
468.05	13.03019
468.538	69.16782
469.026	44.10447
469.513	71.14975
470.001	56.12869
470.489	59.14005
470.976	119.27462
471.463	43.10701
471.951	82.20216
472.438	65.15221
472.925	97.22635
473.412	47.11393
473.899	58.13292
474.385	54.1319
474.872	79.18318
475.359	47.11547
475.845	88.1814
476.331	33.0707
476.817	77.18616
477.303	80.18488
477.789	29.06926
478.275	63.15563
478.761	44.10447
479.247	73.16221
479.732	39.0973
480.218	113.29198
480.703	32.07892
481.188	78.16824
481.673	56.12864
482.158	37.0804
482.643	97.24506
483.128	123.28283
483.612	100.23596
484.097	55.13227
484.581	17.03959
485.066	70.1706
485.55	51.113
486.034	41.08925
486.518	108.25563
487.002	24.05852
487.486	29.07053
487.969	3.00734
488.453	24.05984
488.936	29.06562
489.42	80.1761
489.903	49.12163
490.386	-60.12741
490.869	77.16811
491.352	-16.03891
491.835	24.04952
492.318	23.052
492.8	55.11412
493.283	73.18509
493.765	31.07613
494.247	77.17819
494.73	39.08662
495.212	26.06183
495.694	52.12251
496.175	45.10818
496.657	39.09247
497.139	55.09476
497.62	41.09871
498.102	21.05247
498.583	-26.0646
499.064	39.08724
499.545	60.13651
500.026	50.11325
500.507	33.07622
500.988	102.25211
501.469	21.05249
501.949	95.23218
502.43	85.2034
502.91	118.2474
503.39	16.03982
503.87	71.16717
504.35	-10.02365
504.83	18.03967
505.31	57.13703
505.79	-7.01671
506.269	41.09424
506.749	53.12104
507.228	58.13633
507.707	85.18856
508.187	97.22964
508.666	94.23081
509.145	87.20197
509.623	64.14943
510.102	92.22062
510.581	134.31802
511.059	134.33181
511.538	169.42573
512.016	179.41834
512.494	163.38304
512.972	165.38638
513.45	154.35206
513.928	176.41769
514.406	196.46748
514.884	192.48219
515.361	216.50054
515.839	277.60985
516.316	244.57146
516.793	255.61923
517.27	272.62629
517.747	278.68404
518.224	267.58882
518.701	310.6488
519.178	314.74773
519.654	338.75583
520.131	311.73305
520.607	262.61433
521.083	286.61737
521.56	302.67701
522.036	245.5122
522.512	315.73959
522.987	355.8061
523.463	254.57854
523.939	339.79686
524.414	273.59726
524.89	303.68832
525.365	246.53422
525.84	256.59157
526.315	215.50483
526.79	207.45269
527.265	250.55561
527.74	167.39641
528.215	179.40715
528.689	129.27853
529.164	125.26422
529.638	142.35368
530.112	110.25582
530.587	169.35331
531.061	120.28677
531.534	143.33866
532.008	161.38364
532.482	131.29665
532.956	90.22782
533.429	154.36985
533.903	84.18312
534.376	79.17394
534.849	66.15143
535.322	102.23843
535.795	58.13988
536.268	86.20693
536.741	55.13051
537.213	79.18079
537.686	69.16832
538.158	93.21017
538.631	57.13796
539.103	39.0885
539.575	33.06841
540.047	82.178
540.519	79.18789
540.991	37.0905
541.463	71.17023
541.934	8.01827
542.406	35.08446
542.877	43.09741
543.348	43.10412
543.82	52.1265
544.291	69.16082
544.762	70.16633
545.233	48.12181
545.703	-2.00451
546.174	41.09548
546.645	69.16669
547.115	19.04623
547.585	44.1016
548.056	77.18889
548.526	72.17075
548.996	7.01691
549.466	60.14585
549.935	56.13408
550.405	34.07531
550.875	65.15442
551.344	-2.00483
551.814	36.08306
552.283	91.198
552.752	45.10604
553.221	36.08021
553.69	89.20072
554.159	83.20602
554.628	29.06642
555.096	38.09712
555.565	9.02018
556.033	66.15761
556.502	10.02439
556.97	40.08971
557.438	9.02138
557.906	24.05714
558.374	55.12804
558.842	42.10114
559.31	52.11701
559.777	75.1831
560.245	1.00233
560.712	36.08303
561.18	55.12232
561.647	7.01574
562.114	2.00465
562.581	53.13069
563.048	37.08535
563.514	72.18044
563.981	50.11504
564.448	60.13601
564.914	27.06323
565.381	103.234
565.847	66.1538
566.313	64.14861
566.779	61.13763
567.245	66.15289
567.711	78.18626
568.176	35.07916
568.642	69.17345
569.108	115.27991
569.573	50.1161
570.038	74.15488
570.504	101.22694
570.969	99.24349
571.434	134.29398
571.899	122.28608
572.363	168.37787
572.828	154.34823
573.293	123.27898
573.757	157.35827
574.222	145.32032
574.686	182.40953
575.15	198.46483
575.614	241.55038
576.078	198.45301
576.542	182.40567
577.006	182.40231
577.469	185.44454
577.933	204.45282
578.396	138.32271
578.86	211.48284
579.323	192.4518
579.786	204.43093
580.249	209.47942
580.712	202.47828
581.175	139.33769
581.637	185.41244
582.1	194.41232
582.563	160.33398
583.025	176.4193
583.487	165.33363
583.95	122.25907
584.412	186.38187
584.874	202.47995
585.336	178.4133
585.797	168.35862
586.259	145.33422
586.721	121.28101
587.182	178.40151
587.643	143.32039
588.105	112.26232
588.566	90.18736
589.027	185.44302
589.488	167.37616
589.949	185.43914
590.41	126.24746
590.87	145.32728
591.331	189.40371
591.791	85.19639
592.252	157.35971
592.712	91.21701
593.172	140.31438
593.632	202.43774
594.092	73.16282
594.552	105.22633
595.011	92.2099
595.471	154.34369
595.931	131.29254
596.39	90.21516
596.849	93.21565
597.308	52.11144
597.768	109.27871
598.227	111.2644
598.685	106.23999
599.144	113.2642
599.603	69.16133
600.062	37.07876
600.52	89.20056
600.978	69.16297
601.437	78.17717
601.895	85.18204
602.353	41.09073
602.811	98.22007
603.269	54.1287
603.727	101.24077
604.184	52.11902
604.642	86.21038
605.099	88.20482
605.557	58.14109
606.014	15.03275
606.471	57.14303
606.928	47.10513
607.385	63.15769
607.842	54.12425
608.299	70.1635
608.755	38.09244
609.212	31.06977
609.668	54.12231
610.125	96.22977
610.581	32.07548
611.037	38.08568
611.493	-2.00473
611.949	42.10267
612.405	61.12481
612.861	31.07174
613.316	39.09379
613.772	6.0139
614.227	84.20097
614.683	35.07476
615.138	29.06842
615.593	16.03746
616.048	45.10331
616.503	24.05858
616.958	15.0378
617.412	29.06924
617.867	23.05191
618.321	59.12203
618.776	31.06874
619.23	56.13116
619.684	37.08293
620.138	37.08498
620.592	7.01711
621.046	37.08773
621.5	29.07006
621.954	-6.01344
622.407	24.05343
622.861	33.08032
623.314	77.17344
623.768	50.11812
624.221	53.10456
624.674	19.04418
625.127	-5.01175
625.58	28.06316
626.033	76.16533
626.485	8.01927
626.938	51.12134
627.39	83.19276
627.843	40.09237
628.295	49.11295
628.747	74.17549
629.199	23.05263
629.651	73.16652
630.103	62.1418
630.555	9.01914
631.006	34.0792
631.458	57.13374
631.909	20.04502
632.361	45.10377
632.812	29.06732
633.263	89.19151
633.714	9.01922
634.165	5.01206
634.616	-11.02625
635.067	16.03544
635.518	39.09244
635.968	-13.02591
636.419	67.14572
636.869	45.10641
637.319	70.16151
637.769	18.04069
638.219	42.09899
638.669	30.07139
639.119	-9.02171
639.569	33.07918
640.019	75.17205
640.468	64.14283
640.918	-20.04792
641.367	60.13379
641.816	27.0602
642.265	75.17377
642.714	37.08488
643.163	57.13133
643.612	56.13674
644.061	11.02371
644.51	43.09856
644.958	47.10374
645.406	19.04555
645.855	3.00732
646.303	23.05331
646.751	72.1656
647.199	37.08392
647.647	30.0698
648.095	45.10248
648.543	40.08127
648.99	30.07216
649.438	59.13583
649.885	34.08475
650.333	50.09709
650.78	37.08939
651.227	54.13166
651.674	12.02754
652.121	50.12232
652.568	5.01232
653.015	-7.01743
653.461	43.10207
653.908	17.03919
654.354	28.06674
654.801	-45.10719
655.247	9.01962
655.693	19.04945
656.139	17.04068
656.585	41.09774
657.031	23.0542
657.477	34.07443
657.922	30.06825
658.368	40.09807
658.813	39.08857
659.259	39.09443
659.704	106.24788
660.149	-18.04193
660.594	24.05705
661.039	14.03204
661.484	60.1413
661.929	48.11181
662.373	-4.01009
662.818	41.1011
663.262	3.00729
663.707	56.14166
664.151	58.14057
664.595	12.02912
665.039	22.05462
665.483	29.07368
665.927	43.10062
666.371	39.09165
666.814	28.0665
667.258	43.10337
667.701	70.14813
668.145	79.19459
668.588	68.16715
669.031	3.00709
669.474	6.01445
669.917	21.04612
670.36	30.07478
670.803	60.14405
671.245	-36.07481
671.688	31.07531
672.13	51.11493
672.573	34.08561
673.015	32.07706
673.457	11.02405
673.899	67.1607
674.341	20.0482
674.783	48.11449
675.225	36.08836
675.666	32.07819
676.108	32.06914
676.549	-14.03284
676.991	39.0854
677.432	22.04378
677.873	10.02289
678.314	44.10423
678.755	97.23575
679.196	11.0252
679.637	31.07398
680.078	39.09076
680.518	40.09145
680.959	48.11357
681.399	88.21479
681.839	32.07741
682.28	46.11366
682.72	70.15842
683.16	79.19473
683.6	71.1598
684.039	44.09042
684.479	55.13477
684.919	48.11229
685.358	2.00498
685.798	9.02341
686.237	42.09957
686.676	17.03843
687.115	71.16542
687.554	66.15634
687.993	96.20884
688.432	51.11549
688.871	37.08447
689.309	35.08356
689.748	48.09917
690.186	46.10677
690.625	54.12578
691.063	8.01908
691.501	95.23106
691.939	86.21343
692.377	35.08436
692.815	97.23327
693.253	56.13193
693.69	-5.01098
694.128	20.04842
694.565	53.12435
695.003	93.23378
695.44	59.13832
695.877	92.21286
696.314	37.07739
696.751	86.19161
697.188	81.18499
697.625	-4.00896
698.061	17.04057
698.498	37.08678
698.934	36.08541
699.371	34.07951
699.807	61.14223
700.243	72.17128
700.679	71.15593
701.115	72.16546
701.551	11.02548
701.987	30.06507
702.422	86.20182
702.858	80.18781
703.294	159.35301
703.729	37.08922
704.164	53.12503
704.599	93.20373
705.035	73.16127
705.47	52.12479
705.904	34.0781
706.339	65.14707
706.774	58.13409
707.209	71.16281
707.643	63.14863
708.078	44.10587
708.512	34.08453
708.946	52.1216
709.38	77.17989
709.814	44.09848
710.248	73.17575
710.682	119.27888
711.116	83.19869
711.549	27.06834
711.983	42.09598
712.416	86.20032
712.85	44.10768
713.283	77.17855
713.716	122.29433
714.149	29.06653
714.582	99.21742
715.015	53.12813
715.448	95.23434
715.881	56.11835
716.313	84.19227
716.746	116.26754
717.178	59.13978
717.61	105.261
718.043	33.08059
718.475	70.16697
718.907	53.13035
719.339	14.03155
719.77	57.13458
720.202	43.10627
720.634	59.14269
721.065	65.15048
721.497	95.22733
721.928	24.05808
722.359	56.13439
722.79	84.19697
723.221	58.14157
723.652	75.18684
724.083	55.12165
724.514	102.22839
724.945	46.10614
725.375	61.14027
725.806	33.08029
726.236	105.26157
726.666	111.25442
727.096	71.17023
727.526	91.22949
727.956	77.17245
728.386	95.22716
728.816	90.22547
729.246	88.21255
729.675	4.00968
730.105	78.18655
730.534	82.18663
730.964	56.13715
731.393	94.22438
731.822	51.12825
732.251	66.16433
732.68	61.1383
733.109	59.14296
733.537	117.27827
733.966	79.19322
734.395	75.16963
734.823	72.15543
735.251	33.07815
735.68	103.24685
736.108	41.1008
736.536	28.06463
736.964	9.02065
737.392	52.12759
737.82	62.14487
738.247	77.17904
738.675	104.23699
739.102	75.18289
739.53	71.17912
739.957	96.24258
740.384	60.14136
740.811	-22.0544
741.238	104.24835
741.665	157.35538
742.092	39.08799
742.519	31.07596
742.945	117.27623
743.372	96.23257
743.798	97.24173
744.225	60.13888
744.651	25.06165
745.077	97.2353
745.503	28.06653
745.929	124.29111
746.355	24.05749
746.781	66.15845
747.207	92.21303
747.632	96.23257
748.058	133.32469
748.483	112.24923
748.908	72.17548
749.334	38.09227
749.759	103.23874
750.184	77.18151
750.609	64.1533
751.033	71.16143
751.458	135.28911
751.883	65.15626
752.307	68.1564
752.732	92.22973
753.156	63.15168
753.58	51.11765
754.005	14.03464
754.429	107.24644
754.853	64.15616
755.277	82.18995
755.7	75.18173
756.124	41.10021
756.548	70.16132
756.971	44.10535
757.394	36.09042
757.818	43.10906
758.241	117.28839
758.664	51.12631
759.087	36.07991
759.51	51.12311
759.933	64.1516
760.356	86.21669
760.778	47.11329
761.201	72.16943
761.623	42.09779
762.046	51.11634
762.468	89.2067
762.89	56.13342
763.312	80.19096
763.734	42.09941
764.156	46.1114
764.578	68.15069
765	86.20379
765.421	74.18465
765.843	75.19151
766.264	47.10868
766.686	67.16192
767.107	43.10211
767.528	86.2156
767.949	36.08963
768.37	100.24089
768.791	71.16548
769.212	31.07692
769.632	68.15552
770.053	18.04629
770.473	64.15019
770.894	21.05067
771.314	62.1422
771.734	11.02522
772.154	55.13702
772.575	47.10561
772.994	34.07528
773.414	63.14556
773.834	70.16958
774.254	50.11908
774.673	91.21626
775.093	66.16044
775.512	46.11123
775.931	34.08462
776.351	9.02214
776.77	45.10826
777.189	44.10217
777.607	8.02012
778.026	61.1482
778.445	56.13908
778.864	32.07933
779.282	22.05133
779.701	5.01234
780.119	24.05978
780.537	-14.03439
780.955	33.08155
781.373	18.04361
781.791	77.16982
782.209	24.05283
782.627	44.11344
783.045	23.05109
783.462	45.11227
783.88	27.06865
784.297	3.00743
784.715	33.08346
785.132	-1.00236
785.549	-13.03202
785.966	23.05671
786.383	33.07987
786.8	109.24291
787.217	75.17412
787.633	50.12304
788.05	55.12389
788.466	28.06347
788.883	47.11815
789.299	11.02557
789.715	53.12591
790.131	54.13068
790.547	33.08026
790.963	49.11811
791.379	47.11589
791.795	30.06584
792.21	43.09698
792.626	-15.03467
793.041	37.08878
793.457	33.07894
793.872	37.08379
794.287	23.05458
794.702	-29.06921
795.117	40.09738
795.532	55.13522
795.947	35.08064
796.362	-1.00228
796.776	39.08673
797.191	47.11208
797.605	34.07882
798.02	41.09684
798.434	50.10761
798.848	46.11182
799.262	6.01459
799.676	26.0618
800.09	18.0432
800.504	13.03063
800.918	-13.02921
801.331	21.05247
801.745	24.05325
802.158	9.02178
802.572	70.16382
802.985	18.04194
803.398	-1.00232
803.811	-9.02219
804.224	-3.00721
804.637	59.13654
805.05	57.12634
805.462	29.06884
805.875	10.02548
806.288	25.05916
806.7	-3.0073
807.112	2.00448
807.525	-18.04282
807.937	16.0387
808.349	5.01214
808.761	34.08163
809.173	15.03561
809.584	39.0929
809.996	-2.00478
810.408	-10.02565
810.819	18.04127
811.231	21.05499
811.642	73.17549
812.053	59.13946
812.464	-14.03246
812.875	28.0701
813.286	20.05074
813.697	17.03754
814.108	32.07542
814.519	100.21467
814.929	42.10355
815.34	-21.04935
815.75	39.09719
816.16	-7.01682
816.571	2.00506
816.981	-2.00454
817.391	-19.04444
817.801	35.08478
818.211	34.07823
818.62	33.07749
819.03	27.06402
819.44	13.0325
819.849	23.05569
820.259	56.13694
820.668	33.07912
821.077	64.15499
821.486	-2.00463
821.895	-8.01899
822.304	49.12565
822.713	-6.01377
823.122	-9.0219
823.531	-2.00454
823.939	75.17652
824.348	-3.00706
824.756	16.03873
825.164	-13.03181
825.573	10.02446
825.981	0
826.389	9.02196
826.797	27.06692
827.205	42.09377
827.612	13.03099
828.02	-12.02732
828.428	-1.00248
828.835	29.07483
829.243	7.01608
829.65	13.03173
830.057	6.01408
830.464	26.06225
830.871	8.0187
831.278	25.05859
831.685	51.10865
832.092	-23.05447
832.499	65.13679
832.905	2.0049
833.312	-20.04354
833.718	58.14041
834.124	86.18804
834.531	9.02183
834.937	57.14179
835.343	24.05553
835.749	15.03337
836.155	29.07379
836.561	34.08104
836.966	47.11032
837.372	2.00493
837.777	5.01217
838.183	14.02989
838.588	16.03886
838.993	49.11506
839.399	22.05241
839.804	-27.06456
840.209	52.12957
840.613	13.02789
841.018	19.04644
841.423	44.10931
841.828	37.0911
842.232	21.04947
842.637	81.18492
843.041	5.01256
843.445	-24.05841
843.849	69.16493
844.253	42.09579
844.657	7.01728
845.061	97.2133
845.465	22.05149
845.869	14.03148
846.272	-4.00954
846.676	-62.1447
847.079	50.1239
847.483	46.11035
847.886	42.09749
848.289	35.092
848.692	-29.07138
849.095	36.083
849.498	24.05801
849.901	34.07434
850.304	50.11472
850.707	-5.01238
851.109	-8.01961
851.512	53.12581
851.914	-7.01735
852.316	55.13577
852.718	40.1028
853.121	1.00238
853.523	7.01573
853.925	5.01286
854.326	23.05617
854.728	31.07759
855.13	8.02032
855.531	19.04407
855.933	31.07103
856.334	46.11169
856.736	26.05673
857.137	11.02501
857.538	31.07608
857.939	56.13531
858.34	-14.03285
858.741	-7.0178
859.142	47.10795
859.542	7.01814
859.943	6.01448
860.343	-34.08308
860.744	45.10571
861.144	42.09976
861.544	3.00711
861.945	5.01238
862.345	23.05411
862.745	37.08955
863.145	-10.02276
863.544	14.03448
863.944	-8.01836
864.344	16.03797
864.743	52.12394
865.143	13.03277
865.542	-51.11422
865.941	25.06014
866.34	18.0411
866.74	21.05492
867.139	14.03296
867.537	-12.02948
867.936	12.02812
868.335	-13.03219
868.734	22.05466
869.132	22.04863
869.531	14.03234
869.929	65.14239
870.327	2.00465
870.726	1.0024
871.124	17.03803
871.522	3.00741
871.92	55.13046
872.318	4.00941
872.715	-20.0475
873.113	-7.01648
873.511	0
873.908	32.07959
874.306	41.09931
874.703	23.0551
875.1	35.08522
875.497	45.10327
875.894	48.11554
876.291	47.11131
876.688	10.02512
877.085	20.046
877.482	1.00243
877.878	57.13369
878.275	8.01981
878.671	-1.00208
879.068	32.07442
879.464	12.02806
879.86	1.00229
880.256	2.00471
880.652	-42.10469
881.048	38.08973
881.444	-7.01592
881.84	27.06631
882.236	15.03651
882.631	68.16095
883.027	41.09507
883.422	-8.0198
883.817	-7.01728
884.213	18.04483
884.608	59.14232
885.003	-3.00696
885.398	-14.0342
885.793	9.02182
886.188	-3.00724
886.582	42.10294
886.977	60.13529
887.371	-3.00732
887.766	-17.0415
888.16	-18.04298
888.554	16.03799
888.949	37.08959
889.343	29.06794
889.737	-18.04743
890.131	35.08481
890.525	83.20496
890.918	-12.02939
891.312	1.00229
891.706	15.03814
892.099	36.08817
892.492	49.10008
892.886	7.01655
893.279	13.03204
893.672	28.06951
894.065	49.11829
894.458	31.07449
894.851	58.13526
895.244	26.06424
895.637	10.0234
896.029	64.15107
896.422	15.03497
896.814	6.01442
897.206	-15.03526
897.599	61.14452
897.991	38.08911
898.383	65.14725
898.775	76.1654
899.167	25.05712
899.559	-1.00244
899.951	-2.00452
900.342	0
900.734	57.13952
901.125	13.03289
901.517	4.00954
901.908	73.16437
902.299	7.01665
902.69	75.1706
903.082	47.10937
903.473	37.08678
903.863	-26.06441
904.254	38.08586
904.645	57.13421
905.036	65.15412
905.426	18.03902
905.817	-28.06653
906.207	15.03411
906.597	37.08413
906.987	24.05971
907.378	26.06401
907.768	33.08486
908.158	30.07035
908.547	45.11397
908.937	-8.01972
909.327	36.08396
909.717	3.00727
910.106	39.08961
910.495	19.04531
910.885	40.09803
911.274	22.05308
911.663	34.08249
912.052	-3.00709
912.441	44.10884
912.83	15.03292
913.219	33.08322
913.608	47.11118
913.997	27.06614
914.385	34.07817
914.774	4.00941
915.162	25.05818
915.55	31.07163
915.939	51.12502
916.327	38.0906
916.715	49.12238
917.103	14.0327
917.491	44.10431
917.878	40.09438
918.266	7.01756
918.654	31.07726
919.041	29.07439
919.429	27.06134
919.816	5.01228
920.203	15.03555
920.591	30.07197
920.978	47.11058
921.365	8.0205
921.752	-48.11
922.139	14.02922
922.525	26.06049
922.912	8.0188
923.299	33.07927
923.685	-13.03276
924.072	-14.03046
924.458	20.04816
924.844	28.06694
925.231	-6.01339
925.617	36.0895
926.003	-26.06467
926.389	15.03663
926.774	32.07799
927.16	1.0024
927.546	46.11524
927.931	6.01441
928.317	-17.03767
928.702	45.10153
929.088	39.09083
929.473	25.0621
929.858	38.09022
930.243	38.08876
930.628	47.11118
931.013	28.06712
931.398	16.03476
931.783	10.02529
932.167	25.05969
932.552	14.03384
932.937	14.03339
933.321	19.04658
933.705	-42.10236
934.09	-9.02163
934.474	0
934.858	23.05796
935.242	18.04004
935.626	48.11912
936.009	22.05745
936.393	44.10959
936.777	63.15615
937.16	51.12912
937.544	27.0601
937.927	-21.05232
938.311	5.01172
938.694	25.06433
939.077	9.02083
939.46	13.03012
939.843	-10.01957
940.226	-22.05476
940.609	47.1047
940.991	21.05138
941.374	31.07356
941.757	13.03088
942.139	29.0628
942.522	17.03845
942.904	39.09015
943.286	30.07333
943.668	36.0912
944.05	31.0737
944.432	-13.03105
944.814	42.09837
945.196	7.01667
945.578	38.08848
945.959	-76.17291
946.341	35.08096
946.722	15.03372
947.104	34.0782
947.485	27.06044
947.866	24.05902
948.247	48.11786
948.628	22.05066
949.009	-7.01745
949.39	24.05727
949.771	-3.00657
950.152	-15.03585
950.532	73.17715
950.913	19.04413
951.293	18.04775
951.674	5.0117
952.054	72.17436
952.434	18.0433
952.814	-48.11013
953.194	-2.00502
953.574	30.07082
953.954	-19.04331
954.334	42.10183
954.714	-3.00713
955.093	51.12027
955.473	40.09756
955.853	59.14709
956.232	-3.00801
956.611	26.05915
956.99	4.0098
957.37	-10.02462
957.749	8.01811
958.128	29.07106
958.506	-14.0355
958.885	-3.00732
959.264	44.10519
959.643	36.07911
960.021	54.12954
960.4	26.05646
960.778	-10.02352
961.156	-28.06817
961.535	9.02
961.913	74.16597
962.291	56.14024
962.669	29.0714
963.047	29.07198
963.424	41.10244
963.802	23.05474
964.18	21.05044
964.557	-15.03326
964.935	99.22199
965.312	21.05336
965.69	-2.00481
966.067	19.04407
966.444	2.00468
966.821	58.14404
967.198	-2.00464
967.575	28.06581
967.952	74.16542
968.329	27.06377
968.705	61.12515
969.082	57.14282
969.458	42.0983
969.835	28.06563
970.211	71.17694
970.587	26.06263
970.963	-4.00988
971.339	25.06359
971.715	47.11311
972.091	45.10633
972.467	1.00238
972.843	50.12081
973.219	45.1024
973.594	17.04316
973.97	-4.00895
974.345	46.10614
974.721	17.03904
975.096	62.14487
975.471	16.0364
975.846	-8.01847
976.221	-10.02475
976.596	92.21362
976.971	49.11712
977.346	14.03109
977.72	-30.07421
978.095	0
978.469	41.09337
978.844	58.13893
979.218	71.16529
979.593	36.08237
979.967	-9.02083
980.341	3.0067
980.715	43.10462
981.089	27.06515
981.463	31.06828
981.837	44.10471
982.21	16.03476
982.584	27.06313
982.957	33.08002
983.331	4.00898
983.704	49.11721
984.078	14.03328
984.451	11.02598
984.824	25.05914
985.197	-14.03244
985.57	-4.00957
985.943	5.01171
986.316	34.07889
986.688	78.17875
987.061	81.18118
987.434	42.10719
987.806	-10.02314
988.179	-25.05703
988.551	36.08758
988.923	-2.00474
989.295	31.07418
989.667	12.02815
990.039	53.12804
990.411	-33.07254
990.783	-17.03732
991.155	18.04194
991.527	43.09947
991.898	40.09647
992.27	54.12959
992.641	4.00965
993.012	-14.031
993.384	2.00458
993.755	29.07188
994.126	53.12329
994.497	-42.10072
994.868	46.0996
995.239	29.06738
995.61	15.03657
995.98	40.09314
996.351	26.06261
996.722	39.08781
997.092	28.06414
997.462	27.06146
997.833	0
998.203	-8.01848
998.573	34.08194
998.943	15.03409
999.313	9.02097
999.683	38.08792
1000.053	-45.09825
1000.423	38.08792
1000.792	-12.02991
1001.162	-6.01421
1001.531	13.03104
1001.901	27.06451
1002.27	1.0021
1002.639	14.03434
1003.009	-3.00688
1003.378	34.08407
1003.747	23.05185
1004.116	-16.03705
1004.485	60.13684
1004.853	18.04341
1005.222	-41.09901
1005.591	15.03416
1005.959	39.08446
1006.328	14.03042
1006.696	-34.07945
1007.064	-38.09234
1007.433	25.05971
1007.801	0
1008.169	-37.09016
1008.537	36.07598
1008.905	-5.01135
1009.273	-7.01662
1009.64	28.06517
1010.008	9.02064
1010.375	25.05723
1010.743	9.01931
1011.11	55.12708
1011.478	36.08639
1011.845	58.12923
1012.212	65.14173
1012.579	64.15055
1012.946	27.06092
1013.313	35.07906
1013.68	32.06831
1014.047	11.02526
1014.414	-24.05489
1014.78	50.11981
1015.147	39.08921
1015.513	21.04871
1015.88	39.09525
1016.246	1.00235
1016.612	56.12084
1016.978	51.12064
1017.344	54.12821
1017.71	61.141
1018.076	44.09803
1018.442	48.11925
1018.808	64.15482
1019.174	-37.08996
1019.539	-17.03608
1019.905	24.05474
1020.27	-19.04545
1020.636	31.07026
1021.001	38.08757
1021.366	10.02329
1021.731	96.23911
1022.096	-14.03471
1022.461	45.10223
1022.826	67.15314
1023.191	3.00765
1023.556	41.09133
1023.92	47.10959
1024.285	39.09022
1024.649	24.05621
1025.014	24.05652
1025.378	38.09261
1025.742	3.00714
1026.107	30.06462
1026.471	49.10834
1026.835	18.04305
1027.199	23.05342
1027.562	8.01768
1027.926	15.03511
1028.29	13.03186
1028.654	60.13063
1029.017	90.21104
1029.381	24.05535
1029.744	18.04443
1030.107	32.07257
1030.471	23.05329
1030.834	20.04282
1031.197	39.0899
1031.56	24.05403
1031.923	28.0701
1032.286	80.17817
1032.648	10.02268
1033.011	37.08256
1033.374	31.06894
1033.736	17.04339
1034.099	10.02355
1034.461	27.06641
1034.823	22.05312
1035.185	2.00483
1035.548	55.12874
1035.91	28.06424
1036.272	90.19478
1036.634	20.04708
1036.995	-21.04738
1037.357	12.02834
1037.719	59.1374
1038.08	79.17991
1038.442	-3.00686
1038.803	-20.04572
1039.165	-10.02436
1039.526	45.10426
1039.887	36.08247
1040.248	79.18912
1040.609	-34.08082
1040.97	10.0235
1041.331	27.06646
1041.692	37.0844
1042.053	29.0627
1042.413	25.05544
1042.774	56.13055
1043.134	34.07641
1043.495	38.09182
1043.855	62.14539
1044.215	-17.0407
1044.576	11.02556
1044.936	75.1618
1045.296	27.06486
1045.656	-9.02113
1046.016	46.10554
1046.375	-18.04234
1046.735	50.11025
1047.095	16.03602
1047.454	25.04976
1047.814	46.10597
1048.173	23.05191
1048.533	-23.05098
1048.892	3.00699
1049.251	8.01925
1049.61	-10.0239
1049.969	25.05634
1050.328	33.06813
1050.687	1.00233
1051.046	-6.01407
1051.405	12.02851
1051.763	61.13515
1052.122	-5.01206
1052.48	47.11084
1052.839	13.02998
1053.197	26.05863
1053.555	20.0426
1053.914	35.08186
1054.272	6.01366
1054.63	10.02367
1054.988	11.02545
1055.345	2.00406
1055.703	24.05564
1056.061	20.05038
1056.419	78.19674
1056.776	-15.03458
1057.134	-33.07263
1057.491	32.07717
1057.848	37.0879
1058.206	4.0089
1058.563	35.07327
1058.92	-6.01326
1059.277	42.09937
1059.634	20.04445
1059.991	25.05769
1060.348	6.0131
1060.704	75.17439
1061.061	-36.07941
1061.418	-12.02824
1061.774	-9.02154
1062.131	57.14754
1062.487	-17.03818
1062.843	-3.00724
1063.199	31.07424
1063.555	45.10062
1063.911	-24.05856
1064.267	50.09676
1064.623	12.02847
1064.979	-12.02638
1065.335	40.09056
1065.691	-44.10095
1066.046	74.15309
1066.402	-8.01738
1066.757	51.12362
1067.112	18.04232
1067.468	25.05756
1067.823	-26.05927
1068.178	44.10108
1068.533	25.05822
1068.888	47.10665
1069.243	60.14163
1069.598	-9.021
1069.952	57.12508
1070.307	12.02885
1070.662	7.01625
1071.016	-22.04843
1071.371	6.0132
1071.725	37.08385
1072.079	23.05331
1072.434	25.05868
1072.788	-45.10273
1073.142	-1.00238
1073.496	-21.04812
1073.85	14.03109
1074.203	60.13915
1074.557	35.09119
1074.911	20.04547
1075.265	36.07991
1075.618	35.08212
1075.971	13.0297
1076.325	81.19833
1076.678	19.04171
1077.031	-59.12701
1077.385	30.06268
1077.738	53.11336
1078.091	16.03528
1078.444	23.05045
1078.796	14.03337
1079.149	31.07435
1079.502	33.07534
1079.855	15.03366
1080.207	60.14064
1080.56	25.06289
1080.912	28.06532
1081.264	57.1317
1081.617	34.07992
1081.969	8.01967
1082.321	12.02813
1082.673	21.04678
1083.025	15.03397
1083.377	266.56928
1083.728	8.01783
1084.08	47.1117
1084.432	5.01158
1084.783	-34.07557
1085.135	-8.01955
1085.486	7.01551
1085.838	45.1067
1086.189	15.03543
1086.54	13.02971
1086.891	39.09691
1087.242	68.16101
1087.593	1.00231
1087.944	52.11317
1088.295	47.10135
1088.646	79.18608
1088.996	-9.02113
1089.347	-10.0236
1089.698	24.05518
1090.048	2.00501
1090.398	75.16354
1090.749	4.00913
1091.099	33.08104
1091.449	51.12237
1091.799	67.16027
1092.149	-7.0168
1092.499	19.04465
1092.849	-4.00988
1093.199	24.05738
1093.548	67.15536
1093.898	15.03606
1094.248	-9.02222
1094.597	3.00753
1094.947	47.12132
1095.296	20.04791
1095.645	25.06253
1095.994	60.13744
1096.343	36.08754
1096.692	67.17222
1097.041	53.141
1097.39	-11.02659
1097.739	2.00504
1098.088	28.07206
1098.437	-3.00779
1098.785	3.0078
1099.134	-14.03559
1099.482	22.05905
1099.83	6.01532
1100.179	50.12828
1100.527	-15.03838
1100.875	22.05686
1101.223	58.14953
1101.571	-40.10813
1101.919	29.07512
1102.267	9.02497
1102.615	5.01606
1102.962	0
1103.31	13.0417
1103.658	-8.02567
