Data from N1R0 150C sample 8_Subt2__2__14-22-39-580.txt Node

Date: Tue Sep 16 14:22:39 PDT 2025
User: uwsun
Spectrometer: HDX01956
Trigger mode: 0
Integration Time (sec): 5.000000E-1
Scans to average: 1
Nonlinearity correction enabled: true
Boxcar width: 0
Storing dark spectrum: false
XAxis mode: Wavelengths
Number of Pixels in Spectrum: 2068
>>>>>Begin Spectral Data<<<<<
194.03	-8.02325
194.578	3.00975
195.127	6.01922
195.676	8.02572
196.225	0
196.773	-23.06451
197.321	-23.06463
197.87	43.11184
198.418	17.04473
198.966	53.14166
199.513	33.08554
200.061	6.01561
200.609	21.05648
201.156	13.02927
201.704	-3.00775
202.251	38.10269
202.798	19.05026
203.345	31.0784
203.892	-18.04681
204.438	18.04374
204.985	9.02196
205.532	10.02687
206.078	-1.00251
206.624	50.12774
207.17	38.09112
207.716	60.14966
208.262	16.03276
208.808	53.13552
209.354	28.07083
209.899	36.09233
210.445	43.10964
210.99	33.08233
211.535	65.15584
212.08	-19.04557
212.625	-20.05142
213.17	53.13728
213.715	32.07495
214.259	16.03835
214.804	-3.00755
215.348	45.10629
215.892	47.11632
216.436	-3.00705
216.98	3.00678
217.524	39.09521
218.068	47.12064
218.612	64.16506
219.155	63.15128
219.698	9.02195
220.242	4.0101
220.785	36.0863
221.328	70.1748
221.871	77.19813
222.414	40.10043
222.956	-13.0319
223.499	0
224.041	-14.03285
224.583	-49.10716
225.126	25.05597
225.668	-7.01741
226.21	51.13073
226.751	55.1244
227.293	1.00232
227.835	45.11182
228.376	-4.00931
228.918	22.05565
229.459	50.12625
230	82.19843
230.541	8.0188
231.082	35.08656
231.622	-27.06281
232.163	-16.03952
232.704	46.11665
233.244	19.04795
233.784	19.04682
234.324	73.16612
234.864	28.06437
235.404	-21.05069
235.944	22.0527
236.484	36.0911
237.023	4.00962
237.563	58.13649
238.102	7.0169
238.641	27.06882
239.18	-3.00721
239.719	10.02549
240.258	47.10708
240.797	24.05834
241.335	-4.00993
241.874	63.1247
242.412	42.10355
242.95	37.09083
243.488	-34.07864
244.026	56.13198
244.564	31.06515
245.102	54.12415
245.64	5.01217
246.177	3.00682
246.715	26.06353
247.252	2.00464
247.789	27.05126
248.326	30.07353
248.863	30.06734
249.4	52.11945
249.936	52.11086
250.473	68.16251
251.009	-28.06597
251.546	55.1247
252.082	-16.03553
252.618	54.12251
253.154	61.14842
253.69	16.03664
254.226	29.07064
254.761	55.1251
255.297	23.05126
255.832	12.02914
256.367	10.02399
256.903	49.11073
257.438	28.06676
257.972	42.09505
258.507	10.02343
259.042	34.07538
259.576	62.13923
260.111	3.00704
260.645	44.09665
261.179	41.09759
261.713	42.09567
262.247	26.06044
262.781	90.19137
263.315	30.07388
263.849	44.11162
264.382	10.02347
264.915	90.21442
265.449	-21.05258
265.982	35.0809
266.515	58.14389
267.048	-17.03718
267.58	36.07905
268.113	-7.01557
268.646	2.00499
269.178	15.03426
269.71	37.08345
270.243	56.13162
270.775	64.16586
271.307	-43.10529
271.838	24.05768
272.37	-17.04267
272.902	36.08293
273.433	94.21004
273.965	-4.00994
274.496	36.09048
275.027	40.10104
275.558	54.13352
276.089	55.1391
276.62	-2.00514
277.15	50.1244
277.681	-3.00663
278.211	-7.01746
278.741	44.0995
279.272	61.1415
279.802	27.06824
280.332	28.06737
280.861	29.07051
281.391	52.11998
281.921	-24.05891
282.45	39.09804
282.98	23.06089
283.509	86.19756
284.038	41.09552
284.567	63.14863
285.096	49.1206
285.625	-7.01617
286.153	72.17404
286.682	-5.0118
287.21	-34.08333
287.739	30.07219
288.267	38.0941
288.795	22.05836
289.323	30.07186
289.851	69.16436
290.378	-16.03673
290.906	39.09705
291.433	18.04573
291.961	41.09548
292.488	31.07815
293.015	24.05788
293.542	88.22789
294.069	59.14815
294.596	40.09923
295.122	40.09767
295.649	7.01572
296.175	28.06862
296.702	72.17809
297.228	31.07596
297.754	35.08039
298.28	37.08692
298.806	10.02465
299.332	31.071
299.857	57.13175
300.383	10.02566
300.908	39.09762
301.433	31.07748
301.958	31.07257
302.483	9.02279
303.008	60.15129
303.533	-6.01582
304.058	-17.04079
304.582	28.06758
305.107	-1.00266
305.631	44.10168
306.155	58.13734
306.679	33.07927
307.203	42.09945
307.727	37.08942
308.251	39.09793
308.775	65.16052
309.298	42.10316
309.822	16.04102
310.345	41.09994
310.868	49.12029
311.391	61.15235
311.914	28.07153
312.437	54.12578
312.96	34.08184
313.482	-42.10221
314.005	4.01022
314.527	-7.01862
315.049	61.15653
315.571	114.25883
316.093	59.14831
316.615	25.06131
317.137	-2.00451
317.659	54.13298
318.18	5.01222
318.702	37.08868
319.223	9.01897
319.744	71.16268
320.265	14.03497
320.786	23.05877
321.307	12.03036
321.828	-4.00932
322.348	8.01936
322.869	72.1743
323.389	319.60509
323.909	11.02586
324.43	26.06358
324.95	43.10073
325.47	48.12129
325.989	49.11869
326.509	34.07826
327.029	49.11457
327.548	53.1228
328.067	31.07703
328.587	61.15554
329.106	0
329.625	57.15048
330.144	31.07401
330.662	59.14146
331.181	104.24835
331.7	8.01915
332.218	41.09152
332.736	41.09834
333.255	58.13951
333.773	19.04611
334.291	85.21543
334.808	29.06732
335.326	11.02553
335.844	60.14426
336.361	78.20367
336.879	54.13008
337.396	97.23945
337.913	39.09258
338.43	21.04889
338.947	38.0931
339.464	45.10003
339.981	26.06337
340.497	44.11055
341.014	31.07748
341.53	1.00234
342.046	103.26041
342.562	44.11202
343.078	67.16106
343.594	46.11203
344.11	103.25014
344.626	15.03888
345.141	60.1407
345.657	70.16215
346.172	77.18924
346.687	34.08032
347.202	91.21201
347.717	61.1487
348.232	43.10953
348.747	102.23956
349.261	46.10423
349.776	78.18918
350.29	70.17852
350.805	11.02797
351.319	45.10744
351.833	42.09957
352.347	51.12353
352.861	81.19398
353.374	30.07038
353.888	89.22123
354.401	35.08212
354.915	33.07707
355.428	98.24754
355.941	48.1148
356.454	47.10769
356.967	-2.00483
357.48	37.08644
357.993	84.20991
358.505	38.09472
359.018	97.24112
359.53	73.18173
360.042	57.13133
360.554	89.22147
361.066	70.17359
361.578	103.23229
362.09	83.20119
362.602	80.18282
363.113	121.28855
363.625	61.14229
364.136	93.2088
364.647	81.19598
365.158	39.09343
365.669	18.04431
366.18	73.17549
366.691	70.15751
367.201	88.21455
367.712	103.24016
368.222	63.14886
368.733	65.14551
369.243	88.20134
369.753	48.11374
370.263	108.26439
370.773	35.08735
371.282	100.24263
371.792	95.22438
372.301	21.05218
372.811	74.19671
373.32	59.13181
373.829	50.12086
374.338	60.13717
374.847	48.11392
375.356	47.11367
375.865	117.25598
376.373	121.27924
376.882	57.14698
377.39	100.24463
377.898	81.20223
378.407	96.22229
378.915	159.35125
379.423	71.16873
379.93	162.37824
380.438	61.14959
380.946	95.22481
381.453	92.22414
381.96	86.20882
382.468	100.2387
382.975	146.35888
383.482	127.28806
383.989	161.41253
384.495	167.3906
385.002	111.23792
385.509	157.3754
386.015	180.37089
386.521	171.38958
387.028	187.42362
387.534	153.32964
388.04	203.48409
388.546	146.32435
389.051	217.47335
389.557	172.39653
390.063	231.51349
390.568	258.60495
391.073	208.4567
391.578	233.55668
392.084	307.67504
392.589	305.63847
393.093	326.74851
393.598	342.75247
394.103	330.75253
394.607	379.86582
395.112	367.85795
395.616	479.08069
396.12	444.95386
396.624	483.0613
397.128	528.17711
397.632	575.24367
398.136	647.35008
398.639	683.44735
399.143	737.63108
399.646	853.75685
400.15	918.82697
400.653	1041.97388
401.156	1168.12121
401.659	1393.61346
402.162	1642.72895
402.664	2031.7584
403.167	3216.60997
403.67	6142.74008
404.172	19324.2138
404.674	58421.009
405.176	63007.47011
405.678	63977.72923
406.18	64011.81569
406.682	63863.44694
407.184	63926.60148
407.686	24676.71397
408.187	9671.91194
408.688	5712.26199
409.19	3919.03489
409.691	3217.6099
410.192	2634.48045
410.693	2375.91824
411.194	2058.97384
411.694	1950.09197
412.195	1751.11681
412.696	1654.78187
413.196	1511.29702
413.696	1455.62801
414.196	1491.41898
414.696	1417.6845
415.196	1310.37767
415.696	1180.12041
416.196	1033.01327
416.695	807.66574
417.195	644.40408
417.694	704.31094
418.194	638.2202
418.693	586.22614
419.192	543.18136
419.691	525.13005
420.19	480.07744
420.688	530.20056
421.187	461.88258
421.685	450.98172
422.184	444.98298
422.682	356.74011
423.18	328.72288
423.678	295.65029
424.176	259.57405
424.674	274.5902
425.172	217.49837
425.669	197.47284
426.167	246.55466
426.664	214.47521
427.161	192.4338
427.659	183.4364
428.156	180.37906
428.652	157.39082
429.149	141.33959
429.646	141.31318
430.143	142.33792
430.639	160.37533
431.135	106.2645
431.632	97.22269
432.128	118.28275
432.624	119.30524
433.12	96.22
433.616	117.25706
434.111	64.15324
434.607	113.26999
435.103	76.16104
435.598	107.2238
436.093	67.1572
436.588	90.20351
437.083	93.20923
437.578	106.24545
438.073	73.18324
438.568	83.20459
439.062	93.20003
439.557	40.09453
440.051	5.01146
440.546	35.08055
441.04	88.21135
441.534	75.18887
442.028	48.11646
442.522	47.11363
443.015	-2.00438
443.509	44.10772
444.002	68.16666
444.496	17.03751
444.989	49.11949
445.482	37.09218
445.975	70.16241
446.468	34.07462
446.961	74.16153
447.454	-43.09904
447.947	29.06987
448.439	80.19592
448.931	74.17026
449.424	78.19794
449.916	71.1732
450.408	9.02089
450.9	10.02455
451.392	68.17238
451.884	22.05112
452.375	-1.0025
452.867	11.02507
453.358	43.09919
453.849	29.0628
454.341	37.08426
454.832	25.0547
455.323	75.1863
455.814	8.01854
456.304	25.05838
456.795	65.14869
457.285	22.049
457.776	58.13254
458.266	-6.01443
458.756	-8.01915
459.247	48.1151
459.737	64.15476
460.226	80.18208
460.716	33.0793
461.206	18.04339
461.695	12.02987
462.185	58.13776
462.674	53.12148
463.163	91.2033
463.653	77.16398
464.142	59.14286
464.63	28.06814
465.119	76.17619
465.608	89.20735
466.096	22.04822
466.585	6.01385
467.073	20.04749
467.561	14.03382
468.05	14.03251
468.538	23.05642
469.026	0
469.513	2.00428
470.001	19.04399
470.489	65.15412
470.976	49.11466
471.463	38.09465
471.951	15.03744
472.438	45.10579
472.925	17.04029
473.412	2.00489
473.899	29.06685
474.385	41.10039
474.872	13.03054
475.359	24.05921
475.845	21.04394
476.331	29.06219
476.817	20.04887
477.303	57.13233
477.789	-9.02165
478.275	-11.02754
478.761	31.07379
479.247	38.08505
479.732	14.03509
480.218	49.12801
480.703	36.08872
481.188	-7.01537
481.673	68.15583
482.158	38.08256
482.643	32.08178
483.128	61.14201
483.612	88.20813
484.097	3.00729
484.581	28.06507
485.066	56.13684
485.55	19.04238
486.034	3.00658
486.518	80.19038
487.002	-1.00245
487.486	-11.02695
487.969	-21.05161
488.453	1.0025
488.936	34.07685
489.42	65.14353
489.903	5.01251
490.386	-67.14249
490.869	32.07053
491.352	-13.0316
491.835	3.00622
492.318	-5.01137
492.8	32.06674
493.283	43.1096
493.765	-22.05456
494.247	-12.02826
494.73	25.05569
495.212	-11.02634
495.694	34.08038
496.175	28.06753
496.657	57.13468
497.139	-15.02633
497.62	36.08676
498.102	-10.02512
498.583	-56.13989
499.064	44.09832
499.545	15.03444
500.026	9.02055
500.507	-9.02096
500.988	38.09503
501.469	-26.06554
501.949	7.01739
502.43	25.06051
502.91	25.05349
503.39	-42.10564
503.87	32.07592
504.35	6.01415
504.83	-11.02439
505.31	-15.03655
505.79	-17.04067
506.269	-38.08872
506.749	-13.03008
507.228	-29.06932
507.707	62.1382
508.187	20.04805
508.666	21.05226
509.145	-12.0284
509.623	19.04475
510.102	25.06071
510.581	64.15394
511.059	4.01014
511.538	-26.06777
512.016	16.03859
512.494	-7.01699
512.972	-24.05827
513.45	-68.16238
513.928	-13.03197
514.406	-10.02479
514.884	-38.09936
515.361	-30.0729
515.839	-6.01399
516.316	48.11672
516.793	-13.03315
517.27	-5.01215
517.747	2.00517
518.224	-24.05615
518.701	-69.1565
519.178	-7.01769
519.654	13.03101
520.131	-25.06276
520.607	-33.08182
521.083	-36.08306
521.56	-46.11048
522.036	-42.09338
522.512	-12.02997
522.987	24.05814
523.463	-46.11111
523.939	105.25805
524.414	11.0254
524.89	-10.02415
525.365	-7.01602
525.84	-25.06099
526.315	-14.03434
526.79	23.05225
527.265	1.00234
527.74	-12.02946
528.215	-24.05683
528.689	-30.06698
529.164	-52.11418
529.638	-25.06415
530.112	-32.0765
530.587	11.0238
531.061	-16.03923
531.534	-25.06112
532.008	34.08299
532.482	1.00232
532.956	-88.22978
533.429	29.0713
533.903	21.04639
534.376	-20.04495
534.849	-2.00465
535.322	-14.03347
535.795	-29.07109
536.268	15.03658
536.741	-15.03607
537.213	-17.03965
537.686	-20.0496
538.158	21.04815
538.631	15.03659
539.103	-31.07134
539.575	-16.03353
540.047	-45.10033
540.519	20.04811
540.991	-15.03704
541.463	-41.10039
541.934	-29.06671
542.406	-4.00972
542.877	-8.01831
543.348	20.04864
543.82	-26.06417
544.291	-2.00473
544.762	20.04798
545.233	-9.02307
545.703	-24.0544
546.174	-47.11135
546.645	-27.06641
547.115	18.0438
547.585	-41.09627
548.056	24.05945
548.526	10.024
548.996	-42.1024
549.466	11.02698
549.935	-10.02424
550.405	-61.1378
550.875	-53.12876
551.344	-59.14398
551.814	4.00929
552.283	42.09234
552.752	-47.11273
553.221	-33.07458
553.69	31.07074
554.159	-13.03283
554.628	22.05046
555.096	-29.07499
555.565	-25.05645
556.033	2.00483
556.502	-53.13079
556.97	15.03382
557.438	-37.08868
557.906	-50.12072
558.374	-48.11401
558.842	-16.03895
559.31	23.05206
559.777	2.00495
560.245	-46.10799
560.712	-35.08186
561.18	-62.14123
561.647	-74.16917
562.114	-41.09612
562.581	-27.06756
563.048	-42.09841
563.514	16.0405
563.981	-18.04198
564.448	9.02061
564.914	-16.03778
565.381	-28.0653
565.847	-39.09276
566.313	-56.13311
566.779	-47.10838
567.245	-64.15207
567.711	-38.09275
568.176	-18.04115
568.642	-30.07675
569.108	-24.05993
569.573	-30.07076
570.038	-62.13367
570.504	-18.04143
570.969	-76.19293
571.434	-36.0818
571.899	-57.13832
572.363	-6.01398
572.828	-29.06802
573.293	-49.11501
573.757	-38.09012
574.222	7.01591
574.686	-60.14169
575.15	-14.03422
575.614	38.09033
576.078	-42.10072
576.542	-46.10736
577.006	-35.08087
577.469	-32.08005
577.933	-31.07217
578.396	-79.19258
578.86	-42.10099
579.323	-34.08351
579.786	-29.06439
580.249	25.05946
580.712	-55.13667
581.175	-64.16137
581.637	-51.11924
582.1	-8.01775
582.563	-43.0938
583.025	-52.12928
583.487	-26.05487
583.95	-48.10571
584.412	-20.04297
584.874	-28.06946
585.336	-44.10664
585.797	-29.06455
586.259	-66.15851
586.721	-53.12731
587.182	-73.17309
587.643	-30.06961
588.105	-78.18946
588.566	-76.16406
589.027	-14.03479
589.488	-42.09864
589.949	6.01473
590.41	-19.03859
590.87	-5.01163
591.331	9.01997
591.791	-19.04481
592.252	-57.13619
592.712	-22.0536
593.172	-13.03011
593.632	42.09412
594.092	-67.15376
594.552	32.07006
595.011	-56.13157
595.471	12.02757
595.931	9.0206
596.39	-23.05617
596.849	-27.06409
597.308	-69.15173
597.768	-10.0261
598.227	-17.04149
598.685	-15.0348
599.144	21.04998
599.603	-65.15596
600.062	-71.15468
600.52	25.05707
600.978	-28.06737
601.437	4.00922
601.895	10.02176
602.353	-36.08094
602.811	7.01601
603.269	-21.05077
603.727	-40.09793
604.184	18.04148
604.642	0
605.099	2.00473
605.557	-5.01231
606.014	-35.07722
606.471	-7.01777
606.928	15.03377
607.385	19.04793
607.842	-41.09612
608.299	6.01419
608.755	26.06339
609.212	38.0854
609.668	21.04788
610.125	69.166
610.581	34.08016
611.037	-47.10782
611.493	26.06111
611.949	49.11962
612.405	69.14093
612.861	19.04407
613.316	52.12474
613.772	19.04392
614.227	95.22681
614.683	75.15881
615.138	22.05197
615.593	46.10707
616.048	73.16665
616.503	41.09976
616.958	77.19189
617.412	70.16581
617.867	81.18066
618.321	64.13223
618.776	84.18421
619.23	73.17041
619.684	69.15364
620.138	84.19111
620.592	77.18581
621.046	107.25027
621.5	37.08925
621.954	46.10194
622.407	109.23838
622.861	66.15965
623.314	66.149
623.768	87.20405
624.221	75.1472
624.674	33.07652
625.127	57.13233
625.58	27.06092
626.033	65.14173
626.485	53.12659
626.938	96.22643
627.39	96.22238
627.843	79.181
628.295	84.19227
628.747	74.17549
629.199	92.20761
629.651	43.09868
630.103	62.1418
630.555	35.07402
631.006	20.04672
631.458	25.05902
631.909	-20.04539
632.361	27.06248
632.812	77.17706
633.263	69.14911
633.714	14.02986
634.165	32.0768
634.616	30.07104
635.067	49.10779
635.518	30.07123
635.968	57.11176
636.419	76.16498
636.869	55.1298
637.319	52.12041
637.769	24.05418
638.219	62.14556
638.669	3.00718
639.119	23.05514
639.569	19.04571
640.019	15.03482
640.468	53.11855
640.918	18.04282
641.367	23.05168
641.816	56.1241
642.265	50.11642
642.714	22.05062
643.163	79.18122
643.612	29.07117
644.061	57.12165
644.51	45.1031
644.958	44.09718
645.406	65.15447
645.855	33.08011
646.303	77.17656
646.751	61.14061
647.199	32.07266
647.647	36.08366
648.095	31.0708
648.543	49.09935
648.99	44.10555
649.438	12.02789
649.885	65.1611
650.333	45.08748
650.78	31.07498
651.227	65.15815
651.674	37.0845
652.121	102.24711
652.568	61.1487
653.015	-19.04742
653.461	44.10443
653.908	18.04148
654.354	67.15849
654.801	29.0681
655.247	29.06294
655.693	55.14226
656.139	37.0882
656.585	48.11427
657.031	3.0071
657.477	65.14137
657.922	8.01828
658.368	38.0932
658.813	26.0592
659.259	75.18036
659.704	98.22953
660.149	-19.04427
660.594	108.25256
661.039	62.14054
661.484	90.21071
661.929	96.2215
662.373	-4.01009
662.818	-5.01243
663.262	107.25497
663.707	50.12661
664.151	62.15015
664.595	46.1109
665.039	25.06203
665.483	61.15411
665.927	41.09597
666.371	29.06828
666.814	56.13229
667.258	71.16977
667.701	88.18548
668.145	69.17027
668.588	96.23476
669.031	55.12869
669.474	15.03606
669.917	44.09616
670.36	84.20732
670.803	83.19839
671.245	22.04513
671.688	100.2398
672.13	66.14827
672.573	38.09561
673.015	55.13187
673.457	63.1362
673.899	77.18433
674.341	30.07216
674.783	47.11213
675.225	51.12483
675.666	86.20803
676.108	67.14367
676.549	-3.00702
676.991	51.11139
677.432	59.1164
677.873	21.04796
678.314	60.14169
678.755	130.31399
679.196	36.08207
679.637	40.0953
680.078	74.17101
680.518	39.08918
680.959	30.07123
681.399	65.15933
681.839	76.18232
682.28	88.21575
682.72	58.13158
683.16	79.19473
683.6	82.18414
684.039	35.07207
684.479	49.1202
684.919	78.1814
685.358	14.03481
685.798	24.06226
686.237	56.13239
686.676	30.06764
687.115	76.17689
687.554	128.29956
687.993	49.10766
688.432	48.10876
688.871	91.20548
689.309	79.18702
689.748	60.12363
690.186	18.04201
690.625	70.16254
691.063	76.17891
691.501	83.20233
691.939	125.308
692.377	39.09393
692.815	151.3594
693.253	66.15519
693.69	60.12997
694.128	71.17023
694.565	43.10109
695.003	100.25106
695.44	100.23257
695.877	74.17183
696.314	85.17589
696.751	74.16529
697.188	79.1805
697.625	44.09759
698.061	63.14903
698.498	42.09841
698.934	92.2159
699.371	76.17626
699.807	111.25626
700.243	79.18767
700.679	37.08184
701.115	72.16546
701.551	66.15119
701.987	47.10157
702.422	103.24091
702.858	90.21088
703.294	120.26858
703.729	88.21014
704.164	80.18774
704.599	67.14758
705.035	77.16996
705.47	90.21442
705.904	90.20443
706.339	112.25099
706.774	109.24944
707.209	104.2369
707.643	77.18116
708.078	119.28226
708.512	87.21421
708.946	79.18376
709.38	73.17068
709.814	80.17773
710.248	109.26063
710.682	135.31539
711.116	133.31534
711.549	44.11102
711.983	48.10956
712.416	109.25275
712.85	79.19207
713.283	95.2195
713.716	82.19933
714.149	18.04138
714.582	150.32589
715.015	72.17345
715.448	97.23918
715.881	108.22564
716.313	98.22368
716.746	133.3057
717.178	98.23043
717.61	111.27562
718.043	106.25535
718.475	131.3088
718.907	97.23663
719.339	109.24089
719.77	142.32972
720.202	75.18426
720.634	85.20457
721.065	149.33919
721.497	74.17779
721.928	89.21273
722.359	57.13676
722.79	96.22458
723.221	78.18968
723.652	110.27229
724.083	85.18683
724.514	133.2959
724.945	82.18784
725.375	143.32342
725.806	148.35233
726.236	152.37542
726.666	129.29461
727.096	121.28734
727.526	179.44429
727.956	131.29012
728.386	149.3526
728.816	187.46024
729.246	178.4226
729.675	101.23994
730.105	144.34004
730.534	109.24673
730.964	101.24528
731.393	168.39533
731.822	159.39206
732.251	167.40814
732.68	157.349
733.109	175.41476
733.537	224.52175
733.966	196.46892
734.395	163.36204
734.823	165.34908
735.251	168.38746
735.68	173.40907
736.108	152.36602
736.536	182.40718
736.964	152.33866
737.392	188.44961
737.82	206.46771
738.247	182.41439
738.675	208.464
739.102	191.45565
739.53	235.57538
739.957	244.60018
740.384	210.48027
740.811	146.34984
741.238	191.44848
741.665	232.51711
742.092	136.30075
742.519	195.46323
742.945	252.57932
743.372	210.4978
743.798	214.52192
744.225	190.4284
744.651	181.43345
745.077	193.45971
745.503	180.41514
745.929	255.58329
746.355	219.50497
746.781	165.38864
747.207	205.46402
747.632	207.49097
748.058	244.58329
748.483	193.42225
748.908	195.4643
749.334	265.6159
749.759	293.65346
750.184	255.58024
750.609	233.54004
751.033	230.50606
751.458	259.53978
751.883	217.50654
752.307	204.45639
752.732	238.5785
753.156	202.47347
753.58	194.43474
754.005	175.4202
754.429	231.51882
754.853	229.54147
755.277	229.51496
755.7	250.58574
756.124	187.44457
756.548	181.40786
756.971	207.48016
757.394	201.48976
757.818	219.538
758.241	213.5157
758.664	204.49103
759.087	233.49596
759.51	212.49613
759.933	208.47894
760.356	216.53151
760.778	234.54396
761.201	260.58934
761.623	176.39895
762.046	194.42973
762.468	235.52997
762.89	255.58422
763.312	249.57506
763.734	199.45667
764.156	221.5175
764.578	199.42893
765	224.51661
765.421	212.5157
765.843	217.54016
766.264	163.36821
766.686	146.34757
767.107	198.4561
767.528	245.59651
767.949	173.41997
768.37	266.62054
768.791	209.47384
769.212	195.46928
769.632	171.38296
770.053	154.38663
770.473	129.29888
770.894	198.46174
771.314	165.37059
771.734	183.40511
772.154	198.48038
772.575	175.38287
772.994	152.32826
773.414	181.40836
773.834	144.34399
774.254	133.31169
774.673	174.40689
775.093	177.42128
775.512	185.43558
775.931	161.39143
776.351	175.41732
776.77	182.42643
777.189	140.3189
777.607	142.34853
778.026	170.40454
778.445	141.34473
778.864	141.34255
779.282	136.31016
779.701	140.33699
780.119	126.308
780.537	139.33173
780.955	166.40018
781.373	142.33597
781.791	175.37801
782.209	140.30066
782.627	112.28533
783.045	83.18205
783.462	178.43332
783.88	112.28048
784.297	119.28845
784.715	88.22038
785.132	106.24545
785.549	126.30238
785.966	146.35183
786.383	100.23898
786.8	166.36556
787.217	155.35413
787.633	138.33407
788.05	103.22973
788.466	122.27126
788.883	125.30981
789.299	66.15174
789.715	157.36548
790.131	115.27509
790.547	126.30111
790.963	102.24338
791.379	114.27763
791.795	47.10279
792.21	114.25337
792.626	87.19701
793.041	127.29949
793.457	76.1803
793.872	76.17074
794.287	71.16691
794.702	80.18693
795.117	97.23362
795.532	90.21984
795.947	83.18941
796.362	47.10634
796.776	76.16772
797.191	109.25685
797.605	85.19506
798.02	63.14816
798.434	91.19413
798.848	126.30169
799.262	52.12531
799.676	98.22971
800.09	99.23392
800.504	98.2271
800.918	77.16982
801.331	-5.01255
801.745	59.12996
802.158	71.16984
802.572	154.35447
802.985	33.07667
803.398	119.26991
803.811	47.1147
804.224	50.1189
804.637	77.17756
805.05	46.10219
805.462	65.15323
805.875	60.1515
806.288	61.14335
806.7	20.04845
807.112	30.06679
807.525	17.04017
807.937	47.11303
808.349	65.15608
808.761	76.181
809.173	82.19213
809.584	77.18208
809.996	43.10192
810.408	35.08906
810.819	29.06634
811.231	53.13804
811.642	63.15174
812.053	70.16511
812.464	-5.01157
812.875	47.11726
813.286	78.19583
813.697	72.15716
814.108	63.14759
814.519	97.20836
814.929	75.18378
815.34	41.09518
815.75	64.15877
816.16	24.05733
816.571	38.09554
816.981	45.10124
817.391	35.081
817.801	21.051
818.211	36.0828
818.62	80.18613
819.03	43.10164
819.44	6.01502
819.849	11.02669
820.259	5.01234
820.668	24.05764
821.077	55.13342
821.486	28.06442
821.895	37.08709
822.304	31.07974
822.713	26.05927
823.122	36.08685
823.531	28.06324
823.939	49.11591
824.348	46.10723
824.756	28.06763
825.164	41.09931
825.573	21.05127
825.981	30.07164
826.389	37.08982
826.797	123.29949
827.205	24.05378
827.612	26.06183
828.02	3.00681
828.428	10.02477
828.835	22.05684
829.243	0
829.65	52.12598
830.057	15.03514
830.464	79.18724
830.871	101.23178
831.278	46.10736
831.685	58.12338
832.092	-6.01416
832.499	84.17604
832.905	2.0049
833.312	9.01947
833.718	98.23545
834.124	31.06857
834.531	-3.00729
834.937	58.14425
835.343	-14.03264
835.749	47.10387
836.155	14.03572
836.561	57.13525
836.966	29.06831
837.372	10.02463
837.777	33.07993
838.183	81.17039
838.588	38.09192
838.993	83.1936
839.399	28.06663
839.804	-12.02861
840.209	36.08996
840.613	34.07261
841.018	8.01959
841.423	55.13637
841.828	22.05432
842.232	35.08222
842.637	65.14887
843.041	21.0526
843.445	-24.05841
843.849	19.04585
844.253	57.1296
844.657	10.02467
845.061	75.16568
845.465	12.02814
845.869	20.04491
846.272	41.09695
846.676	43.09828
847.079	42.10423
847.483	58.13882
847.886	61.14105
848.289	32.08416
848.692	-13.0319
849.095	11.02549
849.498	29.07003
849.901	28.0613
850.304	54.1238
850.707	7.01729
851.109	24.05849
851.512	35.08337
851.914	-10.0248
852.316	45.11129
852.718	86.21925
853.121	46.10875
853.523	-22.04973
853.925	-2.00515
854.326	27.06589
854.728	7.0176
855.13	28.07085
855.531	3.00698
855.933	21.04821
856.334	3.00734
856.736	72.15556
857.137	58.13062
857.538	21.05163
857.939	40.09694
858.34	23.05359
858.741	6.01522
859.142	-13.03022
859.542	12.03108
859.943	17.04093
860.343	30.07243
860.744	39.09172
861.144	52.12327
861.544	34.0801
861.945	48.1179
862.345	28.06581
862.745	-7.01708
863.145	-14.03189
863.544	19.04675
863.944	48.1089
864.344	-29.06942
864.743	46.10976
865.143	72.17959
865.542	-4.00887
865.941	60.14339
866.34	-26.05989
866.74	15.03927
867.139	53.12382
867.537	3.00735
867.936	60.13926
868.335	17.04186
868.734	19.04723
869.132	-37.0828
869.531	0
869.929	33.07278
870.327	44.10148
870.726	16.03822
871.124	-12.027
871.522	34.08345
871.92	12.0287
872.318	28.06558
872.715	4.00946
873.113	15.03517
873.511	27.06481
873.908	23.0573
874.306	49.11851
874.703	10.02402
875.1	12.02934
875.497	18.04153
875.894	38.09165
876.291	12.02861
876.688	28.0701
877.085	27.06201
877.482	18.04362
877.878	83.19368
878.275	3.00744
878.671	-7.01458
879.068	61.14105
879.464	30.06991
879.86	7.01603
880.256	12.02819
880.652	1.00247
881.048	-8.01906
881.444	-6.01364
881.84	41.10043
882.236	36.08728
882.631	63.14926
883.027	32.07433
883.422	3.00741
883.817	27.06623
884.213	13.03241
884.608	63.15185
885.003	4.00926
885.398	-2.00487
885.793	18.04356
886.188	-4.00965
886.582	15.03695
886.977	24.05451
887.371	2.00488
887.766	9.02187
888.16	37.08742
888.554	44.1039
888.949	42.1016
889.343	27.06328
889.737	28.07321
890.131	-2.00488
890.525	52.12914
890.918	40.09702
891.312	15.03429
891.706	30.07608
892.099	31.07599
892.492	60.12224
892.886	18.04247
893.279	8.01974
893.672	38.09417
894.065	94.22498
894.458	34.08166
894.851	52.12141
895.244	0
895.637	81.18693
896.029	37.0878
896.422	-16.03753
896.814	4.00961
897.206	28.06527
897.599	82.19349
897.991	40.09376
898.383	38.08656
898.775	61.13318
899.167	35.07981
899.559	41.09912
899.951	45.10074
900.342	30.07298
900.734	54.13225
901.125	29.07316
901.517	62.1463
901.908	-11.02519
902.299	34.08044
902.69	55.12561
903.082	35.08164
903.473	67.15622
903.863	0
904.254	38.08586
904.645	22.05215
905.036	26.06211
905.426	49.10553
905.817	8.01888
906.207	-61.14083
906.597	68.15364
906.987	-12.03005
907.378	40.09822
907.768	3.00775
908.158	2.00472
908.547	29.07366
908.937	-23.05686
909.327	-6.01411
909.717	-2.00485
910.106	3.00694
910.495	28.06666
910.885	23.05655
911.274	41.09856
911.663	19.04623
912.052	12.02829
912.441	-3.00748
912.83	-2.0044
913.219	7.01774
913.608	2.00477
913.997	21.0515
914.385	65.14851
914.774	24.05626
915.162	78.17961
915.55	13.03014
915.939	58.14199
916.327	-7.01683
916.715	34.08515
917.103	42.09756
917.491	31.07367
917.878	1.00238
918.266	34.08487
918.654	56.13892
919.041	61.15559
919.429	6.01369
919.816	19.04656
920.203	54.12702
920.591	38.09102
920.978	40.09424
921.365	51.12972
921.752	-43.09844
922.139	55.11376
922.525	-4.00936
922.912	46.10732
923.299	22.05296
923.685	-30.07583
924.072	17.03674
924.458	15.03616
924.844	9.02159
925.231	-17.03801
925.617	27.06724
926.003	33.08119
926.389	54.13092
926.774	18.04398
927.16	26.06221
927.546	42.1053
927.931	2.00481
928.317	16.03521
928.702	56.12606
929.088	90.20749
929.473	61.15053
929.858	20.04765
930.243	72.16705
930.628	35.08299
931.013	26.06235
931.398	53.11424
931.783	4.01013
932.167	50.1188
932.552	14.03384
932.937	38.09022
933.321	0
933.705	17.04098
934.09	33.07867
934.474	19.04303
934.858	19.04792
935.242	37.08198
935.626	27.06726
936.009	30.07823
936.393	51.12687
936.777	51.12668
937.16	41.10399
937.544	-6.01345
937.927	46.1132
938.311	47.10929
938.694	65.16609
939.077	18.04158
939.46	-4.0093
939.843	49.09453
940.226	16.03955
940.609	70.15519
940.991	26.06356
941.374	49.11587
941.757	-7.01669
942.139	22.04772
942.522	29.06543
942.904	11.02557
943.286	38.09275
943.668	70.17625
944.05	13.03101
944.432	41.09691
944.814	3.00708
945.196	-14.03348
945.578	35.08154
945.959	-6.01346
946.341	4.00931
946.722	9.02026
947.104	29.06677
947.485	50.1114
947.866	40.09807
948.247	41.1008
948.628	-24.05577
949.009	25.06196
949.39	-11.02642
949.771	-16.03515
950.152	28.06638
950.532	31.07582
950.913	-1.00233
951.293	0
951.674	39.09068
952.054	41.09987
952.434	-1.00241
952.814	34.07673
953.194	2.00502
953.574	60.14081
953.954	13.02944
954.334	74.17833
954.714	18.04262
955.093	53.12494
955.473	54.13136
955.853	27.0677
956.232	6.016
956.611	21.04783
956.99	32.07799
957.37	1.00246
957.749	-7.0159
958.128	10.02459
958.506	14.03533
958.885	18.04377
959.264	35.08382
959.643	40.08783
960.021	38.09144
960.4	35.07586
960.778	-22.05187
961.156	-5.01212
961.535	7.01556
961.913	74.16597
962.291	9.02273
962.669	30.07385
963.047	23.05715
963.424	71.17643
963.802	40.0949
964.18	34.08147
964.557	19.04183
964.935	50.11325
965.312	37.09375
965.69	39.09304
966.067	1.00233
966.444	3.00701
966.821	52.12928
967.198	19.04387
967.575	45.10542
967.952	63.14115
968.329	52.12222
968.705	115.23306
969.082	90.22417
969.458	61.14223
969.835	29.06796
970.211	65.16216
970.587	44.10563
970.963	13.03201
971.339	12.03059
971.715	53.12741
972.091	44.10398
972.467	-18.04298
972.843	14.03406
973.219	54.12266
973.594	10.02542
973.97	3.0067
974.345	23.05331
974.721	8.01841
975.096	42.09853
975.471	71.15973
975.846	2.00461
976.221	31.07616
976.596	67.15634
976.971	45.10764
977.346	23.05098
977.72	26.06365
978.095	14.03505
978.469	12.02749
978.844	30.07224
979.218	61.14229
979.593	38.08691
979.967	1.00231
980.341	82.1802
980.715	43.10462
981.089	27.06515
981.463	39.08576
981.837	49.1165
982.21	23.0499
982.584	36.08402
982.957	30.07279
983.331	1.00225
983.704	52.12432
984.078	23.05458
984.451	3.0071
984.824	29.06855
985.197	-9.02084
985.57	14.03337
985.943	-3.00704
986.316	42.09729
986.688	22.05098
987.061	50.11256
987.434	62.15767
987.806	-12.02778
988.179	-18.041
988.551	35.08516
988.923	23.05426
989.295	61.14514
989.667	62.14402
990.039	60.14476
990.411	13.0283
990.783	-18.03952
991.155	-11.02578
991.527	20.04648
991.898	56.13465
992.27	37.08908
992.641	-8.01934
993.012	-2.00442
993.384	24.05476
993.755	25.06201
994.126	66.15313
994.497	32.07565
994.868	19.04138
995.239	62.14311
995.61	22.05356
995.98	-30.07082
996.351	43.10321
996.722	85.18958
997.092	2.00461
997.462	43.09757
997.833	-3.0068
998.203	31.07106
998.573	16.03869
998.943	33.07473
999.313	44.1018
999.683	30.06952
1000.053	10.02158
1000.423	9.02094
1000.792	-25.06246
1001.162	2.00473
1001.531	23.05481
1001.901	53.12601
1002.27	24.05021
1002.639	37.09036
1003.009	52.11792
1003.378	46.11349
1003.747	7.01583
1004.116	4.00923
1004.485	21.04827
1004.853	-20.04858
1005.222	-17.04087
1005.591	24.05456
1005.959	13.02831
1006.328	6.01306
1006.696	-17.03959
1007.064	13.03129
1007.433	-18.04335
1007.801	21.04873
1008.169	-9.02182
1008.537	54.11352
1008.905	61.13662
1009.273	5.01184
1009.64	34.07904
1010.008	35.07984
1010.375	-2.0046
1010.743	24.05132
1011.11	81.18618
1011.478	86.20442
1011.845	21.04715
1012.212	49.10721
1012.579	55.1296
1012.946	30.06764
1013.313	27.06109
1013.68	37.0789
1014.047	-17.03926
1014.414	-34.07792
1014.78	37.08888
1015.147	30.06875
1015.513	30.06947
1015.88	46.1122
1016.246	-1.00236
1016.612	41.08875
1016.978	71.1673
1017.344	21.05018
1017.71	49.11353
1018.076	8.01796
1018.442	55.13647
1018.808	64.15482
1019.174	17.04091
1019.539	10.0211
1019.905	25.057
1020.27	16.03802
1020.636	-12.02743
1021.001	19.04395
1021.366	55.12698
1021.731	29.07311
1022.096	19.04682
1022.461	51.11572
1022.826	66.15089
1023.191	19.04833
1023.556	-12.02702
1023.92	40.09339
1024.285	-30.07035
1024.649	-2.00471
1025.014	-2.00473
1025.378	53.12881
1025.742	-20.0478
1026.107	70.14949
1026.471	53.11708
1026.835	39.0929
1027.199	26.06035
1027.562	-8.01774
1027.926	35.08161
1028.29	26.06356
1028.654	48.10477
1029.017	0
1029.381	17.03926
1029.744	12.02965
1030.107	29.0658
1030.471	53.12207
1030.834	-5.01076
1031.197	78.17839
1031.56	25.05627
1031.923	5.01257
1032.286	71.15842
1032.648	15.03398
1033.011	61.13543
1033.374	33.07336
1033.736	-15.0385
1034.099	-24.05689
1034.461	36.08839
1034.823	29.06993
1035.185	-4.00966
1035.548	67.15647
1035.91	0
1036.272	61.13284
1036.634	9.02123
1036.995	14.03136
1037.357	-3.0071
1037.719	36.08422
1038.08	53.12134
1038.442	14.03192
1038.803	-44.10108
1039.165	14.03396
1039.526	45.10426
1039.887	15.03451
1040.248	48.11559
1040.609	30.07043
1040.97	7.01646
1041.331	12.02962
1041.692	65.14743
1042.053	33.07128
1042.413	-3.00669
1042.774	58.13516
1043.134	-12.02722
1043.495	39.09422
1043.855	55.12915
1044.215	-1.00239
1044.576	40.0924
1044.936	45.0977
1045.296	25.06008
1045.656	26.06063
1046.016	41.09417
1046.375	27.06295
1046.735	61.13419
1047.095	49.10956
1047.454	38.07541
1047.814	41.09454
1048.173	24.05416
1048.533	11.02421
1048.892	26.0603
1049.251	31.07427
1049.61	12.02856
1049.969	6.01357
1050.328	8.01661
1050.687	24.05575
1051.046	7.01637
1051.405	-13.03104
1051.763	44.09783
1052.122	14.03365
1052.48	7.01664
1052.839	85.19319
1053.197	-10.02271
1053.555	32.06798
1053.914	57.13275
1054.272	21.04765
1054.63	23.0543
1054.988	58.13292
1055.345	-24.04901
1055.703	70.1608
1056.061	62.15499
1056.419	33.08391
1056.776	25.05717
1057.134	-21.0461
1057.491	-4.00971
1057.848	8.01911
1058.206	-6.01338
1058.563	-1.00211
1058.92	25.05488
1059.277	55.1298
1059.634	-19.04257
1059.991	75.17136
1060.348	31.06731
1060.704	35.08203
1061.061	39.08468
1061.418	7.01641
1061.774	3.00716
1062.131	17.04431
1062.487	-2.00448
1062.843	22.05282
1063.199	15.03603
1063.555	41.09175
1063.911	48.11554
1064.267	71.13671
1064.623	32.07562
1064.979	-21.04626
1065.335	46.10402
1065.691	7.0159
1066.046	1.0021
1066.402	-34.07428
1066.757	56.13562
1067.112	22.05169
1067.468	13.03
1067.823	-34.07764
1068.178	0
1068.533	32.07442
1068.888	-40.09237
1069.243	44.10419
1069.598	20.0464
1069.952	51.11205
1070.307	13.03125
1070.662	16.03708
1071.016	76.16385
1071.371	38.08305
1071.725	-1.00228
1072.079	43.09927
1072.434	6.01414
1072.788	21.0473
1073.142	80.18759
1073.496	-19.04352
1073.85	56.12327
1074.203	2.00469
1074.557	58.15052
1074.911	61.13752
1075.265	9.02009
1075.618	21.04941
1075.971	-11.02525
1076.325	6.0149
1076.678	-3.00662
1077.031	1.00212
1077.385	33.0689
1077.738	-7.01517
1078.091	14.03088
1078.444	11.02419
1078.796	53.12537
1079.149	40.09577
1079.502	8.01836
1079.855	17.03814
1080.207	38.08946
1080.56	24.06039
1080.912	5.01172
1081.264	67.1545
1081.617	64.14955
1081.969	45.10986
1082.321	36.08399
1082.673	31.06891
1083.025	-9.02048
1083.377	250.53689
1083.728	14.03117
1084.08	-9.02162
1084.432	-5.0116
1084.783	36.07885
1085.135	-17.04161
1085.486	-10.02223
1085.838	31.0737
1086.189	41.09635
1086.54	24.05474
1086.891	36.0895
1087.242	79.18666
1087.593	-36.08379
1087.944	17.03727
1088.295	22.0477
1088.646	75.1768
1088.996	-14.03291
1089.347	-16.0378
1089.698	18.04143
1090.048	6.015
1090.398	24.0529
1090.749	37.08389
1091.099	31.07616
1091.449	43.10333
1091.799	12.02901
1092.149	29.06913
1092.499	25.05868
1092.849	27.06633
1093.199	22.05262
1093.548	48.11172
1093.898	9.02166
1094.248	-16.03955
1094.597	30.07497
1094.947	38.09824
1095.296	18.04313
1095.645	-15.03779
1095.994	31.07143
1096.343	48.11646
1096.692	15.03891
1097.041	37.0987
1097.39	14.03369
1097.739	-7.01767
1098.088	11.02839
1098.437	23.05947
1098.785	-27.07056
1099.134	-2.00507
1099.482	31.08308
1099.83	36.09142
1100.179	33.08492
1100.527	-33.08471
1100.875	13.03365
1101.223	49.12652
1101.571	-47.1272
1101.919	58.14948
1102.267	-9.02504
1102.615	4.01285
1102.962	-5.01605
1103.31	2.00642
1103.658	-6.01925
