Data from N1R0 150C sample 1_Subt2__4__14-45-52-548.txt Node

Date: Tue Sep 16 14:45:52 PDT 2025
User: uwsun
Spectrometer: HDX01956
Trigger mode: 0
Integration Time (sec): 5.000000E-1
Scans to average: 1
Nonlinearity correction enabled: true
Boxcar width: 0
Storing dark spectrum: false
XAxis mode: Wavelengths
Number of Pixels in Spectrum: 2068
>>>>>Begin Spectral Data<<<<<
194.03	-6.01743
194.578	7.02274
195.127	4.01282
195.676	11.03535
196.225	38.10085
196.773	23.06405
197.321	6.01678
197.87	42.10926
198.418	29.07615
198.966	41.1098
199.513	93.23855
200.061	39.10091
200.609	61.16299
201.156	35.07845
201.704	66.16838
202.251	68.18286
202.798	50.13158
203.345	58.14598
203.892	61.15647
204.438	88.21102
204.985	73.17595
205.532	55.14667
206.078	40.09956
206.624	125.31512
207.17	129.30397
207.716	62.1546
208.262	84.16934
208.808	53.13552
209.354	86.21529
209.899	106.26851
210.445	57.14498
210.99	78.19301
211.535	83.19831
212.08	81.19057
212.625	45.11438
213.17	120.30721
213.715	97.2243
214.259	94.22197
214.804	58.14436
215.348	104.24282
215.892	128.31207
216.436	24.05608
216.98	86.19106
217.524	73.17709
218.068	90.22928
218.612	113.28894
219.155	111.2641
219.698	59.14253
220.242	62.15488
220.785	117.27612
221.328	59.14762
221.871	67.1727
222.414	66.16493
222.956	-1.00245
223.499	53.11992
224.041	47.10898
224.583	51.10917
225.126	74.16399
225.668	47.11572
226.21	97.24663
226.751	101.22629
227.293	27.06219
227.835	92.22665
228.376	52.11974
228.918	6.01522
229.459	80.20092
230	101.24353
230.541	82.18988
231.082	112.27307
231.622	41.09409
232.163	41.10021
232.704	96.24128
233.244	54.13543
233.784	22.05418
234.324	141.31643
234.864	60.13706
235.404	30.07172
235.944	63.14972
236.484	115.2869
237.023	49.1169
237.563	73.17128
238.102	86.2045
238.641	45.11434
239.18	49.11658
239.719	59.14906
240.258	97.21876
240.797	99.23727
241.335	64.15691
241.874	103.20196
242.412	83.20308
242.95	84.20442
243.488	19.04348
244.026	125.29065
244.564	84.17448
245.102	89.20318
245.64	56.13506
246.177	36.08127
246.715	122.29278
247.252	56.12854
247.789	98.18284
248.326	54.13176
248.863	81.17991
249.4	98.22305
249.936	146.30489
250.473	98.23285
251.009	98.22521
251.546	122.27284
252.082	43.09432
252.618	85.19162
253.154	61.14842
253.69	58.13169
254.226	99.23799
254.761	117.26279
255.297	41.09103
255.832	74.17759
256.367	63.14961
256.903	110.24549
257.438	81.19116
257.972	86.19288
258.507	55.12774
259.042	49.10829
259.576	169.37115
260.111	60.13932
260.645	65.14215
261.179	51.12116
261.713	105.23613
262.247	44.10193
262.781	55.11784
263.315	61.14936
263.849	73.18423
264.382	85.19655
264.915	65.1556
265.449	59.14559
265.982	66.15161
266.515	107.26306
267.048	131.27751
267.58	73.15904
268.113	45.099
268.646	33.08194
269.178	48.1089
269.71	133.29406
270.243	129.29888
270.775	108.27775
271.307	61.14647
271.838	101.2392
272.37	96.23606
272.902	99.22519
273.433	86.19249
273.965	99.24133
274.496	59.14767
275.027	105.26214
275.558	121.2955
276.089	81.20391
276.62	72.18278
277.15	60.14901
277.681	92.19928
278.211	87.21326
278.741	99.22135
279.272	69.15981
279.802	69.17308
280.332	84.19997
280.861	116.27742
281.391	64.14731
281.921	75.18071
282.45	87.21681
282.98	82.21492
283.509	101.23132
284.038	91.20992
284.567	92.21582
285.096	115.2796
285.625	17.03909
286.153	115.27572
286.682	87.20173
287.21	64.154
287.739	122.28843
288.267	97.2376
288.795	104.27211
289.323	105.2479
289.851	108.25533
290.378	57.12892
290.906	124.30379
291.433	124.30907
291.961	98.22566
292.488	79.19745
293.015	118.27951
293.542	139.35679
294.069	101.2517
294.596	108.26459
295.122	127.30506
295.649	114.25042
296.175	108.26076
296.702	151.36808
297.228	70.17029
297.754	121.27311
298.28	155.3557
298.806	108.26145
299.332	100.22585
299.857	127.28946
300.383	111.27983
300.908	144.35357
301.433	140.34298
301.958	95.21959
302.483	65.16293
303.008	161.39859
303.533	94.24368
304.058	107.25066
304.582	112.26602
305.107	100.26138
305.631	131.29749
306.155	106.24866
306.679	104.24644
307.203	121.28213
307.727	127.3017
308.251	130.32108
308.775	166.4023
309.298	125.30231
309.822	108.27241
310.345	130.31162
310.868	138.33319
311.391	133.32783
311.914	134.33593
312.437	149.34056
312.96	135.31873
313.482	105.24848
314.005	78.1966
314.527	72.18896
315.049	162.40832
315.571	146.32933
316.093	140.3468
316.615	85.20612
317.137	164.35691
317.659	131.31802
318.18	110.26368
318.702	138.32436
319.223	150.30643
319.744	162.36438
320.265	150.36544
320.786	188.46637
321.307	123.30497
321.828	125.28387
322.348	100.23779
322.869	161.3832
323.389	516.93185
323.909	134.30745
324.43	138.33042
324.95	142.3262
325.47	201.49397
325.989	175.4138
326.509	157.35248
327.029	151.34597
327.548	143.3254
328.067	172.41637
328.587	209.51893
329.106	143.32342
329.625	158.41001
330.144	220.50617
330.662	213.49564
331.181	219.51141
331.7	163.3787
332.218	179.38815
332.736	182.42476
333.255	199.4658
333.773	189.44396
334.291	263.64535
334.808	206.46144
335.326	184.41233
335.844	230.53509
336.361	263.66486
336.879	240.55769
337.396	197.47733
337.913	255.58
338.43	208.4663
338.947	204.48433
339.464	224.4794
339.981	207.48737
340.497	222.53982
341.014	233.56093
341.53	256.56847
342.046	283.69236
342.562	277.67592
343.078	231.53795
343.594	259.60552
344.11	321.7475
344.626	275.68053
345.141	267.60065
345.657	266.59215
346.172	285.67334
346.687	276.62128
347.202	316.70344
347.717	275.64342
348.232	262.64135
348.747	333.74665
349.261	267.57772
349.776	317.73411
350.29	293.71762
350.805	319.76648
351.319	309.70025
351.833	276.62458
352.347	313.72054
352.861	329.75041
353.374	331.73056
353.888	347.82169
354.401	322.71293
354.915	332.72955
355.428	348.83947
355.941	356.801
356.454	329.71094
356.967	259.59482
357.48	319.70378
357.993	373.8829
358.505	288.68504
359.018	378.8911
359.53	394.92303
360.042	385.82873
360.554	387.91036
361.066	319.75482
361.578	390.82777
362.09	365.83753
362.602	322.69984
363.113	367.83368
363.625	415.9002
364.136	357.7579
364.647	377.8609
365.158	400.89186
365.669	374.85972
366.18	348.79261
366.691	377.79477
367.201	438.99754
367.712	455.98695
368.222	436.95521
368.733	452.93088
369.243	424.90424
369.753	454.99087
370.263	526.18473
370.773	425.98492
371.282	472.06248
371.792	533.14926
372.301	444.01523
372.811	498.22645
373.32	491.99869
373.829	474.05131
374.338	537.10734
374.847	503.08632
375.356	477.05731
375.865	586.15305
376.373	629.30202
376.882	572.33876
377.39	621.36845
377.898	597.34733
378.407	647.33156
378.915	711.3873
379.423	690.44087
379.93	809.64525
380.438	772.63863
380.946	786.60749
381.453	863.79416
381.96	872.79963
382.468	885.79018
382.975	994.05181
383.482	1000.86336
383.989	1014.19833
384.495	1117.11993
385.002	1129.88999
385.509	1240.34322
386.015	1329.03938
386.521	1354.34557
387.028	1383.37031
387.534	1436.24954
388.04	1565.75085
388.546	1501.40153
389.051	1596.47546
389.557	1738.76198
390.063	1849.75052
390.568	1907.03563
391.073	1959.75149
391.578	2090.22844
392.084	2148.9457
392.589	2199.75168
393.093	2455.29866
393.598	2721.14796
394.103	2785.34004
394.607	3150.41723
395.112	3365.52737
395.616	3605.39918
396.12	3945.88862
396.624	4357.91135
397.128	4693.9012
397.632	5138.50217
398.136	5658.08777
398.639	5839.15571
399.143	6734.23033
399.646	7514.03368
400.15	8340.55097
400.653	9354.15248
401.156	10325.83657
401.659	12103.31599
402.162	14861.42176
402.664	19960.38482
403.167	28212.04705
403.67	53701.61255
404.172	62444.68285
404.674	63858.43483
405.176	63738.15102
405.678	63977.72923
406.18	64011.81569
406.682	63863.44694
407.184	63926.60148
407.686	63841.39382
408.187	64025.8516
408.688	51320.69363
409.19	35507.47378
409.691	28005.51332
410.192	23695.47558
410.693	20548.73252
411.194	18381.80432
411.694	17323.4006
412.195	16000.37495
412.696	14398.04329
413.196	13354.96251
413.696	12899.30596
414.196	13111.61504
414.696	12730.90559
415.196	11842.22765
415.696	10804.61542
416.196	8948.40073
416.695	6901.88687
417.195	5996.22315
417.694	5717.47222
418.194	5332.70962
418.693	4942.40258
419.192	4860.65374
419.691	4707.63885
420.19	4448.01288
420.688	4386.18589
421.187	4268.0568
421.685	3900.01753
422.184	3610.21141
422.682	3092.8459
423.18	2787.14678
423.678	2474.06296
424.176	2233.97387
424.674	2198.84543
425.172	2001.97526
425.669	1891.074
426.167	1811.79127
426.664	1623.55776
427.161	1464.45091
427.659	1347.48752
428.156	1373.14078
428.652	1231.4531
429.149	1213.3193
429.646	1141.00574
430.143	1124.16265
430.639	1032.0023
431.135	949.9984
431.632	898.72754
432.128	864.77116
432.624	851.89597
433.12	801.5728
433.616	825.54089
434.111	711.48839
434.607	710.49906
435.103	657.21387
435.598	726.30919
436.093	665.3748
436.588	629.26367
437.083	583.17758
437.578	538.13648
438.073	558.27482
438.568	516.16738
439.062	513.00181
439.557	436.95078
440.051	447.93321
440.546	432.9149
441.04	437.97937
441.534	444.04123
442.028	506.11915
442.522	395.89182
443.015	390.78405
443.509	444.00342
444.002	425.97204
444.496	344.70688
444.989	338.77947
445.482	350.82191
445.975	398.86315
446.468	354.72447
446.961	373.76249
447.454	344.73078
447.947	347.78538
448.439	362.83979
448.931	366.79275
449.424	390.93434
449.916	345.79831
450.408	384.82463
450.9	313.72514
451.392	311.75406
451.884	300.65868
452.375	307.72559
452.867	321.68564
453.358	262.57792
453.849	315.64043
454.341	323.6929
454.832	291.60081
455.323	308.73232
455.814	325.70561
456.304	266.59165
456.795	276.60446
457.285	255.54042
457.776	261.57198
458.266	278.63244
458.756	218.49936
459.247	256.58946
459.737	295.68209
460.226	312.67666
460.716	299.68199
461.206	270.6197
461.695	214.51295
462.185	223.51276
462.674	290.63298
463.163	274.58893
463.653	235.48323
464.142	277.64302
464.63	238.55632
465.119	228.51261
465.608	237.53601
466.096	205.43199
466.585	204.45244
467.073	204.46711
467.561	177.41431
468.05	204.45583
468.538	186.44245
469.026	169.39155
469.513	189.38829
470.001	231.51221
470.489	180.41729
470.976	249.5597
471.463	210.50662
471.951	186.44975
472.438	127.29378
472.925	161.37095
473.412	157.37268
473.899	181.40452
474.385	195.46376
474.872	131.30063
475.359	151.36381
475.845	181.36531
476.331	102.21528
476.817	166.39457
477.303	158.35946
477.789	119.27932
478.275	148.35989
478.761	120.28073
479.247	137.30037
479.732	125.30698
480.218	169.43242
480.703	141.34075
481.188	190.39995
481.673	141.31838
482.158	140.29755
482.643	157.39239
483.128	174.39602
483.612	198.45828
484.097	130.30817
484.581	124.28268
485.066	155.37175
485.55	177.38184
486.034	112.24012
486.518	167.39075
487.002	99.23799
487.486	97.23292
487.969	103.24732
488.453	99.24349
488.936	70.15706
489.42	113.24702
489.903	58.14373
490.386	25.0521
490.869	154.33073
491.352	107.25419
491.835	109.2206
492.318	63.14127
492.8	112.22942
493.283	97.24489
493.765	80.19469
494.247	87.20093
494.73	74.16317
495.212	77.1813
495.694	135.31291
496.175	117.27741
496.657	98.22971
497.139	67.11507
497.62	50.12017
498.102	63.1562
498.583	46.11278
499.064	70.15558
499.545	115.25872
500.026	103.23077
500.507	61.1401
500.988	126.31006
501.469	51.12677
501.949	89.21776
502.43	84.20105
502.91	136.28401
503.39	66.16277
503.87	113.26389
504.35	83.19276
504.83	90.19537
505.31	73.17495
505.79	28.0664
506.269	46.10563
506.749	40.09159
507.228	51.12004
507.707	118.25997
508.187	109.25744
508.666	68.16777
509.145	66.15386
509.623	76.17703
510.102	61.14714
510.581	105.25059
511.059	72.18031
511.538	59.15155
512.016	71.16945
512.494	56.13434
512.972	72.17167
513.45	57.13285
513.928	65.15756
514.406	65.15892
514.884	61.1568
515.361	73.17395
515.839	58.13356
516.316	74.17907
516.793	63.15848
517.27	43.10353
517.747	73.1864
518.224	76.17431
518.701	75.16513
519.178	72.1794
519.654	77.18144
520.131	97.23813
520.607	45.10998
521.083	85.19138
521.56	49.11555
522.036	64.13917
522.512	89.21816
522.987	60.14437
523.463	79.1863
523.939	80.19752
524.414	51.1168
524.89	77.18292
525.365	45.1019
525.84	79.18897
526.315	84.20228
526.79	83.18627
527.265	103.2359
527.74	73.17642
528.215	45.10513
528.689	-14.03115
529.164	49.1053
529.638	14.03568
530.112	19.04498
530.587	35.07534
531.061	55.13307
531.534	35.08462
532.008	103.24817
532.482	67.1537
532.956	38.09708
533.429	88.21399
533.903	32.07053
534.376	93.20416
534.849	23.05323
535.322	73.17162
535.795	13.03162
536.268	62.14986
536.741	32.07627
537.213	40.09226
537.686	48.11755
538.158	56.12751
538.631	45.10916
539.103	29.06594
539.575	20.04158
540.047	63.13731
540.519	88.20893
540.991	45.1099
541.463	55.13227
541.934	29.06594
542.406	62.14885
542.877	88.19753
543.348	17.04136
543.82	14.0343
544.291	72.16771
544.762	43.1027
545.233	65.16445
545.703	59.13148
546.174	13.03044
546.645	53.12842
547.115	75.18057
547.585	7.01628
548.056	68.16709
548.526	89.21037
548.996	-16.03882
549.466	34.08305
549.935	5.01209
550.405	19.04222
550.875	40.09548
551.344	11.02649
551.814	51.11732
552.283	103.22354
552.752	44.1037
553.221	59.13083
553.69	105.23603
554.159	58.14462
554.628	100.22576
555.096	46.1174
555.565	18.04029
556.033	120.28359
556.502	21.05111
556.97	85.18887
557.438	24.05685
557.906	29.06897
558.374	66.15331
558.842	37.08918
559.31	102.22717
559.777	58.14204
560.245	29.06709
560.712	28.06468
561.18	93.20519
561.647	24.05378
562.114	23.05325
562.581	42.10377
563.048	18.04168
563.514	105.26157
563.981	39.08993
564.448	99.22263
564.914	15.03521
565.381	101.22955
565.847	51.11919
566.313	39.09101
566.779	59.13317
567.245	13.03043
567.711	47.1129
568.176	6.01365
568.642	36.09103
569.108	24.05941
569.573	20.04672
570.038	-24.05132
570.504	77.17387
570.969	-31.07807
571.434	98.21663
571.899	46.10947
572.363	96.21912
572.828	97.22189
573.293	3.00697
573.757	60.1396
574.222	49.11042
574.686	81.18603
575.15	97.23221
575.614	125.29214
576.078	52.12246
576.542	76.17312
577.006	115.25776
577.469	95.23218
577.933	66.1507
578.396	51.1213
578.86	63.14845
579.323	72.17338
579.786	79.17145
580.249	150.34816
580.712	57.13874
581.175	86.21101
581.637	31.07131
582.1	80.17425
582.563	52.11115
583.025	80.1941
583.487	69.14259
583.95	14.03043
584.412	109.22768
584.874	109.26362
585.336	17.04073
585.797	97.21025
586.259	71.16607
586.721	53.12474
587.182	92.21117
587.643	67.15246
588.105	47.11148
588.566	56.11746
589.027	102.24813
589.488	75.17212
589.949	94.22704
590.41	42.08412
590.87	79.18071
591.331	135.29174
591.791	55.12784
592.252	82.1907
592.712	72.17233
593.172	57.13018
593.632	129.2839
594.092	64.14301
594.552	99.21367
595.011	44.10136
595.471	117.26311
595.931	67.1516
596.39	51.12283
596.849	25.05875
597.308	16.03455
597.768	48.12405
598.227	70.16805
598.685	27.06211
599.144	98.2298
599.603	44.10338
600.062	18.03847
600.52	66.14943
600.978	3.00718
601.437	77.17493
601.895	66.14193
602.353	67.14745
602.811	71.16032
603.269	13.03123
603.727	34.08209
604.184	23.05295
604.642	52.12801
605.099	25.05891
605.557	68.16511
606.014	39.08471
606.471	9.02278
606.928	77.17117
607.385	48.12047
607.842	39.09
608.299	88.20482
608.755	57.13817
609.212	38.0854
609.668	45.10211
610.125	56.13506
610.581	83.19383
611.037	53.11914
611.493	46.1077
611.949	44.10752
612.405	39.0802
612.861	21.04869
613.316	36.08662
613.772	66.15113
614.227	100.23852
614.683	39.08323
615.138	-4.0095
615.593	13.03045
616.048	18.04155
616.503	30.07314
616.958	48.12025
617.412	3.0072
617.867	19.04292
618.321	26.05418
618.776	23.05109
619.23	10.02363
619.684	59.13165
620.138	49.11227
620.592	-9.02207
621.046	77.18116
621.5	23.05563
621.954	-6.01344
622.407	61.13476
622.861	41.09965
623.314	22.05011
623.768	31.0735
624.221	10.01993
624.674	34.07882
625.127	29.0677
625.58	27.06092
626.033	37.08116
626.485	-6.01449
626.938	48.11427
627.39	49.11457
627.843	48.11066
628.295	61.14027
628.747	31.07413
629.199	31.07083
629.651	2.00463
630.103	14.03233
630.555	15.03186
631.006	-6.01409
631.458	19.04491
631.909	-25.0568
632.361	-32.07492
632.812	24.05577
633.263	67.14485
633.714	39.08273
634.165	-3.00725
634.616	-13.03104
635.067	7.01554
635.518	25.05941
635.968	6.01191
636.419	66.14358
636.869	16.03805
637.319	77.17741
637.769	66.14772
638.219	16.0379
638.669	-3.00718
639.119	-21.05077
639.569	25.06008
640.019	46.10614
640.468	29.06519
640.918	4.00954
641.367	24.05392
641.816	54.11972
642.265	108.24859
642.714	-12.0278
643.163	50.11537
643.612	27.06628
644.061	49.10476
644.51	48.10991
644.958	27.05985
645.406	13.0312
645.855	17.04139
646.303	52.11984
646.751	39.09029
647.199	39.08842
647.647	76.17521
648.095	-12.02764
648.543	64.12932
648.99	54.1293
649.438	-4.00932
649.885	52.12919
650.333	102.1956
650.78	14.03397
651.227	34.08321
651.674	28.06406
652.121	57.13926
652.568	55.13422
653.015	7.01739
653.461	34.08085
653.908	37.08494
654.354	41.09748
654.801	7.01651
655.247	24.05214
655.693	50.12944
656.139	-20.0482
656.585	43.10247
657.031	-15.03561
657.477	57.12418
657.922	-28.06445
658.368	51.12479
658.813	5.01143
659.259	32.07758
659.704	55.1299
660.149	-32.07474
660.594	52.12294
661.039	42.09559
661.484	43.1016
661.929	59.13713
662.373	-10.02525
662.818	33.08149
663.262	38.09175
663.707	18.04584
664.151	20.04882
664.595	36.08695
665.039	38.09406
665.483	31.07874
665.927	35.08203
666.371	40.09398
666.814	-24.05757
667.258	52.12479
667.701	85.17928
668.145	55.13607
668.588	67.16472
669.031	12.02832
669.474	21.05043
669.917	86.18629
670.36	64.15854
670.803	71.1701
671.245	-12.0248
671.688	9.02196
672.13	42.09482
672.573	22.05551
673.015	55.13187
673.457	26.05666
673.899	52.12508
674.341	48.11506
674.783	42.10029
675.225	4.00988
675.666	66.16026
676.108	34.07343
676.549	50.11582
676.991	1.00221
677.432	18.03585
677.873	-18.04143
678.314	28.06653
678.755	82.19985
679.196	70.15848
679.637	-3.00721
680.078	75.17329
680.518	43.09824
680.959	26.06178
681.399	43.10584
681.839	57.13723
682.28	46.11366
682.72	34.07751
683.16	43.10669
683.6	26.05906
684.039	20.04132
684.479	44.10804
684.919	32.0751
685.358	9.0224
685.798	52.13425
686.237	18.04287
686.676	9.02038
687.115	57.13317
687.554	70.16568
687.993	54.11852
688.432	15.03422
688.871	74.16767
689.309	36.08593
689.748	58.11956
690.186	1.00234
690.625	29.06788
691.063	-1.00239
691.501	49.1202
691.939	51.12737
692.377	41.09871
692.815	90.21672
693.253	28.06633
693.69	59.12783
694.128	-6.0146
694.565	17.04017
695.003	81.20406
695.44	47.11045
695.877	81.18782
696.314	37.07739
696.751	45.10111
697.188	62.14214
697.625	36.07998
698.061	49.11623
698.498	11.02593
698.934	10.02384
699.371	31.07254
699.807	60.13993
700.243	24.05762
700.679	44.09718
701.115	48.11084
701.551	-2.00464
701.987	5.0109
702.422	46.10879
702.858	63.1484
703.294	78.17609
703.729	70.16773
704.164	-21.05025
704.599	100.21874
705.035	63.13947
705.47	12.02902
705.904	18.04148
706.339	48.10898
706.774	67.15462
707.209	33.07625
707.643	31.07359
708.078	29.06998
708.512	23.0573
708.946	33.07746
709.38	46.10812
709.814	29.06511
710.248	53.12809
710.682	79.18659
711.116	44.10612
711.549	2.00508
711.983	8.01841
712.416	32.07533
712.85	8.01971
713.283	32.07486
713.716	18.04428
714.149	35.08019
714.582	67.14814
715.015	40.09694
715.448	76.18813
715.881	61.12877
716.313	25.0579
716.746	97.22456
717.178	39.09276
717.61	72.18005
718.043	56.13618
718.475	62.14811
718.907	71.17404
719.339	52.11629
719.77	39.0924
720.202	24.05952
720.634	46.11153
721.065	9.02107
721.497	75.18016
721.928	-3.0073
722.359	66.15809
722.79	-1.00238
723.221	-30.07442
723.652	66.16469
724.083	73.16086
724.514	60.13551
724.945	6.01395
725.375	70.16067
725.806	41.09961
726.236	65.1631
726.666	65.15036
727.096	45.10842
727.526	69.1747
727.956	7.0159
728.386	21.05092
728.816	52.13116
729.246	109.26223
729.675	3.00726
730.105	37.08918
730.534	38.08726
730.964	45.11043
731.393	39.09407
731.822	73.18285
732.251	60.14955
732.68	52.11811
733.109	56.13577
733.537	47.11329
733.966	73.17875
734.395	48.10916
734.823	44.09555
735.251	26.06166
735.68	30.0729
736.108	32.07881
736.536	39.08982
736.964	49.1115
737.392	65.1591
737.82	59.13795
738.247	20.04703
738.675	39.09004
739.102	-34.08459
739.53	71.17912
739.957	40.10208
740.384	72.16923
740.811	-2.00493
741.238	85.20371
741.665	47.10877
742.092	-36.08247
742.519	42.10271
742.945	112.26468
743.372	68.16561
743.798	38.09571
744.225	0
744.651	45.11055
745.077	59.14414
745.503	-13.03113
745.929	67.15904
746.355	17.04077
746.781	-10.02435
747.207	52.12136
747.632	78.1896
748.058	108.26489
748.483	79.177
748.908	65.15863
749.334	82.19746
749.759	77.17939
750.184	37.0879
750.609	96.22854
751.033	13.02991
751.458	84.18188
751.883	67.161
752.307	23.05337
752.732	74.18539
753.156	30.07268
753.58	73.16766
754.005	8.01982
754.429	101.2329
754.853	84.20419
755.277	102.23534
755.7	41.09998
756.124	23.0564
756.548	39.09043
756.971	63.1503
757.394	5.01263
757.818	36.09142
758.241	57.14205
758.664	54.13367
759.087	64.14124
759.51	40.09676
759.933	86.20285
760.356	76.19184
760.778	49.11806
761.201	38.09001
761.623	47.10933
762.046	45.10277
762.468	52.12165
762.89	21.05037
763.312	118.27962
763.734	46.10879
764.156	24.05836
764.578	51.11342
765	81.19213
765.421	-3.00759
765.843	29.07465
766.264	11.02562
766.686	16.03904
767.107	58.13734
767.528	54.13616
767.949	44.10939
768.37	72.17436
768.791	0
769.212	46.11383
769.632	30.06914
770.053	6.01546
770.473	7.01661
770.894	-14.03401
771.314	-6.01395
771.734	28.06399
772.154	7.01759
772.575	24.05418
772.994	-4.00893
773.414	-2.00468
773.834	-5.01228
774.254	16.03835
774.673	67.15996
775.093	38.09286
775.512	25.06069
775.931	76.18771
776.351	21.05155
776.77	61.14631
777.189	50.11596
777.607	3.00755
778.026	48.1169
778.445	43.10704
778.864	18.04474
779.282	-5.01173
779.701	24.05904
780.119	6.01499
780.537	10.02445
780.955	22.05448
781.373	21.05085
781.791	82.18066
782.209	5.01105
782.627	33.08524
783.045	40.08853
783.462	10.02511
783.88	20.05092
784.297	29.07148
784.715	-3.00764
785.132	-3.0071
785.549	5.01227
785.966	24.05917
786.383	62.14924
786.8	70.15726
787.217	72.16725
787.633	50.12304
788.05	19.04311
788.466	72.16175
788.883	55.13806
789.299	30.06947
789.715	29.06921
790.131	88.21159
790.547	56.13562
790.963	35.08459
791.379	27.06682
791.795	10.02204
792.21	40.09027
792.626	23.05276
793.041	15.03614
793.457	31.07418
793.872	23.05223
794.287	35.08286
794.702	30.07079
795.117	54.13112
795.532	56.13765
795.947	17.03931
796.362	29.06586
796.776	65.14377
797.191	36.08603
797.605	16.03723
798.02	31.07336
798.434	69.1479
798.848	62.15026
799.262	-5.01218
799.676	42.09953
800.09	17.04081
800.504	27.06345
800.918	34.07566
801.331	-40.10104
801.745	2.00446
802.158	-17.04135
802.572	57.13374
802.985	38.0882
803.398	68.15583
803.811	-39.0967
804.224	-24.05788
804.637	18.04199
805.05	32.0713
805.462	45.10649
805.875	-9.02301
806.288	16.03793
806.7	13.03154
807.112	20.04462
807.525	-27.06434
807.937	8.01938
808.349	11.02668
808.761	51.12204
809.173	25.05923
809.584	48.11414
809.996	-21.05039
810.408	33.084
810.819	17.03898
811.231	72.18691
811.642	71.17074
812.053	42.0996
812.464	19.04376
812.875	48.11973
813.286	67.16855
813.697	-20.04451
814.108	69.16145
814.519	91.19573
814.929	59.145
815.34	14.03268
815.75	41.10214
816.16	15.0359
816.571	37.09304
816.981	42.09455
817.391	27.06258
817.801	72.17318
818.211	10.02312
818.62	35.08215
819.03	39.09226
819.44	-24.06041
819.849	-22.05372
820.259	-8.0198
820.668	21.05046
821.077	50.12141
821.486	31.07128
821.895	16.03781
822.304	13.03354
822.713	0
823.122	-6.01459
823.531	-9.02048
823.939	55.12995
824.348	20.04686
824.756	30.07243
825.164	42.10171
825.573	43.10455
825.981	34.08113
826.389	52.12588
826.797	84.20602
827.205	34.07604
827.612	22.05235
828.02	-7.01592
828.428	-15.03733
828.835	7.01813
829.243	36.0822
829.65	16.03902
830.057	3.00704
830.464	79.18724
830.871	32.07445
831.278	33.07722
831.685	59.12548
832.092	-10.02362
832.499	67.14094
832.905	-12.02946
833.312	6.01299
833.718	67.16192
834.124	17.03771
834.531	19.046
834.937	74.18351
835.343	23.05323
835.749	33.07315
836.155	66.16683
836.561	34.08104
836.966	49.11497
837.372	12.02954
837.777	26.06306
838.183	10.02137
838.588	44.10632
838.993	48.11273
839.399	-1.00239
839.804	-15.03579
840.209	70.17385
840.613	47.10009
841.018	38.09255
841.423	60.14863
841.828	45.11064
842.232	69.16101
842.637	107.24299
843.041	18.04511
843.445	41.09856
843.849	40.09614
844.253	81.18327
844.657	24.05906
845.061	104.22835
845.465	56.13019
845.869	48.10717
846.272	44.10398
846.676	0
847.079	31.07709
847.483	77.18363
847.886	42.09749
848.289	18.04745
848.692	29.07061
849.095	-15.03493
849.498	45.10834
849.901	5.011
850.304	51.11699
850.707	30.0738
851.109	76.18343
851.512	41.09755
851.914	-11.02728
852.316	58.1431
852.718	8.02068
853.121	44.10406
853.523	23.05151
853.925	5.01286
854.326	25.06103
854.728	34.08506
855.13	49.12353
855.531	57.13123
855.933	17.03906
856.334	10.02445
856.736	9.01971
857.137	35.07919
857.538	27.06631
857.939	60.14487
858.34	14.03268
858.741	29.07327
859.142	2.00463
859.542	44.11332
859.943	39.09351
860.343	7.01697
860.744	31.07302
861.144	46.10917
861.544	36.08478
861.945	43.10572
862.345	3.00709
862.745	52.1255
863.145	58.13019
863.544	52.12716
863.944	17.03881
864.344	-13.03103
864.743	38.09081
865.143	84.20907
865.542	-34.07588
865.941	52.12446
866.34	37.08416
866.74	20.05231
867.139	52.12151
867.537	6.01469
867.936	75.17356
868.335	16.0394
868.734	41.10151
869.132	3.00666
869.531	56.12828
869.929	79.17255
870.327	15.0348
870.726	15.03584
871.124	-1.00225
871.522	-2.00494
871.92	65.15388
872.318	31.07257
872.715	22.05183
873.113	2.0047
873.511	30.07197
873.908	33.08206
874.306	55.13287
874.703	12.02881
875.1	-23.05661
875.497	39.08961
875.894	62.14885
876.291	44.10427
876.688	-9.02268
877.085	60.13689
877.482	17.04121
877.878	51.11976
878.275	31.07644
878.671	17.03521
879.068	10.02336
879.464	38.08841
879.86	12.02744
880.256	-9.02123
880.652	18.04438
881.048	33.078
881.444	8.01813
881.84	12.02955
882.236	37.08969
882.631	40.09519
883.027	53.1226
883.422	-8.0198
883.817	13.03197
884.213	13.03241
884.608	42.10164
885.003	-3.00696
885.398	22.05338
885.793	40.0964
886.188	-18.04354
886.582	-4.00989
886.977	47.10626
887.371	19.04619
887.766	-2.00487
888.16	-35.08385
888.554	60.14125
888.949	43.104
889.343	-2.00471
889.737	13.03408
890.131	23.05586
890.525	29.07232
890.918	28.06806
891.312	30.06836
891.706	52.13135
892.099	51.12455
892.492	43.08794
892.886	25.05891
893.279	39.09567
893.672	7.01744
894.065	77.18489
894.458	-1.00242
894.851	51.1191
895.244	26.06424
895.637	41.09537
896.029	30.07128
896.422	38.0882
896.814	27.06461
897.206	51.11835
897.599	53.12576
897.991	24.05643
898.383	80.18068
898.775	60.13102
899.167	34.07754
899.559	15.03644
899.951	18.04052
900.342	20.04874
900.734	52.1274
901.125	54.13562
901.517	26.06178
901.908	82.18429
902.299	21.04981
902.69	75.1706
903.082	76.17584
903.473	54.12623
903.863	21.05157
904.254	61.13718
904.645	37.08746
905.036	80.18913
905.426	95.20257
905.817	27.06347
906.207	15.03411
906.597	33.07509
906.987	27.06714
907.378	54.13225
907.768	15.03869
908.158	53.12372
908.547	38.09636
908.937	9.02212
909.327	72.16672
909.717	28.0675
910.106	12.02772
910.495	38.09029
910.885	81.19701
911.274	34.08184
911.663	10.02437
912.052	32.07516
912.441	47.11619
912.83	-7.01543
913.219	56.14065
913.608	10.02382
913.997	58.14125
914.385	53.12139
914.774	69.16031
915.162	63.1455
915.55	66.15143
915.939	37.09093
916.327	17.0407
916.715	56.13969
917.103	22.05131
917.491	60.1418
917.878	34.08032
918.266	8.02006
918.654	70.17321
919.041	29.07439
919.429	4.00913
919.816	65.15792
920.203	52.12237
920.591	63.15018
920.978	38.08956
921.365	36.09181
921.752	10.02265
922.139	53.10967
922.525	14.03265
922.912	36.08415
923.299	-6.01452
923.685	15.03761
924.072	-34.07428
924.458	34.08166
924.844	24.05742
925.231	0
925.617	22.05484
926.003	78.19031
926.389	21.05123
926.774	10.02447
927.16	51.12144
927.546	32.08037
927.931	61.14497
928.317	27.05927
928.702	11.02499
929.088	92.21202
929.473	20.04972
929.858	47.1114
930.243	90.20807
930.628	28.06648
931.013	24.05757
931.398	32.06929
931.783	-4.01014
932.167	56.13291
932.552	23.0555
932.937	9.02149
933.321	37.0904
933.705	-51.12451
934.09	50.1188
934.474	31.07003
934.858	9.02274
935.242	0
935.626	33.08212
936.009	48.12478
936.393	81.20039
936.777	16.04
937.16	13.03314
937.544	21.0468
937.927	19.04699
938.311	50.11619
938.694	78.19885
939.077	-10.02323
939.46	34.07845
939.843	25.04851
940.226	5.01238
940.609	98.216
940.991	-6.01475
941.374	46.10884
941.757	19.04508
942.139	-7.01528
942.522	38.08558
942.904	39.09015
943.286	57.13864
943.668	58.14635
944.05	61.14419
944.432	6.01428
944.814	3.00708
945.196	32.07586
945.578	39.09079
945.959	-31.06989
946.341	-33.07737
946.722	2.00451
947.104	52.11917
947.485	32.07156
947.866	46.11266
948.247	55.13487
948.628	5.01155
949.009	-10.02494
949.39	32.07624
949.771	37.08037
950.152	21.04985
950.532	82.19866
950.913	43.09939
951.293	15.03981
951.674	75.17315
952.054	34.08293
952.434	21.05048
952.814	-4.0091
953.194	4.01003
953.574	37.08722
953.954	9.0204
954.334	66.15929
954.714	25.05912
955.093	60.14125
955.473	37.09029
955.853	44.10999
956.232	-23.06164
956.611	5.01142
956.99	30.07314
957.37	-9.02215
957.749	-17.03868
958.128	32.07837
958.506	36.09048
958.885	19.04619
959.264	-4.00965
959.643	41.09001
960.021	17.04107
960.4	33.07156
960.778	25.05841
961.156	-9.02183
961.535	-8.01784
961.913	45.10153
962.291	15.03784
962.669	14.03457
963.047	31.07692
963.424	54.1346
963.802	28.06658
964.18	9.02167
964.557	47.10287
964.935	39.08853
965.312	25.06348
965.69	5.01201
966.067	30.06944
966.444	-40.09427
966.821	24.05997
967.198	9.02082
967.575	40.0938
967.952	66.14778
968.329	41.09657
968.705	74.15138
969.082	73.18239
969.458	8.01885
969.835	47.10976
970.211	39.09776
970.587	1.00242
970.963	18.04428
971.339	29.07371
971.715	48.1155
972.091	18.04275
972.467	1.00238
972.843	30.07276
973.219	85.19186
973.594	40.10115
973.97	-28.06293
974.345	32.07404
974.721	1.0023
975.096	50.11711
975.471	36.08157
975.846	25.05735
976.221	3.00741
976.596	64.14943
976.971	73.17369
977.346	37.08177
977.72	15.0368
978.095	23.05749
978.469	29.0662
978.844	30.07224
979.218	34.07973
979.593	56.12761
979.967	27.06204
980.341	84.18452
980.715	61.14792
981.089	55.13202
981.463	40.08794
981.837	68.16108
982.21	56.12063
982.584	25.05847
982.957	16.03892
983.331	29.06476
983.704	74.17617
984.078	26.06166
984.451	46.10791
984.824	22.05207
985.197	36.0826
985.57	-25.06003
985.943	5.01171
986.316	16.03725
986.688	25.0579
987.061	86.19217
987.434	45.11478
987.806	20.046
988.179	-13.02958
988.551	59.14291
988.923	6.0142
989.295	37.08844
989.667	47.1095
990.039	60.14476
990.411	-2.00437
990.783	-22.04835
991.155	-17.03989
991.527	8.01863
991.898	38.09168
992.27	24.05792
992.641	28.06725
993.012	11.02423
993.384	12.02744
993.755	26.06448
994.126	72.16685
994.497	14.03321
994.868	14.03052
995.239	28.06507
995.61	19.04628
995.98	2.00469
996.351	45.10797
996.722	67.14999
997.092	28.06414
997.462	0
997.833	33.0743
998.203	7.01612
998.573	23.05554
998.943	43.09718
999.313	45.1041
999.683	24.05568
1000.053	-11.02384
1000.423	38.08792
1000.792	11.0273
1001.162	4.00945
1001.531	54.12791
1001.901	-10.02406
1002.27	22.04604
1002.639	-4.00984
1003.009	35.07964
1003.378	41.10125
1003.747	60.13424
1004.116	25.05742
1004.485	-8.0185
1004.853	-13.03154
1005.222	-20.04811
1005.591	34.07713
1005.959	9.01962
1006.328	48.10353
1006.696	6.01391
1007.064	20.04807
1007.433	23.05495
1007.801	16.03717
1008.169	14.03379
1008.537	77.16105
1008.905	20.04517
1009.273	0
1009.64	69.1593
1010.008	10.02293
1010.375	61.13864
1010.743	17.03641
1011.11	70.16125
1011.478	53.12678
1011.845	48.10717
1012.212	72.15676
1012.579	29.06868
1012.946	38.08554
1013.313	62.13928
1013.68	61.12939
1014.047	-19.0439
1014.414	18.04082
1014.78	32.07694
1015.147	36.0824
1015.513	21.04871
1015.88	34.08311
1016.246	18.04224
1016.612	61.13148
1016.978	62.14635
1017.344	73.17269
1017.71	38.08824
1018.076	66.14638
1018.442	89.21946
1018.808	31.07546
1019.174	9.02169
1019.539	-20.04247
1019.905	94.21135
1020.27	-18.04305
1020.636	6.01367
1021.001	51.11723
1021.366	42.09722
1021.731	63.15786
1022.096	-8.01981
1022.461	30.06836
1022.826	77.17564
1023.191	48.12146
1023.556	38.0847
1023.92	28.06553
1024.285	-7.01634
1024.649	43.10034
1025.014	18.04244
1025.378	53.12881
1025.742	-19.0454
1026.107	25.05391
1026.471	36.07981
1026.835	39.0929
1027.199	27.06266
1027.562	20.0441
1027.926	11.02577
1028.29	3.00736
1028.654	17.03735
1029.017	54.12752
1029.381	27.06224
1029.744	22.05426
1030.107	45.10178
1030.471	50.11523
1030.834	6.01289
1031.197	58.13318
1031.56	15.03383
1031.923	43.10736
1032.286	30.06751
1032.648	29.06551
1033.011	65.14419
1033.374	0
1033.736	2.00512
1034.099	-23.05451
1034.461	38.09327
1034.823	28.06753
1035.185	-11.0266
1035.548	21.04948
1035.91	8.01843
1036.272	73.15857
1036.634	28.06581
1036.995	44.09795
1037.357	27.06357
1037.719	28.06561
1038.08	90.20451
1038.442	11.02509
1038.803	-10.02282
1039.165	-12.02925
1039.526	59.13632
1039.887	63.14353
1040.248	32.07729
1040.609	73.16994
1040.97	36.08415
1041.331	66.16128
1041.692	56.12725
1042.053	25.0541
1042.413	60.13208
1042.774	37.08658
1043.134	33.07418
1043.495	23.05573
1043.855	71.1662
1044.215	-7.01673
1044.576	22.051
1044.936	76.16392
1045.296	60.14322
1045.656	-30.07073
1046.016	28.06448
1046.375	28.06527
1046.735	64.1407
1047.095	37.08293
1047.454	40.07934
1047.814	39.08997
1048.173	59.13219
1048.533	6.01322
1048.892	21.04875
1049.251	-6.01448
1049.61	60.14147
1049.969	49.10988
1050.328	66.13526
1050.687	26.06037
1051.046	26.06059
1051.405	-12.02864
1051.763	70.1548
1052.122	39.09329
1052.48	65.15275
1052.839	80.18201
1053.197	4.00906
1053.555	45.09533
1053.914	-5.01179
1054.272	40.09041
1054.63	54.12673
1054.988	18.04158
1055.345	1.00203
1055.703	41.09473
1056.061	55.13766
1056.419	48.12172
1056.776	19.0435
1057.134	-44.09706
1057.491	39.09393
1057.848	22.05241
1058.206	23.05098
1058.563	1.00211
1058.92	28.06143
1059.277	74.174
1059.634	26.05771
1059.991	75.17136
1060.348	1.00219
1060.704	89.20637
1061.061	36.07821
1061.418	-47.11135
1061.774	60.14169
1062.131	31.0806
1062.487	-4.00896
1062.843	46.10993
1063.199	7.01684
1063.555	53.11831
1063.911	11.02666
1064.267	42.08144
1064.623	75.17577
1064.979	-32.07065
1065.335	20.04547
1065.691	26.05882
1066.046	-2.00421
1066.402	-10.02174
1066.757	46.11161
1067.112	51.11915
1067.468	11.0254
1067.823	5.01133
1068.178	35.08055
1068.533	53.12275
1068.888	23.05244
1069.243	54.12762
1069.598	-11.02568
1069.952	51.11205
1070.307	17.04084
1070.662	75.17177
1071.016	99.21238
1071.371	35.07654
1071.725	27.06132
1072.079	58.1335
1072.434	-29.06879
1072.788	-10.02267
1073.142	72.1691
1073.496	2.00456
1073.85	83.18167
1074.203	47.10929
1074.557	52.13508
1074.911	51.11521
1075.265	32.07109
1075.618	36.08445
1075.971	11.02514
1076.325	33.08152
1076.678	-18.03982
1077.031	-24.05128
1077.385	61.12657
1077.738	37.07941
1078.091	12.02648
1078.444	9.0198
1078.796	44.10427
1079.149	50.11949
1079.502	40.09119
1079.855	37.08266
1080.207	56.13137
1080.56	40.10035
1080.912	30.06996
1081.264	72.16586
1081.617	49.11483
1081.969	17.04172
1082.321	-7.01647
1082.673	55.12165
1083.025	34.0767
1083.377	292.6214
1083.728	1.00223
1084.08	-47.11371
1084.432	-23.05354
1084.783	-1.00221
1085.135	54.13043
1085.486	56.12281
1085.838	59.13951
1086.189	52.12194
1086.54	52.11792
1086.891	49.12154
1087.242	86.20293
1087.593	63.14377
1087.944	69.14962
1088.295	37.07996
1088.646	75.1768
1088.996	-3.00704
1089.347	-53.1261
1089.698	16.03684
1090.048	21.05237
1090.398	14.03092
1090.749	-34.0782
1091.099	38.09324
1091.449	48.11524
1091.799	54.12949
1092.149	30.0715
1092.499	22.05167
1092.849	43.10533
1093.199	41.0977
1093.548	53.12324
1093.898	15.03606
1094.248	-18.04451
1094.597	33.08242
1094.947	33.08539
1095.296	0
1095.645	41.10225
1095.994	16.03698
1096.343	10.02444
1096.692	25.06473
1097.041	55.14628
1097.39	15.03609
1097.739	24.06026
1098.088	41.10528
1098.437	8.02074
1098.785	21.05443
1099.134	16.04046
1099.482	42.11235
1099.83	36.09142
1100.179	47.12064
1100.527	-23.05894
1100.875	11.02848
1101.223	8.0208
1101.571	2.00537
1101.919	28.07254
1102.267	15.04158
1102.615	2.00642
1102.962	-8.02569
1103.31	-3.00964
1103.658	-15.04818
