Data from N1R0 150C sample 3_Subt2__1__14-47-03-039.txt Node

Date: Tue Sep 16 14:47:03 PDT 2025
User: uwsun
Spectrometer: HDX01956
Trigger mode: 0
Integration Time (sec): 5.000000E-1
Scans to average: 1
Nonlinearity correction enabled: true
Boxcar width: 0
Storing dark spectrum: false
XAxis mode: Wavelengths
Number of Pixels in Spectrum: 2068
>>>>>Begin Spectral Data<<<<<
194.03	28.08096
194.578	36.11656
195.127	35.11175
195.676	30.09618
196.225	34.09029
196.773	30.08345
197.321	44.12236
197.87	126.32303
198.418	126.3254
198.966	147.38677
199.513	174.43997
200.061	129.32857
200.609	149.3923
201.156	131.28782
201.704	87.22113
202.251	139.36942
202.798	91.23782
203.345	181.44548
203.892	128.32447
204.438	131.31156
204.985	125.29832
205.532	117.30878
206.078	161.39187
206.624	201.4998
207.17	237.54669
207.716	143.35131
208.262	153.30354
208.808	165.41357
209.354	165.40715
209.899	132.33283
210.445	132.33128
210.99	135.33055
211.535	108.25681
212.08	163.37735
212.625	143.35714
213.17	185.4682
213.715	134.30757
214.259	158.36846
214.804	148.36231
215.348	163.37616
215.892	163.3948
216.436	102.23469
216.98	123.27115
217.524	127.30495
218.068	160.40256
218.612	175.44258
219.155	112.26643
219.698	143.33997
220.242	145.35675
220.785	121.28534
221.328	120.29693
221.871	171.43277
222.414	143.35235
222.956	75.18105
223.499	101.22629
224.041	105.24067
224.583	82.17436
225.126	134.29323
225.668	113.27484
226.21	113.2865
226.751	170.37547
227.293	85.1935
227.835	158.38449
228.376	93.2124
228.918	123.30552
229.459	117.29189
230	166.39533
230.541	166.37796
231.082	143.34663
231.622	72.1642
232.163	101.24409
232.704	158.39267
233.244	143.35287
233.784	92.22364
234.324	175.38998
234.864	133.29934
235.404	98.23124
235.944	126.29581
236.484	159.3935
237.023	106.25012
237.563	188.43117
238.102	171.39995
238.641	95.23924
239.18	96.22634
239.719	145.36069
240.258	142.3173
240.797	157.3721
241.335	95.23158
241.874	145.28148
242.412	160.38586
242.95	138.33243
243.488	124.27777
244.026	175.40288
244.564	117.24124
245.102	170.38174
245.64	100.23916
246.177	127.28138
246.715	198.46827
247.252	82.18724
247.789	226.40828
248.326	137.32908
248.863	124.27296
249.4	139.31374
249.936	215.4421
250.473	164.38471
251.009	131.29906
251.546	162.3593
252.082	64.13976
252.618	130.29037
253.154	156.3728
253.69	126.28213
254.226	179.42375
254.761	134.29992
255.297	113.24712
255.832	121.28778
256.367	153.35701
256.903	190.417
257.438	158.3673
257.972	154.34056
258.507	128.29298
259.042	131.28455
259.576	190.41542
260.111	134.30659
260.645	135.29086
261.179	146.34048
261.713	181.40068
262.247	113.25818
262.781	98.20801
263.315	139.33541
263.849	112.28068
264.382	153.349
264.915	167.39198
265.449	113.27607
265.982	179.40187
266.515	186.45059
267.048	171.35908
267.58	151.32352
268.113	99.21532
268.646	102.25008
269.178	125.27914
269.71	223.48376
270.243	187.42827
270.775	166.42258
271.307	139.32881
271.838	165.38592
272.37	156.37934
272.902	131.29604
273.433	177.38872
273.965	163.39258
274.496	155.38121
275.027	194.4765
275.558	161.39025
276.089	143.35598
276.62	106.26746
277.15	131.32112
277.681	148.31675
278.211	183.44057
278.741	141.31253
279.272	160.36386
279.802	140.34667
280.332	160.37533
280.861	112.26806
281.391	157.35465
281.921	135.32157
282.45	149.36713
282.98	130.33793
283.509	211.47254
284.038	200.45132
284.567	157.36361
285.096	159.38338
285.625	110.24823
286.153	173.41018
286.682	183.41625
287.21	143.33892
287.739	189.44101
288.267	148.35908
288.795	165.42721
289.323	123.28938
289.851	195.45322
290.378	125.27879
290.906	181.43873
291.433	171.42257
291.961	177.40113
292.488	168.4131
293.015	178.41673
293.542	229.57851
294.069	194.47527
294.596	130.31719
295.122	204.48283
295.649	180.3899
296.175	167.3987
296.702	231.55465
297.228	187.44491
297.754	170.37986
298.28	213.48311
298.806	196.46659
299.332	171.3806
299.857	206.46201
300.383	168.41919
300.908	156.38218
301.433	246.59077
301.958	165.37607
302.483	158.38938
303.008	227.55517
303.533	167.42746
304.058	191.44007
304.582	207.48263
305.107	158.40888
305.631	237.52661
306.155	195.44946
306.679	217.50296
307.203	216.49419
307.727	186.43683
308.251	193.47115
308.775	276.65499
309.298	237.56104
309.822	176.43851
310.345	250.58551
310.868	247.58403
311.391	242.58447
311.914	216.53347
312.437	222.49994
312.96	203.47293
313.482	205.47571
314.005	202.4978
314.527	138.35811
315.049	200.50066
315.571	252.5561
316.093	233.5673
316.615	173.41255
317.137	251.53613
317.659	241.57293
318.18	208.48925
318.702	277.63335
319.223	222.4461
319.744	237.52486
320.265	255.609
320.786	312.75634
321.307	219.53342
321.828	254.56168
322.348	239.55306
322.869	295.68398
323.389	582.03188
323.909	270.60254
324.43	299.69381
324.95	271.6064
325.47	293.70776
325.989	302.69647
326.509	287.62709
327.029	301.6688
327.548	293.64643
328.067	285.67517
328.587	315.76691
329.106	282.61969
329.625	325.81891
330.144	310.70037
330.662	329.74798
331.181	323.7388
331.7	274.62258
332.218	341.71383
332.736	350.78976
333.255	357.80966
333.773	305.70016
334.291	414.98729
334.808	323.70604
335.326	390.83679
335.844	363.82226
336.361	404.99542
336.879	383.86473
337.396	405.94267
337.913	374.83011
338.43	396.85332
338.947	418.95123
339.464	373.77252
339.981	359.82014
340.497	419.98101
341.014	388.90649
341.53	413.88709
342.046	479.12673
342.562	416.98863
343.078	442.9863
343.594	385.87775
344.11	468.05604
344.626	433.03807
345.141	434.94281
345.657	478.01526
346.172	489.10733
346.687	508.08707
347.202	499.06662
347.717	494.10392
348.232	492.1504
348.747	476.03383
349.261	487.00225
349.776	519.15153
350.29	501.17719
350.805	485.12625
351.319	541.16604
351.833	532.139
352.347	501.10784
352.861	545.18673
353.374	519.09843
353.888	585.31914
354.401	505.07341
354.915	511.07864
355.428	565.30454
355.941	536.15944
356.454	519.07399
356.967	517.12376
357.48	522.1007
357.993	587.32958
358.505	537.21373
359.018	595.34117
359.53	637.41897
360.042	569.17449
360.554	653.45405
361.066	588.31646
361.578	636.2757
362.09	606.32114
362.602	597.21969
363.113	642.37487
363.625	624.29136
364.136	673.32858
364.647	658.41524
365.158	669.40654
365.669	616.34523
366.18	637.36386
366.691	657.29816
367.201	685.48
367.712	731.4905
368.222	646.35067
368.733	674.31718
369.243	749.483
369.753	750.5324
370.263	748.609
370.773	695.5221
371.282	770.6287
371.792	822.66376
372.301	776.65713
372.811	775.8117
373.32	884.63625
373.829	816.68246
374.338	812.57233
374.847	869.73135
375.356	862.75911
375.865	933.68811
376.373	963.84613
376.882	995.13475
377.39	1043.09512
377.898	1021.10434
378.407	1145.09449
378.915	1123.98036
379.423	1165.17816
379.93	1269.31285
380.438	1224.34319
380.946	1374.44042
381.453	1400.56593
381.96	1437.59405
382.468	1541.65673
382.975	1650.91532
383.482	1678.61607
383.989	1719.17468
384.495	1780.85018
385.002	1895.53894
385.509	1963.07709
386.015	2198.56858
386.521	2296.04332
387.028	2262.01819
387.534	2330.77299
388.04	2522.39534
388.546	2388.92581
389.051	2636.95531
389.557	2836.22363
390.063	3028.07819
390.568	3214.42424
391.073	3310.93034
391.578	3461.48042
392.084	3613.98049
392.589	3599.68138
393.093	3913.18743
393.598	4365.69739
394.103	4701.75228
394.607	5171.57381
395.112	5504.54806
395.616	5850.2906
396.12	6273.74352
396.624	6949.84848
397.128	7594.11276
397.632	8359.59434
398.136	9090.62451
398.639	9670.89094
399.143	10719.98339
399.646	12111.57612
400.15	13550.26803
400.653	14914.20818
401.156	16834.82783
401.659	19642.03984
402.162	23973.57292
402.664	31557.49903
403.167	43888.97836
403.67	61113.60383
404.172	63919.58413
404.674	63858.43483
405.176	63738.15102
405.678	63977.72923
406.18	64011.81569
406.682	63863.44694
407.184	63926.60148
407.686	63841.39382
408.187	64025.8516
408.688	63892.51763
409.19	56534.76787
409.691	45297.46566
410.192	37938.25151
410.693	33149.504
411.194	29912.16398
411.694	28338.13729
412.195	26003.86248
412.696	23494.34077
413.196	21992.59597
413.696	21445.12706
414.196	21361.15195
414.696	21030.22299
415.196	19938.38962
415.696	17976.9778
416.196	14829.02225
416.695	11416.05922
417.195	9778.15644
417.694	9247.9051
418.194	8698.83097
418.693	8277.4121
419.192	7760.09513
419.691	7674.98458
420.19	7543.07797
420.688	7336.12081
421.187	7073.19103
421.685	6573.77969
422.184	6035.01616
422.682	5214.87043
423.18	4481.62635
423.678	4010.82012
424.176	3661.95033
424.674	3464.85746
425.172	3362.21174
425.669	3087.50854
426.167	2899.18341
426.664	2685.05036
427.161	2521.09097
427.659	2261.26872
428.156	2136.63823
428.652	1967.26935
429.149	1940.07936
429.646	1848.67307
430.143	1752.87715
430.639	1694.78256
431.135	1570.8602
431.632	1466.44234
432.128	1393.51811
432.624	1343.6877
433.12	1233.17716
433.616	1217.05564
434.111	1152.17755
434.607	1117.14864
435.103	1119.83349
435.598	1072.76542
436.093	1038.96866
436.588	1054.91291
437.083	921.71801
437.578	945.82027
438.073	913.93768
438.568	883.8496
439.062	843.51951
439.557	783.58004
440.051	725.41868
440.546	730.44364
441.04	705.49077
441.534	705.56993
442.028	698.48271
442.522	643.37613
443.015	633.1998
443.509	681.4657
444.002	658.43221
444.496	595.15182
444.989	631.36786
445.482	643.42112
445.975	653.33729
446.468	581.12628
446.961	642.23082
447.454	535.08738
447.947	608.30085
448.439	611.34527
448.931	600.23276
449.424	551.27722
449.916	562.24217
450.408	566.16593
450.9	552.21597
451.392	508.18369
451.884	532.10905
452.375	497.12912
452.867	467.96588
453.358	497.04032
453.849	464.91132
454.341	486.00401
454.832	459.91192
455.323	514.17134
455.814	459.96804
456.304	465.99144
456.795	445.93975
457.285	440.89476
457.776	423.89525
458.266	437.96204
458.756	391.86441
459.247	432.95961
459.737	465.03666
460.226	478.99992
460.716	371.83388
461.206	413.92065
461.695	357.83229
462.185	436.95964
462.674	423.89721
463.163	477.98038
463.653	386.7667
464.142	362.82616
464.63	336.77023
465.119	311.68728
465.608	391.85646
466.096	308.63433
466.585	348.74862
467.073	306.68626
467.561	305.69595
468.05	334.72622
468.538	319.73933
469.026	293.6621
469.513	339.67288
470.001	356.76879
470.489	282.6405
470.976	386.8432
471.463	327.77135
471.951	327.76956
472.438	303.67632
472.925	278.62552
473.412	271.62909
473.899	288.62941
474.385	264.6195
474.872	223.50229
475.359	268.63134
475.845	240.47782
476.331	218.44837
476.817	240.56231
477.303	250.55815
477.789	229.52593
478.275	211.50701
478.761	204.46936
479.247	208.4492
479.732	199.48199
480.218	260.65458
480.703	207.494
481.188	201.42207
481.673	212.47175
482.158	244.50683
482.643	225.55539
483.128	258.57719
483.612	271.61813
484.097	163.38393
484.581	161.36428
485.066	226.53469
485.55	217.46411
486.034	192.40451
486.518	239.55131
487.002	131.313
487.486	155.36807
487.969	169.4007
488.453	132.32267
488.936	132.2924
489.42	183.39411
489.903	134.32743
490.386	75.15457
490.869	188.40079
491.352	128.30285
491.835	147.29491
492.318	139.30681
492.8	143.29087
493.283	168.41874
493.765	140.33687
494.247	153.34872
494.73	159.34434
495.212	139.32333
495.694	151.34888
496.175	135.31897
496.657	148.34351
497.139	145.24383
497.62	133.31461
498.102	148.36124
498.583	58.14189
499.064	161.35105
499.545	109.24552
500.026	152.33712
500.507	68.15596
500.988	160.39125
501.469	79.19537
501.949	113.27525
502.43	126.29915
502.91	176.36428
503.39	81.19922
503.87	160.37019
504.35	86.19961
504.83	90.19537
505.31	62.1489
505.79	100.23385
506.269	36.08283
506.749	57.13007
507.228	106.24681
507.707	137.30062
508.187	130.30579
508.666	145.35266
509.145	64.14925
509.623	106.24545
510.102	103.24648
510.581	144.34109
511.059	106.26383
511.538	72.18453
512.016	115.27214
512.494	100.23788
512.972	104.24644
513.45	80.18561
513.928	74.17907
514.406	71.1734
514.884	44.11344
515.361	94.22309
515.839	130.29504
516.316	93.22424
516.793	93.23269
517.27	66.15821
517.747	73.1864
518.224	32.07404
518.701	88.19322
519.178	112.27703
519.654	98.22998
520.131	67.16539
520.607	75.18228
521.083	58.13131
521.56	19.04507
522.036	66.14345
522.512	79.19401
522.987	121.28778
523.463	75.177
523.939	99.24358
524.414	89.20228
524.89	91.2156
525.365	105.23487
525.84	82.19604
526.315	64.1547
526.79	100.22364
527.265	117.26721
527.74	93.22391
528.215	61.14206
528.689	4.00887
529.164	20.04325
529.638	76.19156
530.112	63.14788
530.587	36.07748
531.061	41.09946
531.534	62.14913
532.008	63.15294
532.482	88.20102
532.956	49.12494
533.429	107.25927
533.903	50.10979
534.376	72.15876
534.849	83.18979
535.322	48.11339
535.795	64.15417
536.268	80.19272
536.741	30.07153
537.213	57.13102
537.686	55.13452
538.158	91.20573
538.631	56.13557
539.103	57.12887
539.575	14.02915
540.047	77.16733
540.519	93.22059
540.991	93.22509
541.463	16.03876
541.934	62.14003
542.406	78.18669
542.877	52.11759
543.348	50.1209
543.82	43.10478
544.291	104.24072
544.762	35.08372
545.233	85.21429
545.703	36.08061
546.174	53.12314
546.645	58.14041
547.115	29.07043
547.585	50.11532
548.056	133.32287
548.526	77.18243
548.996	34.08172
549.466	58.14104
549.935	47.11273
550.405	38.08411
550.875	59.14032
551.344	87.20652
551.814	84.19196
552.283	84.18304
552.752	82.19183
553.221	81.17879
553.69	131.2929
554.159	113.27894
554.628	98.22133
555.096	65.16533
555.565	67.14844
556.033	131.30892
556.502	74.17833
556.97	94.20848
557.438	45.10616
557.906	91.21385
558.374	61.14184
558.842	48.11546
559.31	79.17678
559.777	59.14447
560.245	3.00698
560.712	-9.02094
561.18	18.04034
561.647	30.06715
562.114	51.11741
562.581	44.10868
563.048	65.14911
563.514	98.24445
563.981	36.08306
564.448	24.0548
564.914	1.00235
565.381	31.07146
565.847	53.12382
566.313	34.07942
566.779	49.11083
567.245	-33.07794
567.711	14.03384
568.176	10.02273
568.642	18.04566
569.108	-3.00746
569.573	-27.06365
570.038	37.07807
570.504	52.11802
570.969	13.03248
571.434	-6.01355
571.899	-2.0048
572.363	50.11518
572.828	64.14737
573.293	26.06013
573.757	47.10963
574.222	10.02271
574.686	47.10868
575.15	14.03404
575.614	105.24636
576.078	24.05683
576.542	19.04378
577.006	17.03887
577.469	28.06928
577.933	36.0827
578.396	-14.03371
578.86	58.1368
579.323	35.08487
579.786	49.10702
580.249	87.20445
580.712	22.0539
581.175	-6.01497
581.637	-5.01158
582.1	19.04192
582.563	1.00216
583.025	28.0686
583.487	80.16491
583.95	-23.05038
584.412	31.06587
584.874	12.02955
585.336	11.02638
585.797	-20.04443
586.259	3.00711
586.721	11.0261
587.182	23.05352
587.643	25.05737
588.105	30.07139
588.566	12.02542
589.027	50.12282
589.488	76.17438
589.949	81.19612
590.41	46.09205
590.87	69.15816
591.331	56.12306
591.791	7.01642
592.252	38.08914
592.712	42.1011
593.172	34.07801
593.632	57.12734
594.092	30.06751
594.552	80.17336
595.011	-10.02328
595.471	67.15222
595.931	62.14043
596.39	39.09415
596.849	45.10534
597.308	8.01731
597.768	78.20053
598.227	61.1467
598.685	51.11676
599.144	60.14174
599.603	36.08472
600.062	14.02995
600.52	65.14719
600.978	11.02627
601.437	70.15926
601.895	88.18834
602.353	36.07975
602.811	131.29218
603.269	51.12162
603.727	59.14178
604.184	80.18208
604.642	84.20557
605.099	99.22992
605.557	93.22475
606.014	87.18704
606.471	109.27095
606.928	97.21473
607.385	135.33349
607.842	59.13562
608.299	156.35821
608.755	129.30846
609.212	132.29093
609.668	160.35456
610.125	153.3622
610.581	180.41232
611.037	140.30908
611.493	134.30831
611.949	188.44703
612.405	171.34116
612.861	124.28165
613.316	168.39409
613.772	181.40486
614.227	188.44083
614.683	191.39417
615.138	188.42978
615.593	161.36621
616.048	149.33493
616.503	146.34824
616.958	194.47315
617.412	189.43737
617.867	170.37217
618.321	228.45372
618.776	197.42171
619.23	127.29332
619.684	223.48066
620.138	206.45707
620.592	164.38922
621.046	237.54015
621.5	202.47199
621.954	154.33358
622.407	184.39601
622.861	158.37556
623.314	176.38839
623.768	206.47188
624.221	153.29475
624.674	132.30007
625.127	142.3241
625.58	134.29571
626.033	140.3004
626.485	125.29443
626.938	189.43772
627.39	181.4122
627.843	152.34315
628.295	126.28596
628.747	194.44938
629.199	106.23852
629.651	133.2997
630.103	153.3435
630.555	118.245
631.006	91.20959
631.458	97.22581
631.909	119.26244
632.361	102.23253
632.812	72.16573
633.263	133.28348
633.714	77.16198
634.165	87.2066
634.616	76.17835
635.067	113.24524
635.518	121.28224
635.968	108.20921
636.419	153.32667
636.869	115.26824
637.319	114.26072
637.769	94.20918
638.219	108.25127
638.669	56.1326
639.119	27.06468
639.569	65.15501
640.019	99.22601
640.468	79.17576
640.918	90.21113
641.367	64.1426
641.816	60.13285
642.265	105.24183
642.714	62.14151
643.163	101.23067
643.612	70.17048
644.061	83.17614
644.51	87.19765
644.958	86.18828
645.406	71.16854
645.855	36.08735
646.303	99.22601
646.751	95.21749
647.199	87.19533
647.647	77.17748
648.095	54.12276
648.543	65.13131
648.99	67.16002
649.438	60.13811
649.885	100.24626
650.333	75.14476
650.78	77.18461
651.227	104.25119
651.674	53.12065
652.121	93.22569
652.568	63.15352
653.015	33.08158
653.461	53.12557
653.908	54.12355
654.354	80.18877
654.801	62.14465
655.247	79.16962
655.693	39.10116
656.139	66.15646
656.585	50.11899
657.031	33.07761
657.477	92.19894
657.922	47.10656
658.368	72.17548
658.813	39.08857
659.259	53.12799
659.704	113.26389
660.149	47.10808
660.594	64.15096
661.039	63.14278
661.484	68.15989
661.929	71.16463
662.373	23.05773
662.818	27.06675
663.262	71.17036
663.707	79.19902
664.151	30.07309
664.595	43.10372
665.039	76.18682
665.483	44.1115
665.927	75.17439
666.371	32.0753
666.814	68.16027
667.258	98.23312
667.701	86.18135
668.145	59.14586
668.588	77.18896
669.031	58.13563
669.474	37.08857
669.917	28.0614
670.36	76.18785
670.803	91.21718
671.245	40.08171
671.688	72.17358
672.13	77.17259
672.573	58.14541
673.015	25.06028
673.457	74.15961
673.899	107.25468
674.341	38.09126
674.783	63.14984
675.225	91.22108
675.666	80.19374
676.108	19.04117
676.549	21.04893
676.991	32.07017
677.432	67.13193
677.873	36.08197
678.314	38.09012
678.755	95.23097
679.196	55.1249
679.637	-17.04094
680.078	50.1161
680.518	49.11182
680.959	44.10419
681.399	62.15207
681.839	89.21298
682.28	71.17462
682.72	36.08204
683.16	55.13617
683.6	115.25649
684.039	40.08227
684.479	19.04687
684.919	74.17224
685.358	36.08915
685.798	33.08548
686.237	30.07128
686.676	-2.00454
687.115	69.16082
687.554	63.14932
687.993	49.10766
688.432	46.10427
688.871	62.14083
689.309	101.23809
689.748	102.20818
690.186	47.10907
690.625	46.10732
691.063	52.12299
691.501	88.21431
691.939	122.30077
692.377	-5.01214
692.815	100.24035
693.253	60.14125
693.69	61.13211
694.128	40.09647
694.565	62.14522
695.003	72.18168
695.44	106.24623
695.877	55.12819
696.314	27.0566
696.751	39.08774
697.188	75.17149
697.625	32.07115
698.061	42.09976
698.498	34.07979
698.934	65.15334
699.371	71.16483
699.807	86.19953
700.243	65.15483
700.679	39.08623
701.115	70.16093
701.551	33.0761
701.987	25.05428
702.422	103.24091
702.858	69.16234
703.294	101.22694
703.729	64.15353
704.164	21.04985
704.599	79.17357
705.035	53.11757
705.47	50.12004
705.904	79.17984
706.339	69.156
706.774	76.17507
707.209	75.17184
707.643	64.15096
708.078	78.18647
708.512	57.14112
708.946	42.09841
709.38	63.14759
709.814	61.13605
710.248	112.26765
710.682	70.16562
711.116	86.20576
711.549	55.13851
711.983	44.10051
712.416	115.26634
712.85	30.07361
713.283	99.22856
713.716	57.13921
714.149	50.11422
714.582	137.29847
715.015	77.18531
715.448	103.2537
715.881	99.20725
716.313	88.20126
716.746	76.17668
717.178	60.14213
717.61	112.27805
718.043	77.18651
718.475	87.20684
718.907	88.21503
719.339	57.12734
719.77	134.31164
720.202	70.17213
720.634	89.21403
721.065	88.2028
721.497	95.22733
721.928	27.0653
722.359	65.15572
722.79	87.20389
723.221	31.07605
723.652	78.19421
724.083	116.25331
724.514	103.23058
724.945	76.17431
725.375	87.19901
725.806	112.26847
726.236	139.34413
726.666	82.18905
727.096	60.14415
727.526	120.30106
727.956	112.24902
728.386	85.20364
728.816	123.3063
729.246	104.25044
729.675	44.10567
730.105	111.26379
730.534	121.27322
730.964	54.1323
731.393	142.33584
731.822	118.29316
732.251	117.2886
732.68	64.14502
733.109	106.25457
733.537	127.30147
733.966	135.32674
734.395	125.27983
734.823	91.19564
735.251	82.19236
735.68	98.23509
736.108	73.17841
736.536	109.24753
736.964	119.26695
737.392	103.25033
737.82	98.22737
738.247	135.3103
738.675	149.33644
739.102	41.10062
739.53	104.26082
739.957	126.31668
740.384	88.20619
740.811	22.05396
741.238	131.3112
741.665	178.40118
742.092	70.15693
742.519	100.2419
742.945	174.40625
743.372	106.25631
743.798	128.31719
744.225	78.1799
744.651	128.30963
745.077	130.3134
745.503	119.27779
745.929	130.30484
746.355	131.30736
746.781	81.19391
747.207	123.28306
747.632	137.32933
748.058	135.32945
748.483	163.35888
748.908	128.30869
749.334	197.46401
749.759	126.29072
750.184	135.31464
750.609	113.26813
751.033	117.26354
751.458	158.33669
751.883	88.21062
752.307	123.27978
752.732	129.31996
753.156	103.2461
753.58	113.25745
754.005	78.19074
754.429	140.32031
754.853	121.29209
755.277	135.30943
755.7	163.38841
756.124	120.28896
756.548	76.17494
756.971	141.33134
757.394	98.24338
757.818	117.29284
758.241	97.23998
758.664	102.25026
759.087	94.20614
759.51	108.2579
759.933	119.27888
760.356	137.34203
760.778	105.2503
761.201	84.19721
761.623	78.18033
762.046	65.14785
762.468	163.37301
762.89	75.17803
763.312	121.28656
763.734	109.25465
764.156	139.33071
764.578	107.23519
765	126.29627
765.421	103.25566
765.843	124.31389
766.264	125.28456
766.686	122.29177
767.107	101.23716
767.528	115.2868
767.949	115.28221
768.37	107.25742
768.791	119.27473
769.212	86.21124
769.632	88.20045
770.053	80.20352
770.473	103.23987
770.894	48.11524
771.314	100.2276
771.734	110.24722
772.154	66.16409
772.575	101.22443
772.994	93.20339
773.414	147.33396
773.834	69.16719
774.254	93.21965
774.673	148.34786
775.093	133.31923
775.512	78.18747
775.931	106.26037
776.351	118.28447
776.77	109.25904
777.189	109.24984
777.607	76.18882
778.026	97.23407
778.445	117.28733
778.864	49.12109
779.282	71.16405
779.701	78.18996
780.119	69.17046
780.537	80.19308
780.955	71.17424
781.373	55.13232
781.791	96.21088
782.209	27.0594
782.627	56.14407
783.045	42.09292
783.462	68.16894
783.88	83.20894
784.297	69.16883
784.715	44.11106
785.132	32.07519
785.549	34.08302
785.966	72.17594
786.383	111.26471
786.8	106.23637
787.217	124.28508
787.633	124.30097
788.05	110.24498
788.466	75.16839
788.883	76.19005
789.299	40.09244
789.715	103.24233
790.131	84.20212
790.547	75.18098
790.963	79.18933
791.379	66.16218
791.795	93.20141
792.21	99.22071
792.626	31.071
793.041	74.1763
793.457	74.17563
793.872	61.13746
794.287	109.25435
794.702	37.08719
795.117	91.21942
795.532	75.18371
795.947	63.14435
796.362	56.12648
796.776	79.17423
797.191	108.25454
797.605	38.08803
798.02	41.09684
798.434	113.23991
798.848	85.20511
799.262	17.04124
799.676	80.18818
800.09	69.16398
800.504	39.09144
800.918	26.05795
801.331	15.03752
801.745	18.03999
802.158	23.05552
802.572	83.19375
802.985	27.06281
803.398	72.16487
803.811	-17.04198
804.224	49.11654
804.637	33.07676
805.05	55.12196
805.462	48.11352
805.875	47.11895
806.288	80.1873
806.7	33.07975
807.112	21.04684
807.525	-1.00237
807.937	36.08676
808.349	33.07972
808.761	80.19038
809.173	63.14816
809.584	78.18441
809.996	-8.01915
810.408	43.10926
810.819	56.12741
811.231	74.19204
811.642	92.22036
812.053	93.21838
812.464	71.16183
812.875	42.10488
813.286	60.15113
813.697	54.11832
814.108	34.0801
814.519	106.22725
814.929	78.19102
815.34	-16.03756
815.75	58.14404
816.16	17.04067
816.571	20.05045
816.981	12.02718
817.391	27.06258
817.801	74.17793
818.211	50.11468
818.62	40.0938
819.03	55.1297
819.44	-5.01254
819.849	-4.00973
820.259	-2.00494
820.668	48.11475
821.077	48.11659
821.486	-25.05813
821.895	16.03781
822.304	37.09508
822.713	19.04338
823.122	43.10361
823.531	-3.00682
823.939	40.09479
824.348	43.1003
824.756	16.03873
825.164	36.08728
825.573	-6.01472
825.981	45.10715
826.389	57.13786
826.797	40.09891
827.205	47.10483
827.612	22.05235
828.02	-23.05249
828.428	13.03219
828.835	61.15653
829.243	31.07086
829.65	24.05845
830.057	47.10941
830.464	82.19424
830.871	63.14568
831.278	25.05859
831.685	73.15478
832.092	43.10054
832.499	45.09512
832.905	40.09727
833.312	-26.05668
833.718	59.1428
834.124	41.0905
834.531	-5.01216
834.937	62.15409
835.343	70.16048
835.749	14.03115
836.155	10.02553
836.561	29.06918
836.966	18.04249
837.372	66.16086
837.777	15.03646
838.183	29.0617
838.588	53.12784
838.993	63.14753
839.399	62.14658
839.804	1.00238
840.209	91.22513
840.613	53.11272
841.018	15.03669
841.423	77.19015
841.828	39.09599
842.232	31.07288
842.637	70.16016
843.041	11.0276
843.445	12.02901
843.849	-10.02426
844.253	68.15427
844.657	-1.00247
845.061	98.21545
845.465	20.04683
845.869	38.08502
846.272	9.02141
846.676	7.01612
847.079	48.11899
847.483	80.19067
847.886	44.10209
848.289	0
848.692	32.07787
849.095	22.05086
849.498	45.10834
849.901	11.02417
850.304	56.12833
850.707	36.08846
851.109	42.10202
851.512	45.10699
851.914	9.02224
852.316	72.17718
852.718	50.12828
853.121	28.06643
853.523	9.02021
853.925	26.06663
854.326	20.04887
854.728	64.15923
855.13	48.12103
855.531	17.03945
855.933	1.00231
856.334	25.06094
856.736	60.12997
857.137	56.12617
857.538	41.10043
857.939	74.1782
858.34	39.09058
858.741	28.07075
859.142	45.10339
859.542	22.05688
859.943	0
860.343	18.04356
860.744	-2.00474
861.144	68.1607
861.544	2.00474
861.945	30.07393
862.345	37.08681
862.745	29.0703
863.145	-3.00682
863.544	54.132
863.944	64.14472
864.344	28.0663
864.743	64.15219
865.143	40.10035
865.542	-31.06914
865.941	63.15047
866.34	-1.00229
866.74	35.09131
867.139	52.12151
867.537	24.05856
867.936	44.10245
868.335	33.08101
868.734	44.10888
869.132	-13.02895
869.531	26.05992
869.929	31.0684
870.327	21.04866
870.726	21.05012
871.124	37.08242
871.522	26.06391
871.92	34.08097
872.318	-1.00236
872.715	3.00709
873.113	-14.03301
873.511	-2.00483
873.908	30.07464
874.306	53.12809
874.703	-19.04588
875.1	12.02934
875.497	51.1169
875.894	63.15122
876.291	32.07601
876.688	30.07508
877.085	28.0643
877.482	46.1109
877.878	87.20285
878.275	31.07644
878.671	60.12307
879.068	14.03268
879.464	35.08148
879.86	13.02973
880.256	10.0235
880.652	-3.00742
881.048	8.019
881.444	14.0317
881.84	39.09557
882.236	35.08487
882.631	49.11641
883.027	66.15228
883.422	39.09567
883.817	-5.01234
884.213	52.12872
884.608	59.14232
885.003	-11.02555
885.398	-4.00975
885.793	30.07243
886.188	-12.029
886.582	54.13205
886.977	67.15086
887.371	-3.00732
887.766	9.02187
888.16	11.02612
888.554	48.11326
888.949	71.17081
889.343	18.04226
889.737	4.0105
890.131	64.15423
890.525	62.1537
890.918	15.03655
891.312	39.08871
891.706	15.03814
892.099	73.17755
892.492	39.07983
892.886	8.01891
893.279	-28.06954
893.672	27.06704
894.065	28.06786
894.458	-5.0121
894.851	51.1191
895.244	13.0322
895.637	51.1184
896.029	66.15573
896.422	-13.03048
896.814	-4.00963
897.206	29.06759
897.599	69.16322
897.991	23.05409
898.383	50.11362
898.775	56.12239
899.167	62.1406
899.559	-23.05628
899.951	-19.0431
900.342	3.00733
900.734	38.09334
901.125	16.04046
901.517	21.04995
901.908	60.13546
902.299	-1.00238
902.69	48.10978
903.082	43.10014
903.473	30.07046
903.863	15.03688
904.254	67.15049
904.645	25.05923
905.036	58.13771
905.426	48.1034
905.817	-6.0142
906.207	-31.07114
906.597	24.05471
906.987	9.02245
907.378	48.11768
907.768	23.05925
908.158	37.08664
908.547	30.07619
908.937	11.02702
909.327	33.077
909.717	17.04107
910.106	-15.03484
910.495	-10.02398
910.885	51.12474
911.274	4.00968
911.663	30.07284
912.052	13.03065
912.441	66.1626
912.83	62.1347
913.219	28.07068
913.608	72.1695
913.997	41.10017
914.385	41.09413
914.774	36.08419
915.162	53.12265
915.55	27.06243
915.939	27.06648
916.327	1.0024
916.715	67.16679
917.103	43.09987
917.491	35.08312
917.878	29.06857
918.266	30.07494
918.654	63.15609
919.041	50.12778
919.429	-6.01372
919.816	31.07579
920.203	19.045
920.591	76.18072
920.978	33.07785
921.365	22.05624
921.752	-4.00909
922.139	23.04791
922.525	50.11578
922.912	40.09343
923.299	22.05296
923.685	-9.02266
924.072	2.00434
924.458	73.17402
924.844	45.10723
925.231	12.02667
925.617	28.06972
926.003	43.1056
926.389	34.08274
926.774	19.04642
927.16	36.08597
927.546	28.07037
927.931	32.07647
928.317	38.08323
928.702	68.1527
929.088	94.21654
929.473	43.10646
929.858	37.08786
930.243	38.08876
930.628	65.15323
931.013	24.05757
931.398	29.06283
931.783	38.09561
932.167	55.13056
932.552	27.0651
932.937	49.11609
933.321	20.04902
933.705	-16.03881
934.09	-4.0096
934.474	21.04754
934.858	41.10299
935.242	41.09076
935.626	37.09201
936.009	26.06784
936.393	79.19552
936.777	37.09214
937.16	45.11405
937.544	-9.02018
937.927	6.01487
938.311	60.13915
938.694	54.13825
939.077	40.092
939.46	-22.05133
939.843	11.02142
940.226	-1.00248
940.609	45.10028
940.991	9.02207
941.374	25.05939
941.757	1.00238
942.139	31.06711
942.522	45.1012
942.904	43.09931
943.286	22.05386
943.668	66.1663
944.05	32.07606
944.432	24.05692
944.814	-5.01182
945.196	31.0735
945.578	35.08154
945.959	-26.05855
946.341	16.03715
946.722	35.07835
947.104	-1.00232
947.485	46.10258
947.866	34.08345
948.247	56.1373
948.628	-18.04178
949.009	-2.00498
949.39	4.00958
949.771	-1.00219
950.152	19.04512
950.532	51.12427
950.913	31.07183
951.293	20.05304
951.674	20.04668
952.054	54.13122
952.434	32.07677
952.814	11.02494
953.194	-12.03018
953.574	37.08722
953.954	20.04523
954.334	30.0729
954.714	17.04026
955.093	102.23815
955.473	16.0392
955.853	30.07518
956.232	-2.00534
956.611	39.0885
956.99	35.08525
957.37	8.01963
957.749	-13.02956
958.128	39.09539
958.506	17.04287
958.885	-6.01466
959.264	27.06476
959.643	77.16775
960.021	27.0651
960.4	20.04349
960.778	35.08161
961.156	-35.08532
961.535	-7.01561
961.913	88.1968
962.291	27.06797
962.669	-5.01239
963.047	50.12363
963.424	56.13953
963.802	35.08312
964.18	11.02647
964.557	47.10287
964.935	84.18894
965.312	4.01019
965.69	3.00721
966.067	-1.00233
966.444	-22.05167
966.821	56.13913
967.198	32.07369
967.575	27.06347
967.952	39.08781
968.329	29.06847
968.705	99.20137
969.082	56.14034
969.458	55.12839
969.835	34.0796
970.211	43.10771
970.587	36.08656
970.963	-8.01977
971.339	16.04076
971.715	58.1393
972.091	60.14136
972.467	-15.0358
972.843	68.16375
973.219	43.09789
973.594	0
973.97	39.08644
974.345	47.10842
974.721	17.03904
975.096	59.13795
975.471	26.05903
975.846	-15.03469
976.221	17.04187
976.596	85.19764
976.971	67.1596
977.346	32.0708
977.72	-17.04195
978.095	8.02005
978.469	60.13612
978.844	55.13182
979.218	52.12151
979.593	40.09145
979.967	-22.05104
980.341	89.1953
980.715	32.07802
981.089	38.09151
981.463	32.07047
981.837	52.12356
982.21	22.04774
982.584	-26.06142
982.957	27.06555
983.331	6.01346
983.704	83.19725
984.078	28.06638
984.451	39.09161
984.824	-6.01428
985.197	6.01385
985.57	-14.03355
985.943	-24.05652
986.316	24.05579
986.688	71.16294
987.061	74.16576
987.434	91.23023
987.806	-13.0301
988.179	13.02943
988.551	52.12612
988.923	2.00474
989.295	23.05512
989.667	38.08869
990.039	62.14953
990.411	-42.09249
990.783	-1.00219
991.155	-18.04224
991.527	28.06496
991.898	39.09407
992.27	27.06513
992.641	50.11958
993.012	-18.03989
993.384	7.01603
993.755	41.1014
994.126	73.16914
994.497	-20.04776
994.868	25.05437
995.239	33.07661
995.61	2.00489
995.98	-13.03059
996.351	60.14355
996.722	56.12565
997.092	38.08687
997.462	46.10432
997.833	34.07654
998.203	48.10965
998.573	44.10583
998.943	40.09045
999.313	37.08573
999.683	-23.05386
1000.053	17.03663
1000.423	13.03023
1000.792	3.00746
1001.162	17.04007
1001.531	72.16996
1001.901	36.08587
1002.27	23.04813
1002.639	-2.00492
1003.009	22.05019
1003.378	20.04958
1003.747	4.00905
1004.116	28.06427
1004.485	10.02304
1004.853	18.04341
1005.222	-19.04569
1005.591	27.06134
1005.959	14.03048
1006.328	61.1312
1006.696	7.01623
1007.064	-8.01933
1007.433	28.06684
1007.801	4.00931
1008.169	-22.05346
1008.537	81.16927
1008.905	40.08997
1009.273	17.04017
1009.64	54.12504
1010.008	27.06169
1010.375	30.06861
1010.743	7.01502
1011.11	116.26476
1011.478	51.12204
1011.845	31.06946
1012.212	69.15032
1012.579	55.1296
1012.946	47.10561
1013.313	48.10814
1013.68	78.16484
1014.047	21.04813
1014.414	-9.02052
1014.78	17.04099
1015.147	41.09375
1015.513	35.08096
1015.88	60.14596
1016.246	24.05626
1016.612	34.07371
1016.978	73.17195
1017.344	61.14463
1017.71	39.09054
1018.076	2.00449
1018.442	73.18054
1018.808	86.20717
1019.174	-25.06065
1019.539	62.1293
1019.905	22.05019
1020.27	19.04512
1020.636	38.086
1021.001	97.22091
1021.366	7.01632
1021.731	82.20476
1022.096	42.10305
1022.461	68.15377
1022.826	65.14863
1023.191	49.12397
1023.556	36.08028
1023.92	35.0818
1024.285	21.04875
1024.649	18.04221
1025.014	12.02833
1025.378	41.09987
1025.742	-30.07183
1026.107	55.11784
1026.471	51.11271
1026.835	21.0502
1027.199	27.06266
1027.562	9.01989
1027.926	29.0677
1028.29	18.04407
1028.654	49.10693
1029.017	93.21795
1029.381	44.10108
1029.744	-6.01487
1030.107	41.09281
1030.471	36.0832
1030.834	-5.01076
1031.197	17.03936
1031.56	15.03383
1031.923	54.13455
1032.286	88.19566
1032.648	59.13246
1033.011	39.08698
1033.374	52.11514
1033.736	21.05357
1034.099	47.10989
1034.461	18.04434
1034.823	-3.00728
1035.185	14.0337
1035.548	58.13569
1035.91	1.00231
1036.272	33.07229
1036.634	54.12628
1036.995	12.02689
1037.357	37.08695
1037.719	39.09118
1038.08	57.13039
1038.442	18.041
1038.803	-38.08719
1039.165	2.00486
1039.526	41.09507
1039.887	21.04825
1040.248	32.07729
1040.609	15.03532
1040.97	6.01411
1041.331	38.09334
1041.692	74.16754
1042.053	-3.00653
1042.413	23.05102
1042.774	52.12132
1043.134	24.05405
1043.495	4.00973
1043.855	82.19153
1044.215	14.03332
1044.576	30.06944
1044.936	39.08479
1045.296	63.1503
1045.656	23.05367
1046.016	45.10327
1046.375	43.09994
1046.735	44.09714
1047.095	59.13165
1047.454	14.02794
1047.814	50.11509
1048.173	-9.02045
1048.533	53.11561
1048.892	1.00233
1049.251	27.06473
1049.61	35.08292
1049.969	49.10988
1050.328	55.113
1050.687	14.03259
1051.046	60.13888
1051.405	-16.03822
1051.763	40.08901
1052.122	-3.00723
1052.48	10.02375
1052.839	79.17977
1053.197	21.0474
1053.555	-12.02574
1053.914	45.10505
1054.272	-11.02512
1054.63	-2.00474
1054.988	25.05767
1055.345	24.04847
1055.703	44.1016
1056.061	81.20179
1056.419	48.12172
1056.776	-36.08333
1057.134	-19.04169
1057.491	9.0218
1057.848	7.01673
1058.206	5.01112
1058.563	38.0795
1058.92	25.05488
1059.277	44.10406
1059.634	20.04445
1059.991	95.21618
1060.348	-9.01971
1060.704	63.14684
1061.061	16.03491
1061.418	25.05841
1061.774	28.06653
1062.131	59.15266
1062.487	-14.03143
1062.843	68.16182
1063.199	52.12403
1063.555	19.04271
1063.911	8.0194
1064.267	46.08911
1064.623	4.0095
1064.979	-40.08846
1065.335	49.11073
1065.691	-41.09401
1066.046	42.08751
1066.402	-16.03482
1066.757	40.09716
1067.112	10.02355
1067.468	-3.00695
1067.823	-34.07764
1068.178	14.03235
1068.533	59.13648
1068.888	12.02742
1069.243	2.00477
1069.598	5.01164
1069.952	82.17899
1070.307	25.05996
1070.662	28.06473
1071.016	66.1426
1071.371	68.14767
1071.725	25.0568
1072.079	63.14487
1072.434	-20.04736
1072.788	15.03383
1073.142	97.2267
1073.496	23.05223
1073.85	26.05759
1074.203	22.05141
1074.557	36.09378
1074.911	44.09954
1075.265	21.04676
1075.618	63.14701
1075.971	45.10215
1076.325	65.15963
1076.678	-14.03095
1077.031	-38.08143
1077.385	53.11016
1077.738	22.04737
1078.091	-3.00664
1078.444	6.01321
1078.796	50.11835
1079.149	63.15018
1079.502	-14.03226
1079.855	30.06712
1080.207	34.0801
1080.56	21.05287
1080.912	19.04441
1081.264	59.13627
1081.617	22.05183
1081.969	33.08074
1082.321	7.01642
1082.673	18.04012
1083.025	22.04975
1083.377	6.01356
1083.728	33.07318
1084.08	14.03348
1084.432	16.03696
1084.783	8.01763
1085.135	29.07038
1085.486	23.05079
1085.838	5.01195
1086.189	51.11962
1086.54	67.15147
1086.891	53.13136
1087.242	80.18899
1087.593	26.05977
1087.944	55.11962
1088.295	30.06493
1088.646	63.14886
1088.996	31.07222
1089.347	-2.00471
1089.698	8.01845
1090.048	10.02499
1090.398	27.05947
1090.749	1.00228
1091.099	53.12968
1091.449	64.15318
1091.799	23.05548
1092.149	15.03585
1092.499	24.05634
1092.849	26.06389
1093.199	35.0835
1093.548	79.18275
1093.898	-24.05812
1094.248	-11.02716
1094.597	14.03509
1094.947	35.09053
1095.296	58.13792
1095.645	24.06004
1095.994	54.12385
1096.343	38.09237
1096.692	42.10843
1097.041	29.07746
1097.39	-9.02175
1097.739	52.1299
1098.088	35.08997
1098.437	19.04916
1098.785	-5.01302
1099.134	16.04046
1099.482	52.13887
1099.83	51.12917
1100.179	61.1562
1100.527	-9.02301
1100.875	-1.00259
1101.223	34.08802
1101.571	-29.07825
1101.919	44.11367
1102.267	24.06643
1102.615	-2.00643
1102.962	3.00962
1103.31	-1.00321
1103.658	-11.03531
