Data from N1R0 150C sample 7_Subt2__1__14-23-10-579.txt Node

Date: Tue Sep 16 14:23:10 PDT 2025
User: uwsun
Spectrometer: HDX01956
Trigger mode: 0
Integration Time (sec): 5.000000E-1
Scans to average: 1
Nonlinearity correction enabled: true
Boxcar width: 0
Storing dark spectrum: false
XAxis mode: Wavelengths
Number of Pixels in Spectrum: 2068
>>>>>Begin Spectral Data<<<<<
194.03	-2.00581
194.578	2.0065
195.127	-8.02567
195.676	5.01608
196.225	-6.01604
196.773	-30.08423
197.321	-6.01682
197.87	-12.03151
198.418	8.02108
198.966	20.05375
199.513	47.12153
200.061	-10.02609
200.609	42.11257
201.156	3.00677
201.704	20.05144
202.251	26.0704
202.798	1.00265
203.345	30.07589
203.892	14.03621
204.438	-13.03177
204.985	-10.02448
205.532	6.01613
206.078	-22.05537
206.624	62.15806
207.17	49.11726
207.716	20.05025
208.262	22.04498
208.808	46.11777
209.354	31.07838
209.899	25.06424
210.445	4.01027
210.99	27.06743
211.535	62.14873
212.08	14.03337
212.625	16.04088
213.17	61.15778
213.715	72.16732
214.259	39.09308
214.804	16.04013
215.348	26.06164
215.892	59.1457
216.436	-24.05661
216.98	19.0428
217.524	59.1435
218.068	55.14098
218.612	83.21335
219.155	38.09168
219.698	20.04867
220.242	35.08786
220.785	41.09819
221.328	18.04537
221.871	103.26383
222.414	52.13027
222.956	4.00979
223.499	17.03875
224.041	-24.05643
224.583	28.06024
225.126	17.03812
225.668	8.01984
226.21	40.10273
226.751	62.14003
227.293	32.07363
227.835	28.06979
228.376	24.05557
228.918	31.07829
229.459	25.06341
230	26.06358
230.541	36.08412
231.082	55.13552
231.622	-53.12392
232.163	18.04418
232.704	55.13925
233.244	-25.06359
233.784	27.06643
234.324	69.15714
234.864	35.08035
235.404	-5.01203
235.944	37.08837
236.484	64.16114
237.023	10.02404
237.563	46.1085
238.102	38.09119
238.641	32.08149
239.18	26.06213
239.719	32.08124
240.258	44.10031
240.797	17.04138
241.335	2.00496
241.874	49.0973
242.412	103.25108
242.95	88.21399
243.488	-7.0161
244.026	42.09926
244.564	40.0839
245.102	63.14458
245.64	23.05582
246.177	51.11478
246.715	54.13127
247.252	10.02316
247.789	91.17008
248.326	21.05155
248.863	93.20605
249.4	18.04163
249.936	101.21303
250.473	59.14124
251.009	-24.0565
251.546	39.08871
252.082	-3.00664
252.618	22.05023
253.154	5.01229
253.69	61.13842
254.226	40.09723
254.761	43.09805
255.297	11.02457
255.832	51.12293
256.367	22.05266
256.903	45.10178
257.438	13.03109
257.972	2.00456
258.507	-2.0047
259.042	19.04225
259.576	84.18778
260.111	11.02579
260.645	22.04855
261.179	15.03588
261.713	69.15631
262.247	-31.07288
262.781	38.08172
263.315	31.07633
263.849	-21.05389
264.382	60.13943
264.915	64.15324
265.449	-11.02749
265.982	36.0832
266.515	26.06488
267.048	-39.08569
267.58	39.08558
268.113	13.02879
268.646	-26.06525
269.178	11.02514
269.71	56.12581
270.243	57.13395
270.775	68.1761
271.307	23.05563
271.838	56.13378
272.37	-6.01503
272.902	57.13076
273.433	22.04989
273.965	33.08143
274.496	30.07548
275.027	43.10856
275.558	59.14575
276.089	42.10647
276.62	-14.03608
277.15	38.09475
277.681	-19.04213
278.211	3.00747
278.741	23.05223
279.272	64.14837
279.802	9.02282
280.332	27.06498
280.861	27.06567
281.391	7.0163
281.921	18.04384
282.45	-22.05591
282.98	46.1213
283.509	51.11798
284.038	46.10707
284.567	27.06414
285.096	52.12792
285.625	-6.01386
286.153	101.2428
286.682	26.06102
287.21	-1.00244
287.739	-21.05102
288.267	61.15042
288.795	47.12417
289.323	-5.01206
289.851	47.11243
290.378	-27.06211
290.906	60.14874
291.433	44.11126
291.961	12.02811
292.488	6.01519
293.015	63.15082
293.542	94.24318
294.069	26.06568
294.596	-17.04261
295.122	41.10009
295.649	36.08038
296.175	33.0808
296.702	94.23157
297.228	15.03687
297.754	9.02078
298.28	74.17257
298.806	9.02219
299.332	22.05048
299.857	42.09737
300.383	54.13752
300.908	16.04021
301.433	58.14425
301.958	11.02585
302.483	-20.0509
303.008	38.09619
303.533	36.09426
304.058	0
304.582	39.09393
305.107	-10.02663
305.631	27.06261
306.155	46.10917
306.679	25.06014
307.203	6.01431
307.727	45.10859
308.251	4.01011
308.775	72.17757
309.298	25.0616
309.822	-4.01029
310.345	64.15534
310.868	42.10324
311.391	73.18192
311.914	20.05117
312.437	51.11887
312.96	31.07466
313.482	17.04091
314.005	32.08132
314.527	41.10817
315.049	-3.00778
315.571	31.07157
316.093	31.07832
316.615	44.10752
317.137	24.05378
317.659	47.11589
318.18	-21.05159
318.702	56.13373
319.223	10.02108
319.744	34.07848
320.265	40.09945
320.786	65.16486
321.307	27.06812
321.828	73.16753
322.348	38.09144
322.869	85.20527
323.389	282.53974
323.909	35.0819
324.43	8.01963
324.95	59.13778
325.47	68.17121
325.989	89.21395
326.509	80.18245
327.029	72.16758
327.548	4.00936
328.067	47.11645
328.587	89.22581
329.106	-12.028
329.625	40.1059
330.144	42.10006
330.662	40.09625
331.181	56.13495
331.7	14.03348
332.218	89.19669
332.736	85.20216
333.255	14.03396
333.773	44.10628
334.291	89.22541
334.808	42.09725
335.326	-5.01164
335.844	66.15851
336.361	102.26524
336.879	101.24114
337.396	90.22245
337.913	30.07134
338.43	48.11115
338.947	74.18008
339.464	32.07133
339.981	45.10929
340.497	33.08308
341.014	23.05757
341.53	47.1089
342.046	89.22557
342.562	74.18739
343.078	81.1942
343.594	36.08784
344.11	117.28339
344.626	81.20755
345.141	55.1291
345.657	100.23027
346.172	101.24712
346.687	71.16652
347.202	97.22572
347.717	84.20388
348.232	72.18245
348.747	64.15142
349.261	63.14226
349.776	103.24864
350.29	98.24869
350.805	109.27233
351.319	73.17335
351.833	91.21368
352.347	64.15464
352.861	106.25264
353.374	93.21548
353.888	108.26753
354.401	38.08911
354.915	83.19192
355.428	95.24009
355.941	49.11717
356.454	80.18208
356.967	31.07444
357.48	78.18076
357.993	78.19512
358.505	43.10708
359.018	83.20684
359.53	132.32506
360.042	103.23514
360.554	142.34995
361.066	56.13923
361.578	146.32637
362.09	61.14848
362.602	83.18956
363.113	116.27689
363.625	73.16987
364.136	82.18452
364.647	140.33495
365.158	74.1761
365.669	61.14898
366.18	83.19915
366.691	69.1553
367.201	111.26947
367.712	166.38224
368.222	135.31452
368.733	125.27637
369.243	134.30375
369.753	88.20692
370.263	135.32883
370.773	89.21994
371.282	166.39776
371.792	94.22206
372.301	107.2617
372.811	124.32687
373.32	147.32243
373.829	129.30716
374.338	88.20005
374.847	119.27855
375.356	78.18754
375.865	158.34268
376.373	90.20898
376.882	114.29104
377.39	133.32336
377.898	105.261
378.407	137.31465
378.915	200.43803
379.423	117.27559
379.93	193.44787
380.438	123.29815
380.946	170.39645
381.453	161.38717
381.96	157.37612
382.468	165.38895
382.975	218.5287
383.482	171.38438
383.989	246.62089
384.495	278.63602
385.002	220.46044
385.509	265.62051
386.015	281.56583
386.521	276.61542
387.028	279.62018
387.534	256.53934
388.04	293.6866
388.546	237.51654
389.051	313.66884
389.557	348.77402
390.063	355.76876
390.568	348.80157
391.073	361.76706
391.578	393.91006
392.084	442.94425
392.589	427.86971
393.093	464.03378
393.598	574.1994
394.103	560.21557
394.607	618.34164
395.112	643.41935
395.616	732.56714
396.12	764.52649
396.624	892.79326
397.128	892.84012
397.632	1039.02499
398.136	1063.01426
398.639	1122.15055
399.143	1252.47379
399.646	1455.59622
400.15	1630.71767
400.653	1802.8021
401.156	2022.91189
401.659	2383.43742
402.162	2900.30661
402.664	3731.95822
403.167	5507.62278
403.67	10253.6161
404.172	32878.74543
404.674	60191.92921
405.176	63738.15102
405.678	63977.72923
406.18	64011.81569
406.682	63863.44694
407.184	63926.60148
407.686	41399.3253
408.187	16443.25995
408.688	9786.1798
409.19	6684.78801
409.691	5296.73883
410.192	4494.08804
410.693	3930.69602
411.194	3496.1263
411.694	3282.45241
412.195	3047.76712
412.696	2745.35782
413.196	2567.78531
413.696	2407.3521
414.196	2468.98674
414.696	2393.50844
415.196	2241.15515
415.696	2019.88357
416.196	1637.74493
416.695	1356.45777
417.195	1137.2206
417.694	1137.89413
418.194	1041.8001
418.693	941.81602
419.192	843.71836
419.691	843.69193
420.19	849.76269
420.688	829.76466
421.187	803.40963
421.685	767.55904
422.184	720.50027
422.682	554.09919
423.18	531.11848
423.678	464.98652
424.176	407.8742
424.674	384.80757
425.172	398.8808
425.669	334.78067
426.167	355.78254
426.664	308.67055
427.161	305.67318
427.659	277.64861
428.156	334.67952
428.652	237.58135
429.149	255.60084
429.646	210.45973
430.143	224.52462
430.639	208.48334
431.135	249.60512
431.632	214.47975
432.128	165.39182
432.624	182.46167
433.12	128.29144
433.616	169.36724
434.111	107.25409
434.607	135.3212
435.103	119.24978
435.598	175.3605
436.093	102.23769
436.588	130.29157
437.083	146.32489
437.578	127.29285
438.073	129.32054
438.568	176.42637
439.062	108.23154
439.557	122.28373
440.051	64.14496
440.546	81.18469
441.04	104.24901
441.534	96.24085
442.028	116.27785
442.522	88.2111
443.015	5.01094
443.509	90.21845
444.002	83.20285
444.496	87.18914
444.989	102.24627
445.482	60.14885
445.975	128.29357
446.468	120.2586
446.961	103.22344
447.454	69.15536
447.947	86.20497
448.439	88.21519
448.931	93.21317
449.424	105.26518
449.916	120.29006
450.408	65.14917
450.9	67.16277
451.392	67.16987
451.884	92.21083
452.375	17.04243
452.867	65.14653
453.358	27.06248
453.849	66.1418
454.341	56.12704
454.832	-10.02204
455.323	93.23025
455.814	18.04163
456.304	84.19389
456.795	66.15095
457.285	36.07994
457.776	62.14157
458.266	30.07167
458.756	2.00478
459.247	46.11035
459.737	60.14519
460.226	80.18208
460.716	24.05777
461.206	41.09841
461.695	23.05713
462.185	91.21476
462.674	40.09192
463.163	81.18133
463.653	54.11557
464.142	55.13327
464.63	20.04874
465.119	84.19443
465.608	71.166
466.096	39.08518
466.585	31.07123
467.073	-9.02149
467.561	35.0842
468.05	28.06484
468.538	74.17981
469.026	39.09269
469.513	7.01497
470.001	41.09451
470.489	21.05021
470.976	80.18605
471.463	59.14639
471.951	31.07714
472.438	51.11976
472.925	38.0897
473.412	16.03901
473.899	53.12158
474.385	83.20165
474.872	40.09347
475.359	37.09107
475.845	-9.01896
476.331	6.01293
476.817	2.0049
477.303	8.01875
477.789	31.07401
478.275	-14.03507
478.761	15.03581
479.247	61.13588
479.732	32.07994
480.218	51.13319
480.703	7.01734
481.188	50.10849
481.673	43.09904
482.158	32.06961
482.643	26.06652
483.128	80.18554
483.612	46.10968
484.097	52.12512
484.581	20.04655
485.066	67.16338
485.55	54.11957
486.034	24.05243
486.518	83.1974
487.002	-6.01471
487.486	-14.03432
487.969	-24.05902
488.453	10.025
488.936	17.03856
489.42	14.03124
489.903	24.05984
490.386	-51.10809
490.869	58.12714
491.352	-12.02916
491.835	57.11673
492.318	-19.04332
492.8	51.10591
493.283	25.06393
493.765	51.12479
494.247	36.08399
494.73	26.05791
495.212	11.02623
495.694	36.08508
496.175	56.13434
496.657	33.07834
497.139	13.02265
497.62	36.08676
498.102	19.04749
498.583	-57.14241
499.064	-45.1024
499.545	5.0115
500.026	47.10652
500.507	-11.02563
500.988	53.13218
501.469	13.03254
501.949	21.05203
502.43	33.07975
502.91	80.16914
503.39	-36.09045
503.87	24.05703
504.35	0
504.83	-12.02661
505.31	-2.00486
505.79	-21.05027
506.269	2.00463
506.749	-6.01387
507.228	-8.01905
507.707	45.10066
508.187	37.08861
508.666	-12.03004
509.145	0
509.623	2.00473
510.102	21.05104
510.581	41.09905
511.059	31.07821
511.538	-20.05208
512.016	20.0482
512.494	-5.01213
512.972	56.13393
513.45	-34.08066
513.928	-20.04925
514.406	32.07872
514.884	12.03111
515.361	9.02171
515.839	-8.01866
516.316	33.08047
516.793	15.03806
517.27	37.08918
517.747	2.00517
518.224	11.02556
518.701	-38.08565
519.178	25.06282
519.654	-13.03117
520.131	9.02245
520.607	-62.15454
521.083	-49.11335
521.56	-59.14205
522.036	-52.11586
522.512	41.1014
522.987	27.06537
523.463	-14.03361
523.939	20.04992
524.414	-21.04879
524.89	46.10993
525.365	-6.01373
525.84	4.00971
526.315	5.01222
526.79	-2.00457
527.265	61.14089
527.74	-15.03685
528.215	-47.11178
528.689	-9.02001
529.164	-55.12084
529.638	-38.09773
530.112	-42.1006
530.587	-16.03482
531.061	0
531.534	-20.04885
532.008	2.00491
532.482	12.02783
532.956	-2.00515
533.429	57.13941
533.903	6.0133
534.376	19.04236
534.849	2.00465
535.322	-4.00954
535.795	-34.08342
536.268	26.06327
536.741	-39.09422
537.213	11.02552
537.686	8.01974
538.158	16.03673
538.631	-3.00734
539.103	-28.0644
539.575	-1.00209
540.047	9.01984
540.519	7.01688
540.991	7.01722
541.463	-22.05368
541.934	-72.16705
542.406	28.06766
542.877	25.05684
543.348	24.05832
543.82	34.08299
544.291	13.03063
544.762	-43.10439
545.233	27.06877
545.703	-12.02714
546.174	3.00704
546.645	-8.01961
547.115	-3.00733
547.585	-28.06558
548.056	20.04958
548.526	22.05268
548.996	-39.09503
549.466	-11.02709
549.935	-26.06323
550.405	-32.07186
550.875	-43.10427
551.344	-64.15633
551.814	-26.06073
552.283	35.07706
552.752	-7.01666
553.221	-13.02926
553.69	0
554.159	-22.05565
554.628	-1.0023
555.096	-7.01803
555.565	-62.14106
556.033	-8.01937
556.502	-55.13577
556.97	-2.00452
557.438	-54.12984
557.906	-24.05766
558.374	28.06553
558.842	-6.01458
559.31	-48.11022
559.777	-6.01487
560.245	-52.12222
560.712	-79.18637
561.18	-3.00675
561.647	-70.1599
562.114	-37.08668
562.581	9.02237
563.048	-1.00232
563.514	-1.00254
563.981	-32.07483
564.448	4.00917
564.914	-34.08057
565.381	-2.00464
565.847	-52.12398
566.313	-46.10913
566.779	-70.16215
567.245	-67.15929
567.711	-48.11738
568.176	-68.15702
568.642	-37.09478
569.108	-20.04991
569.573	-93.22204
570.038	-31.06639
570.504	-47.10881
570.969	-65.16469
571.434	-42.09555
571.899	-92.22472
572.363	-45.10563
572.828	30.06955
573.293	-55.12925
573.757	-30.07104
574.222	-58.13356
574.686	-2.00467
575.15	-27.06616
575.614	-7.01678
576.078	-44.10555
576.542	-45.10501
577.006	-51.11821
577.469	-30.07502
577.933	-9.02086
578.396	-92.22481
578.86	-29.06956
579.323	-24.05884
579.786	-18.03987
580.249	13.03099
580.712	-81.20223
581.175	-77.1946
581.637	-49.11452
582.1	-45.10062
582.563	-65.14245
583.025	-19.04695
583.487	-47.09965
583.95	-88.19542
584.412	-24.05161
584.874	-36.08944
585.336	-54.13112
585.797	-37.08249
586.259	-61.14636
586.721	-62.14919
587.182	-40.09424
587.643	-10.02311
588.105	-51.12325
588.566	-71.15311
589.027	9.02227
589.488	1.00233
589.949	0
590.41	3.00606
590.87	0
591.331	27.0597
591.791	-20.04717
592.252	8.01888
592.712	-44.10764
593.172	-34.07907
593.632	7.0158
594.092	-32.07292
594.552	-43.09563
595.011	-76.17926
595.471	9.02069
595.931	-10.02298
596.39	-18.04392
596.849	-59.14092
597.308	-93.20553
597.768	-9.02349
598.227	-4.00974
598.685	-24.05577
599.144	-13.03114
599.603	-31.0739
600.062	-36.07785
600.52	10.0229
600.978	-50.12081
601.437	28.06424
601.895	42.09078
602.353	-14.03134
602.811	4.00916
603.269	21.05037
603.727	16.03876
604.184	19.04378
604.642	3.00745
605.099	25.05891
605.557	4.00983
606.014	-13.02855
606.471	14.0354
606.928	47.10513
607.385	29.07303
607.842	-42.09849
608.299	25.05891
608.755	41.09968
609.212	80.17824
609.668	63.14243
610.125	95.22742
610.581	74.17312
611.037	40.09016
611.493	12.02828
611.949	96.23231
612.405	54.11067
612.861	37.08552
613.316	63.15082
613.772	86.19613
614.227	113.26886
614.683	47.10013
615.138	65.15227
615.593	31.07237
616.048	93.21145
616.503	82.19798
616.958	128.31603
617.412	78.18448
617.867	74.16529
618.321	151.30588
618.776	68.14962
619.23	72.16811
619.684	111.24501
620.138	83.18887
620.592	101.24261
621.046	138.32081
621.5	52.12508
621.954	57.12603
622.407	86.18899
622.861	81.19538
623.314	66.149
623.768	107.24997
624.221	58.11429
624.674	87.19957
625.127	81.18715
625.58	72.16095
626.033	65.14173
626.485	54.12895
626.938	113.26565
627.39	125.28789
627.843	44.10152
628.295	66.15161
628.747	81.19183
629.199	35.0799
629.651	92.20905
630.103	97.22028
630.555	51.10747
631.006	29.06762
631.458	47.11049
631.909	38.08523
632.361	16.03711
632.812	18.04188
633.263	102.21887
633.714	36.07641
634.165	33.07918
634.616	12.02851
635.067	36.07941
635.518	75.17652
635.968	72.14067
636.419	76.16498
636.869	18.04279
637.319	73.16833
637.769	83.18512
638.219	49.11533
638.669	48.11383
639.119	6.01443
639.569	26.06247
640.019	65.14941
640.468	59.13181
640.918	34.08063
641.367	37.0829
641.816	35.0779
642.265	93.21471
642.714	7.01615
643.163	69.1586
643.612	58.14157
644.061	66.14058
644.51	46.10537
644.958	33.07305
645.406	-8.01928
645.855	32.0777
646.303	63.14487
646.751	80.1837
647.199	63.14214
647.647	65.15018
648.095	38.08666
648.543	77.15512
648.99	97.23035
649.438	2.00466
649.885	94.23174
650.333	67.12957
650.78	39.09418
651.227	68.16536
651.674	59.13415
652.121	72.17541
652.568	48.11729
653.015	34.08404
653.461	43.10207
653.908	58.1326
654.354	77.18179
654.801	31.07276
655.247	54.11657
655.693	33.08568
656.139	57.13536
656.585	50.11899
657.031	42.0986
657.477	93.20106
657.922	8.01828
658.368	51.12479
658.813	36.0818
659.259	26.06311
659.704	85.19959
660.149	10.02316
660.594	66.15561
661.039	62.14054
661.484	49.11564
661.929	84.19428
662.373	61.15207
662.818	16.03963
663.262	34.08215
663.707	33.08382
664.151	44.10692
664.595	67.16088
665.039	68.1674
665.483	47.11904
665.927	78.18126
666.371	88.20482
666.814	68.16027
667.258	64.15324
667.701	81.17099
668.145	103.25258
668.588	69.16958
669.031	-19.0451
669.474	80.18994
669.917	51.1113
670.36	69.17077
670.803	72.17246
671.245	-14.02895
671.688	66.15929
672.13	27.06114
672.573	23.05803
673.015	79.18854
673.457	45.09766
673.899	77.18433
674.341	18.04339
674.783	60.14278
675.225	53.12968
675.666	83.20089
676.108	-3.00653
676.549	57.13186
676.991	54.11787
677.432	3.006
677.873	15.0343
678.314	48.11361
678.755	97.23575
679.196	41.09337
679.637	24.05736
680.078	50.1161
680.518	58.13212
680.959	43.10184
681.399	34.08382
681.839	72.17285
682.28	68.16734
682.72	49.11137
683.16	39.09684
683.6	86.19296
684.039	55.11274
684.479	53.12992
684.919	106.24516
685.358	5.01245
685.798	91.23334
686.237	62.14641
686.676	40.09001
687.115	57.13317
687.554	112.26294
687.993	36.07931
688.432	105.23516
688.871	136.30427
689.309	45.10723
689.748	72.14795
690.186	-26.06121
690.625	106.24438
691.063	50.1183
691.501	87.21192
691.939	84.20854
692.377	45.10826
692.815	128.30601
693.253	38.08984
693.69	71.15343
694.128	79.18912
694.565	76.17752
695.003	119.29774
695.44	106.24623
695.877	62.14431
696.314	67.1392
696.751	92.20473
697.188	91.20741
697.625	56.12389
698.061	49.11623
698.498	46.1077
698.934	81.1905
699.371	75.17398
699.807	92.2132
700.243	97.22964
700.679	81.17752
701.115	121.27534
701.551	83.18948
701.987	47.10157
702.422	120.27974
702.858	130.30221
703.294	183.40426
703.729	115.27319
704.164	62.14601
704.599	103.22516
705.035	90.19811
705.47	93.22144
705.904	65.14839
706.339	144.32057
706.774	90.20675
707.209	142.32097
707.643	115.26856
708.078	136.32152
708.512	87.21421
708.946	115.2656
709.38	90.20972
709.814	106.23422
710.248	151.35816
710.682	123.28803
711.116	137.32458
711.549	96.23998
711.983	84.19033
712.416	157.36058
712.85	104.25167
713.283	148.33834
713.716	91.22083
714.149	87.19725
714.582	135.29424
715.015	114.27243
715.448	150.36625
715.881	79.16611
716.313	123.27932
716.746	116.26754
717.178	158.36716
717.61	103.25613
718.043	128.30706
718.475	101.23947
718.907	155.37402
719.339	126.27747
719.77	155.35898
720.202	134.3256
720.634	142.33805
721.065	129.29485
721.497	155.36665
721.928	75.17975
722.359	95.22629
722.79	104.24292
723.221	138.3318
723.652	178.4351
724.083	147.31889
724.514	179.39443
724.945	125.28387
725.375	161.3628
725.806	142.33844
726.236	154.38022
726.666	175.39596
727.096	191.44743
727.526	186.46107
727.956	205.44699
728.386	183.4302
728.816	215.52641
729.246	179.4249
729.675	119.28172
730.105	141.33315
730.534	156.34973
730.964	138.33281
731.393	201.46993
731.822	213.51997
732.251	196.47642
732.68	158.35115
733.109	225.5281
733.537	240.55725
733.966	233.55349
734.395	182.40264
734.823	171.3613
735.251	187.42965
735.68	247.57565
736.108	167.40099
736.536	212.47136
736.964	180.39872
737.392	212.50467
737.82	269.60292
738.247	256.57414
738.675	267.58833
739.102	227.53778
739.53	272.66137
739.957	315.76462
740.384	262.5929
740.811	202.47884
741.238	287.66122
741.665	307.67363
742.092	163.35843
742.519	246.57862
742.945	289.65945
743.372	300.69874
743.798	237.57553
744.225	276.61135
744.651	232.55016
745.077	267.62691
745.503	300.67529
745.929	299.67786
746.355	268.61191
746.781	217.50594
747.207	305.67628
747.632	314.72933
748.058	333.78245
748.483	287.61541
748.908	281.65797
749.334	306.70541
749.759	289.64507
750.184	291.65732
750.609	284.65157
751.033	297.64427
751.458	310.63874
751.883	276.63677
752.307	303.66401
752.732	310.7433
753.156	296.681
753.58	281.6184
754.005	280.65884
754.429	342.75057
754.853	319.74108
755.277	311.68757
755.7	321.7416
756.124	291.67792
756.548	273.60357
756.971	309.70224
757.394	280.67215
757.818	287.69614
758.241	308.73232
758.664	345.80811
759.087	286.60175
759.51	288.66392
759.933	317.71399
760.356	314.75861
760.778	331.75466
761.201	274.6193
761.623	241.53905
762.046	302.65386
762.468	339.74821
762.89	254.58205
763.312	310.70722
763.734	310.69551
764.156	296.68291
764.578	297.62668
765	318.71961
765.421	253.61069
765.843	297.72849
766.264	270.59656
766.686	310.71463
767.107	301.67907
767.528	310.74556
767.949	246.58897
768.37	313.72341
768.791	288.64244
769.212	290.68529
769.632	269.59025
770.053	223.55288
770.473	249.56314
770.894	231.53519
771.314	263.57879
771.734	258.56218
772.154	244.58686
772.575	251.54031
772.994	268.56437
773.414	233.52009
773.834	237.55605
774.254	207.47807
774.673	287.65621
775.093	244.57325
775.512	244.56788
775.931	268.63845
776.351	261.61211
776.77	271.62387
777.189	240.5356
777.607	237.57143
778.026	220.51848
778.445	228.54838
778.864	193.46429
779.282	193.43508
779.701	207.49192
780.119	187.45191
780.537	167.39641
780.955	232.55228
781.373	222.51709
781.791	244.51926
782.209	173.36889
782.627	180.45303
783.045	184.39499
783.462	194.47086
783.88	174.43085
784.297	225.53449
784.715	137.34005
785.132	163.37316
785.549	174.41374
785.966	157.37755
786.383	197.46203
786.8	184.40367
787.217	164.37401
787.633	173.41603
788.05	166.36541
788.466	175.38481
788.883	141.34844
789.299	109.24844
789.715	150.34967
790.131	128.30542
790.547	137.32671
790.963	122.28999
791.379	136.32984
791.795	136.29182
792.21	125.27718
792.626	142.31795
793.041	99.23473
793.457	88.20829
793.872	127.28232
794.287	113.26347
794.702	115.26687
795.117	152.36227
795.532	137.33171
795.947	101.22964
796.362	109.24351
796.776	121.26451
797.191	133.31193
797.605	107.24447
798.02	99.23119
798.434	166.34835
798.848	147.35055
799.262	58.13961
799.676	147.34126
800.09	99.23392
800.504	107.24752
800.918	66.14589
801.331	83.20504
801.745	84.18405
802.158	61.1462
802.572	140.32315
802.985	100.22926
803.398	106.24106
803.811	65.15809
804.224	45.10711
804.637	88.20248
805.05	84.18514
805.462	57.13458
805.875	66.16648
806.288	71.16652
806.7	70.16799
807.112	55.12181
807.525	56.13132
807.937	20.04834
808.349	68.16319
808.761	126.29719
809.173	90.21055
809.584	78.18441
809.996	23.05472
810.408	68.17201
810.819	103.2321
811.231	93.24055
811.642	67.16125
812.053	98.22989
812.464	33.07579
812.875	70.17391
813.286	58.14614
813.697	45.09879
814.108	59.13832
814.519	105.22516
814.929	108.26302
815.34	7.01636
815.75	74.18324
816.16	35.08344
816.571	58.1453
816.981	22.04973
817.391	61.14044
817.801	34.08237
818.211	33.07594
818.62	77.17925
819.03	66.15531
819.44	6.01502
819.849	42.10133
820.259	63.15386
820.668	48.11475
821.077	67.16216
821.486	39.08954
821.895	46.10808
822.304	17.04384
822.713	55.12465
823.122	33.07966
823.531	17.03848
823.939	44.10419
824.348	62.14408
824.756	23.05561
825.164	60.14481
825.573	55.13342
825.981	71.16821
826.389	54.13068
826.797	77.1891
827.205	89.19678
827.612	22.05235
828.02	3.00681
828.428	35.0863
828.835	39.10046
829.243	49.11159
829.65	25.06087
830.057	8.01877
830.464	56.13332
830.871	103.23628
831.278	65.15114
831.685	18.03862
832.092	5.01178
832.499	84.17604
832.905	-8.01963
833.312	44.0945
833.718	77.18574
834.124	105.22866
834.531	38.09168
834.937	38.09486
835.343	48.11053
835.749	23.05109
836.155	38.09654
836.561	15.03588
836.966	17.04014
837.372	16.03936
837.777	11.02675
838.183	56.11845
838.588	44.10632
838.993	63.14753
839.399	50.11848
839.804	-20.04776
840.209	65.16158
840.613	21.04497
841.018	24.0586
841.423	11.02749
841.828	48.11795
842.232	33.07755
842.637	60.13756
843.041	-10.02519
843.445	8.01935
843.849	47.11281
844.253	79.17882
844.657	25.06151
845.061	62.13734
845.465	23.05382
845.869	91.20137
846.272	8.01904
846.676	-2.00461
847.079	22.0548
847.483	48.1151
847.886	59.13648
848.289	47.12329
848.692	28.06819
849.095	29.06695
849.498	60.14405
849.901	32.07
850.304	58.13286
850.707	-5.01238
851.109	47.11406
851.512	38.09047
851.914	12.02964
852.316	61.15042
852.718	101.2568
853.121	40.09468
853.523	-10.02255
853.925	59.15033
854.326	25.06103
854.728	31.07759
855.13	-22.05617
855.531	8.0186
855.933	39.08921
856.334	27.06579
856.736	60.12997
857.137	45.10161
857.538	35.08583
857.939	64.15441
858.34	25.05822
858.741	2.00508
859.142	38.08743
859.542	45.11587
859.943	52.12436
860.343	7.01697
860.744	49.11501
861.144	63.14903
861.544	41.09646
861.945	-10.02483
862.345	35.08215
862.745	39.09436
863.145	27.06099
863.544	43.10533
863.944	64.14472
864.344	20.04743
864.743	67.15923
865.143	43.10782
865.542	-4.00887
865.941	52.12446
866.34	0
866.74	49.12753
867.139	50.11688
867.537	-9.02209
867.936	29.06772
868.335	22.05412
868.734	69.16995
869.132	-28.06254
869.531	64.14637
869.929	29.06401
870.327	31.07168
870.726	49.11632
871.124	18.04025
871.522	19.04676
871.92	71.16789
872.318	12.02819
872.715	37.08692
873.113	6.01409
873.511	11.02648
873.908	2.005
874.306	41.09931
874.703	6.01442
875.1	10.02446
875.497	44.101
875.894	61.14647
876.291	49.116
876.688	32.08005
877.085	12.02764
877.482	26.06292
877.878	90.20972
878.275	4.00991
878.671	-15.03129
879.068	67.15474
879.464	6.01405
879.86	9.0206
880.256	12.02819
880.652	-12.02975
881.048	40.09442
881.444	18.04072
881.84	48.11742
882.236	40.09691
882.631	73.17262
883.027	42.09737
883.422	-11.02723
883.817	21.05157
884.213	28.06961
884.608	58.13993
885.003	2.00463
885.398	-5.01219
885.793	12.02907
886.188	4.00964
886.582	14.03449
886.977	0
887.371	14.03407
887.766	-25.06112
888.16	-40.09592
888.554	55.1296
888.949	28.06791
889.343	48.11203
889.737	8.02099
890.131	-2.00488
890.525	33.08224
890.918	12.02926
891.312	18.04112
891.706	0
892.099	44.1076
892.492	28.05746
892.886	3.0071
893.279	-9.02227
893.672	31.07692
894.065	34.08231
894.458	5.01207
894.851	22.05167
895.244	-11.02736
895.637	91.20959
896.029	43.10192
896.422	-13.03048
896.814	12.0288
897.206	49.11376
897.599	83.19581
897.991	-4.00946
898.383	41.09334
898.775	54.11807
899.167	45.1024
899.559	26.06304
899.951	29.06514
900.342	10.02442
900.734	51.12497
901.125	21.05306
901.517	28.0665
901.908	-17.03898
902.299	33.07809
902.69	65.14815
903.082	76.17584
903.473	62.1447
903.863	-10.0247
904.254	64.14384
904.645	17.04034
905.036	10.02396
905.426	24.05197
905.817	-13.0308
906.207	-15.03431
906.597	27.06151
906.987	37.09184
907.378	27.06646
907.768	17.04384
908.158	46.10753
908.547	68.17152
908.937	-27.0668
909.327	-14.03297
909.717	21.05069
910.106	1.00232
910.495	12.02866
910.885	58.14167
911.274	49.11761
911.663	32.07767
912.052	23.05411
912.441	54.13333
912.83	-16.03534
913.219	47.11823
913.608	33.07828
913.997	72.17489
914.385	71.16202
914.774	42.0981
915.162	88.20223
915.55	2.00465
915.939	10.0247
916.327	-4.00961
916.715	84.20846
917.103	41.09526
917.491	75.17673
917.878	25.05916
918.266	8.02006
918.654	64.15854
919.041	29.07439
919.429	2.00457
919.816	14.03434
920.203	12.02846
920.591	16.03849
920.978	30.07082
921.365	34.08674
921.752	-18.041
922.139	40.08301
922.525	-4.00936
922.912	60.1396
923.299	22.05296
923.685	-28.07075
924.072	-14.03046
924.458	16.03856
924.844	15.03595
925.231	-34.07629
925.617	56.13872
926.003	27.0665
926.389	1.00245
926.774	48.11664
927.16	50.11908
927.546	48.12021
927.931	43.10255
928.317	29.06364
928.702	28.06339
929.088	85.19616
929.473	41.10155
929.858	47.1114
930.243	74.17162
930.628	36.08534
931.013	14.03365
931.398	52.11211
931.783	6.01518
932.167	43.10231
932.552	26.0627
932.937	31.0737
933.321	34.08311
933.705	-24.0583
934.09	8.01916
934.474	2.00454
934.858	18.0454
935.242	-5.01117
935.626	36.08954
936.009	21.05484
936.393	86.21257
936.777	26.06488
937.16	71.17912
937.544	16.03569
937.927	32.07895
938.311	70.16203
938.694	28.07201
939.077	-2.00464
939.46	4.00928
939.843	-28.05502
940.226	5.01238
940.609	64.14206
940.991	-26.06417
941.374	65.15323
941.757	26.06161
942.139	46.09926
942.522	37.08334
942.904	16.03715
943.286	31.07577
943.668	49.12384
944.05	16.03815
944.432	-12.02866
944.814	8.01886
945.196	20.04752
945.578	26.06068
945.959	18.04017
946.341	19.04409
946.722	6.01351
947.104	60.13728
947.485	37.08266
947.866	64.15621
948.247	25.06165
948.628	-25.05811
949.009	22.05456
949.39	-17.04088
949.771	-8.01754
950.152	66.15531
950.532	83.20104
950.913	39.09022
951.293	25.06625
951.674	12.02805
952.054	64.15522
952.434	-6.0145
952.814	3.00681
953.194	33.08233
953.574	16.03787
953.954	-10.02275
954.334	52.12584
954.714	1.00238
955.093	28.06633
955.473	51.12414
955.853	-1.00252
956.232	14.03729
956.611	51.11544
956.99	35.08525
957.37	-1.00246
957.749	-29.06615
958.128	24.05886
958.506	41.10296
958.885	20.04862
959.264	10.02406
959.643	41.09001
960.021	24.0579
960.4	22.04782
960.778	-24.05661
961.156	-3.00727
961.535	-14.03126
961.913	81.18141
962.291	48.12038
962.669	39.09585
963.047	42.104
963.424	42.10492
963.802	19.04526
964.18	60.14306
964.557	53.11586
964.935	28.0637
965.312	-1.00255
965.69	12.02878
966.067	-20.04675
966.444	7.01635
966.821	36.08977
967.198	10.02313
967.575	58.13553
967.952	49.1101
968.329	46.10825
968.705	59.1211
969.082	29.07303
969.458	49.11452
969.835	11.02587
970.211	52.13004
970.587	30.07221
970.963	10.02464
971.339	21.05345
971.715	54.12979
972.091	31.07345
972.467	7.01664
972.843	22.05344
973.219	13.02977
973.594	28.07095
973.97	-25.05615
974.345	67.15394
974.721	-17.03931
975.096	39.09154
975.471	6.01368
975.846	10.02301
976.221	9.0222
976.596	91.21134
976.971	82.19476
977.346	8.01779
977.72	16.03924
978.095	52.12928
978.469	42.09563
978.844	12.029
979.218	36.08439
979.593	46.10504
979.967	28.06432
980.341	29.06444
980.715	27.06589
981.089	3.00727
981.463	31.06828
981.837	43.10235
982.21	-14.03061
982.584	54.12559
982.957	12.02921
983.331	-34.07691
983.704	45.10773
984.078	21.04985
984.451	4.00946
984.824	18.04264
985.197	0
985.57	-1.00239
985.943	24.05599
986.316	16.03725
986.688	65.14935
987.061	48.1081
987.434	53.135
987.806	3.00692
988.179	64.14336
988.551	-5.01226
988.923	7.01657
989.295	40.09556
989.667	46.10719
990.039	60.14476
990.411	-28.06148
990.783	34.07384
991.155	-42.09903
991.527	2.00466
991.898	11.02667
992.27	10.0242
992.641	17.04091
993.012	21.04616
993.384	16.03656
993.755	27.06695
994.126	18.04216
994.497	2.00476
994.868	33.07165
995.239	16.03727
995.61	15.03657
995.98	-14.03294
996.351	16.0386
996.722	59.1323
997.092	-6.01384
997.462	-2.00458
997.833	-4.00907
998.203	20.04594
998.573	-7.017
998.943	55.12399
999.313	22.05112
999.683	-1.00233
1000.053	-19.04125
1000.423	17.0395
1000.792	-37.09264
1001.162	15.03537
1001.531	77.18158
1001.901	10.02397
1002.27	-11.02319
1002.639	-18.04441
1003.009	13.02971
1003.378	6.01491
1003.747	16.03612
1004.116	17.03911
1004.485	41.09386
1004.853	-29.07056
1005.222	-6.01439
1005.591	52.11754
1005.959	20.04349
1006.328	-4.00872
1006.696	-1.00232
1007.064	-16.03872
1007.433	28.06684
1007.801	9.02094
1008.169	-4.00969
1008.537	17.03603
1008.905	27.06089
1009.273	12.02838
1009.64	24.0559
1010.008	2.00459
1010.375	15.03441
1010.743	-9.01938
1011.11	73.16806
1011.478	36.08639
1011.845	29.065
1012.212	63.13743
1012.579	11.02614
1012.946	50.11228
1013.313	63.1415
1013.68	33.07043
1014.047	-10.02306
1014.414	-24.05489
1014.78	22.053
1015.147	17.03906
1015.513	55.12672
1015.88	9.0221
1016.246	6.01411
1016.612	50.10803
1016.978	74.17427
1017.344	32.0763
1017.71	43.09975
1018.076	-4.009
1018.442	39.09705
1018.808	59.14286
1019.174	3.00724
1019.539	-11.02331
1019.905	50.11343
1020.27	-18.04305
1020.636	18.0409
1021.001	65.14899
1021.366	-1.00233
1021.731	87.21705
1022.096	-16.03968
1022.461	62.14037
1022.826	73.16665
1023.191	-27.06923
1023.556	30.06698
1023.92	25.05854
1024.285	35.08103
1024.649	10.02349
1025.014	35.08225
1025.378	33.0805
1025.742	-1.00238
1026.107	33.07104
1026.471	28.06218
1026.835	18.04305
1027.199	0
1027.562	17.03751
1027.926	-9.02117
1028.29	42.10236
1028.654	28.06138
1029.017	40.09471
1029.381	65.14869
1029.744	21.0518
1030.107	79.17744
1030.471	51.11751
1030.834	-19.04102
1031.197	87.19861
1031.56	56.12524
1031.923	11.02762
1032.286	44.09873
1032.648	-11.02505
1033.011	46.10245
1033.374	36.07998
1033.736	-5.01281
1034.099	20.04701
1034.461	8.01974
1034.823	20.04831
1035.185	-7.01692
1035.548	46.10787
1035.91	6.01383
1036.272	69.15001
1036.634	28.06581
1036.995	11.02466
1037.357	-8.01896
1037.719	26.06094
1038.08	52.11907
1038.442	4.00914
1038.803	8.01819
1039.165	-2.00487
1039.526	22.05121
1039.887	0
1040.248	25.06046
1040.609	16.03767
1040.97	10.0235
1041.331	63.15403
1041.692	44.10023
1042.053	8.01737
1042.413	13.0289
1042.774	56.13055
1043.134	36.08087
1043.495	28.06778
1043.855	100.23275
1044.215	22.05227
1044.576	6.01395
1044.936	75.1618
1045.296	35.08395
1045.656	-35.0826
1046.016	2.00463
1046.375	30.06991
1046.735	44.09714
1047.095	47.10513
1047.454	4.008
1047.814	37.08539
1048.173	29.06538
1048.533	31.06794
1048.892	-19.04446
1049.251	25.05996
1049.61	18.04279
1049.969	16.03612
1050.328	9.01868
1050.687	-18.04216
1051.046	42.09756
1051.405	-8.01908
1051.763	36.08018
1052.122	30.07189
1052.48	30.07098
1052.839	40.09174
1053.197	28.06311
1053.555	-2.00428
1053.914	33.07722
1054.272	-8.01826
1054.63	-20.04761
1054.988	60.13744
1055.345	34.06851
1055.703	51.1176
1056.061	50.12526
1056.419	38.09654
1056.776	5.01148
1057.134	-28.06156
1057.491	73.17469
1057.848	0
1058.206	-55.12389
1058.563	13.02735
1058.92	12.02642
1059.277	63.14845
1059.634	23.05109
1059.991	89.20277
1060.348	0
1060.704	82.1904
1061.061	43.09328
1061.418	36.08392
1061.774	13.03098
1062.131	72.18588
1062.487	-7.01569
1062.843	16.03846
1063.199	57.13583
1063.555	45.10062
1063.911	-30.07328
1064.267	59.11393
1064.623	26.06152
1064.979	-9.01977
1065.335	51.11521
1065.691	5.01136
1066.046	75.15513
1066.402	16.03458
1066.757	48.11642
1067.112	-19.045
1067.468	36.0827
1067.823	-25.05698
1068.178	22.05076
1068.533	48.11128
1068.888	46.1044
1069.243	-3.00717
1069.598	24.05564
1069.952	70.15318
1070.307	53.12644
1070.662	47.10825
1071.016	42.09121
1071.371	64.13911
1071.725	39.08835
1072.079	2.00466
1072.434	36.08432
1072.788	-22.04999
1073.142	41.09688
1073.496	27.06127
1073.85	21.04657
1074.203	59.13686
1074.557	71.18384
1074.911	70.15751
1075.265	43.09531
1075.618	17.04003
1075.971	20.04563
1076.325	24.05939
1076.678	12.02638
1077.031	-23.04913
1077.385	59.12247
1077.738	35.07515
1078.091	8.01767
1078.444	38.08309
1078.796	31.07364
1079.149	25.06003
1079.502	21.04806
1079.855	7.01574
1080.207	65.15221
1080.56	8.02019
1080.912	20.04673
1081.264	35.08122
1081.617	53.12411
1081.969	-6.01479
1082.321	2.0047
1082.673	59.13039
1083.025	-24.05478
1083.377	24.05405
1083.728	44.09734
1084.08	-14.03366
1084.432	53.12153
1084.783	-12.02655
1085.135	41.09927
1085.486	42.09238
1085.838	26.06187
1086.189	61.14279
1086.54	17.03883
1086.891	44.10923
1087.242	55.13056
1087.593	16.03686
1087.944	41.08944
1088.295	105.2236
1088.646	87.20461
1088.996	-3.00704
1089.347	-3.00707
1089.698	1.00231
1090.048	10.02499
1090.398	4.00885
1090.749	-2.00457
1091.099	38.09324
1091.449	33.07945
1091.799	22.05308
1092.149	16.03824
1092.499	9.02119
1092.849	-8.01978
1093.199	49.11658
1093.548	28.06543
1093.898	28.06714
1094.248	-17.04203
1094.597	15.03759
1094.947	20.05187
1095.296	20.04791
1095.645	27.06751
1095.994	45.10339
1096.343	16.03905
1096.692	62.15951
1097.041	41.1093
1097.39	31.07435
1097.739	12.03019
1098.088	27.0695
1098.437	35.09031
1098.785	41.1059
1099.134	-1.00254
1099.482	55.14681
1099.83	21.05347
1100.179	48.12319
1100.527	17.04326
1100.875	32.08256
1101.223	33.08545
1101.571	-7.01882
1101.919	39.10084
1102.267	32.08846
1102.615	-2.00643
1102.962	-3.00963
1103.31	4.01285
1103.658	-8.02567
