Data from N3 R5 sample 9_Subt2__4__13-33-45-602.txt Node

Date: Thu Sep 18 13:33:45 PDT 2025
User: uwsun
Spectrometer: HDX01956
Trigger mode: 0
Integration Time (sec): 5.000000E-1
Scans to average: 1
Nonlinearity correction enabled: true
Boxcar width: 0
Storing dark spectrum: false
XAxis mode: Wavelengths
Number of Pixels in Spectrum: 2068
>>>>>Begin Spectral Data<<<<<
194.03	-1.0029
194.578	2.0065
195.127	6.01925
195.676	-16.05141
196.225	-15.03975
196.773	19.05293
197.321	-10.02797
197.87	35.09019
198.418	38.09882
198.966	63.16599
199.513	31.07946
200.061	-3.00768
200.609	35.0924
201.156	-19.04152
201.704	7.01769
202.251	17.04529
202.798	32.0837
203.345	40.09905
203.892	1.00254
204.438	63.14995
204.985	9.02162
205.532	59.15843
206.078	34.08373
206.624	-11.02755
207.17	66.15216
207.716	-24.05849
208.262	-7.01389
208.808	35.08741
209.354	-19.0468
209.899	18.04535
210.445	17.04293
210.99	1.00244
211.535	15.03535
212.08	10.02329
212.625	33.08257
213.17	44.11091
213.715	33.07455
214.259	69.16063
214.804	9.02218
215.348	12.02751
215.892	29.06995
216.436	49.11367
216.98	39.08511
217.524	23.05445
218.068	48.12034
218.612	-1.0025
219.155	10.02357
219.698	-1.00237
220.242	22.05458
220.785	44.10253
221.328	32.07968
221.871	52.13055
222.414	-18.04439
222.956	18.04362
223.499	11.02471
224.041	-2.00459
224.583	42.08907
225.126	43.09571
225.668	43.10408
226.21	34.08506
226.751	-4.00865
227.293	52.11624
227.835	43.10372
228.376	19.04315
228.918	23.05771
229.459	32.08037
230	45.10608
230.541	-1.00229
231.082	1.00243
231.622	14.03215
232.163	56.13577
232.704	19.04682
233.244	15.03708
233.784	12.02902
234.324	28.0621
234.864	45.10041
235.404	-16.03768
235.944	20.04664
236.484	-4.00985
237.023	53.1244
237.563	-9.02079
238.102	33.07728
238.641	34.08607
239.18	0
239.719	77.1921
240.258	-1.00223
240.797	15.03596
241.335	-24.05806
241.874	53.10131
242.412	17.04048
242.95	50.11954
243.488	14.03184
244.026	53.12124
244.564	80.16083
245.102	52.11548
245.64	-10.02401
246.177	3.00666
246.715	38.08921
247.252	4.00905
247.789	-24.0426
248.326	-3.00713
248.863	-7.01524
249.4	62.14054
249.936	12.02445
250.473	22.05119
251.009	44.10087
251.546	31.06808
252.082	48.10486
252.618	73.1614
253.154	8.01917
253.69	8.01788
254.226	21.04964
254.761	26.05707
255.297	41.08921
255.832	24.0561
256.367	9.02099
256.903	44.09474
257.438	2.00463
257.972	-18.03974
258.507	53.12168
259.042	-54.11557
259.576	-6.01297
260.111	16.03656
260.645	52.11144
261.179	0
261.713	-13.02871
262.247	43.09923
262.781	81.16784
263.315	18.04394
263.849	3.00749
264.382	-6.01367
264.915	34.07963
265.449	40.09727
265.982	-30.06753
266.515	17.0413
267.048	26.05495
267.58	-8.01712
268.113	30.06485
268.646	49.12087
269.178	5.01115
269.71	43.09217
270.243	35.07903
270.775	17.04313
271.307	6.01416
271.838	52.12084
272.37	16.03937
272.902	77.17323
273.433	4.00865
273.965	26.0637
274.496	14.03425
275.027	30.0735
275.558	37.08885
276.089	41.10225
276.62	17.04281
277.15	30.07323
277.681	-15.03192
278.211	13.03144
278.741	-14.03126
279.272	58.13089
279.802	39.09687
280.332	21.04937
280.861	25.05978
281.391	37.08276
281.921	-22.05233
282.45	104.258
282.98	41.10649
283.509	23.05132
284.038	21.0467
284.567	-1.00228
285.096	48.1151
285.625	62.141
286.153	10.02329
286.682	9.02036
287.21	28.06689
287.739	-21.04937
288.267	16.03882
288.795	31.08079
289.323	61.14301
289.851	26.06018
290.378	22.0492
290.906	40.09691
291.433	53.13103
291.961	6.01346
292.488	45.11117
293.015	27.06387
293.542	40.10021
294.069	63.153
294.596	59.14414
295.122	40.09486
295.649	44.0971
296.175	20.04756
296.702	8.01913
297.228	30.07117
297.754	41.09099
298.28	30.06745
298.806	15.03622
299.332	38.08344
299.857	11.02467
300.383	-8.02007
300.908	41.09991
301.433	49.11878
301.958	16.03612
302.483	69.17277
303.008	4.0098
303.533	9.02297
304.058	56.12993
304.582	65.15221
305.107	40.10459
305.631	35.07845
306.155	43.10054
306.679	29.06775
307.203	72.16546
307.727	79.18608
308.251	58.14146
308.775	32.07548
309.298	43.10337
309.822	40.10021
310.345	42.09887
310.868	68.16058
311.391	19.04652
311.914	44.10987
312.437	58.1295
312.96	88.20522
313.482	16.03806
314.005	44.10983
314.527	58.1516
315.049	46.11466
315.571	95.2132
316.093	108.26469
316.615	49.11842
317.137	38.08147
317.659	45.10715
318.18	56.13429
318.702	77.17734
319.223	95.19147
319.744	86.1913
320.265	42.10187
320.786	67.16466
321.307	74.18324
321.828	68.15383
322.348	91.2126
322.869	33.07643
323.389	87.16051
323.909	70.15932
324.43	66.15616
324.95	110.24894
325.47	87.21255
325.989	115.27183
326.509	53.11679
327.029	51.11455
327.548	56.12606
328.067	53.12707
328.587	52.12924
329.106	75.16825
329.625	39.10021
330.144	25.05712
330.662	73.16793
331.181	86.19953
331.7	97.22358
332.218	103.2222
332.736	54.12464
333.255	59.13648
333.773	91.21343
334.291	53.12997
334.808	74.16214
335.326	76.17045
335.844	116.26882
336.361	94.23498
336.879	90.20724
337.396	41.09751
337.913	33.07543
338.43	130.29013
338.947	104.24463
339.464	84.17822
339.981	56.13301
340.497	90.22
341.014	94.22421
341.53	140.31296
342.046	133.32142
342.562	89.21905
343.078	84.19497
343.594	117.27677
344.11	122.28418
344.626	113.28191
345.141	101.22936
345.657	104.22941
346.172	95.22481
346.687	103.23438
347.202	144.31645
347.717	114.26847
348.232	135.3319
348.747	82.18678
349.261	160.34865
349.776	105.24164
350.29	157.38113
350.805	113.27226
351.319	153.34914
351.833	125.28122
352.347	103.23476
352.861	164.37311
353.374	168.3726
353.888	137.32157
354.401	119.26838
354.915	132.29276
355.428	149.36375
355.941	168.38283
356.454	192.41624
356.967	200.45905
357.48	196.43361
357.993	177.42258
358.505	160.3863
359.018	144.34017
359.53	161.37627
360.042	174.36868
360.554	159.37291
361.066	143.33892
361.578	192.40878
362.09	174.40306
362.602	200.426
363.113	99.22254
363.625	200.43932
364.136	182.38698
364.647	181.40953
365.158	205.4627
365.669	207.48662
366.18	144.32323
366.691	232.49072
367.201	197.45135
367.712	170.36981
368.222	266.58871
368.733	212.44802
369.243	154.32745
369.753	180.39971
370.263	173.39605
370.773	215.51211
371.282	245.55432
371.792	207.45441
372.301	173.40669
372.811	242.60249
373.32	220.44698
373.829	225.51384
374.338	231.49149
374.847	248.53902
375.356	269.61209
375.865	239.48414
376.373	262.56436
376.882	316.75191
377.39	302.68842
377.898	274.64673
378.407	273.57427
378.915	365.72313
379.423	338.74616
379.93	364.75877
380.438	365.83048
380.946	413.8867
381.453	369.81918
381.96	409.88984
382.468	459.99096
382.975	526.15522
383.482	461.93468
383.989	505.16491
384.495	546.11306
385.002	599.08773
385.509	574.17024
386.015	650.11512
386.521	564.09353
387.028	667.28407
387.534	721.28988
388.04	686.36917
388.546	727.33208
389.051	761.3623
389.557	860.60203
390.063	931.70245
390.568	926.73374
391.073	978.69308
391.578	1043.9106
392.084	964.62031
392.589	1080.73254
393.093	1131.93355
393.598	1276.99688
394.103	1414.25169
394.607	1465.26052
395.112	1601.48402
395.616	1683.45539
396.12	1922.41217
396.624	2092.50544
397.128	2231.62854
397.632	2593.49781
398.136	2736.46731
398.639	2905.55022
399.143	3162.6926
399.646	3694.08904
400.15	4141.69426
400.653	4536.32819
401.156	5112.62046
401.659	5935.50646
402.162	7450.8067
402.664	9864.40787
403.167	14380.76388
403.67	28474.14467
404.172	51576.12204
404.674	37291.05854
405.176	4428.40989
405.678	533.47942
406.18	0
406.682	0
407.184	6962.89417
407.686	50953.82939
408.187	42211.22412
408.688	24759.43188
409.19	17220.62835
409.691	13755.85491
410.192	11481.15702
410.693	10025.36768
411.194	8990.98527
411.694	8440.37173
412.195	7740.16363
412.696	7140.52575
413.196	6438.92068
413.696	6169.35609
414.196	6233.995
414.696	6248.43641
415.196	5713.34461
415.696	5249.44362
416.196	4260.44504
416.695	3316.25655
417.195	2847.5486
417.694	2704.82834
418.194	2560.01022
418.693	2348.40355
419.192	2341.60152
419.691	2194.56926
420.19	2198.60197
420.688	2124.73751
421.187	1983.96528
421.685	1887.42648
422.184	1700.37023
422.682	1510.06164
423.18	1323.06698
423.678	1180.90447
424.176	1125.85359
424.674	1043.66772
425.172	927.66531
425.669	919.77265
426.167	844.53179
426.664	764.39474
427.161	728.34431
427.659	671.37483
428.156	667.15935
428.652	559.21726
429.149	538.12605
429.646	519.97491
430.143	532.10561
430.639	464.96591
431.135	410.90356
431.632	413.8366
432.128	440.94568
432.624	353.81487
433.12	386.79389
433.616	389.75734
434.111	319.69789
434.607	298.65429
435.103	276.52339
435.598	399.72917
436.093	272.58036
436.588	278.57487
437.083	243.50666
437.578	221.46817
438.073	218.50357
438.568	183.41928
439.062	230.45471
439.557	161.35388
440.051	186.39566
440.546	190.40822
441.04	139.31053
441.534	211.50297
442.028	169.38191
442.522	181.41036
443.015	176.36085
443.509	185.42777
444.002	172.39858
444.496	81.16664
444.989	171.3976
445.482	138.32499
445.975	148.32086
446.468	134.27337
446.961	110.22196
447.454	100.21272
447.947	170.38644
448.439	169.39233
448.931	115.24788
449.424	99.23473
449.916	102.23356
450.408	115.25245
450.9	116.26796
451.392	114.27628
451.884	45.09829
452.375	74.17522
452.867	152.32263
453.358	31.06737
453.849	79.16018
454.341	104.22403
454.832	62.12873
455.323	113.26337
455.814	69.15115
456.304	106.23147
456.795	70.15169
457.285	101.21125
457.776	82.17459
458.266	113.25776
458.756	36.08243
459.247	32.0733
459.737	123.28182
460.226	103.22068
460.716	91.20875
461.206	69.15682
461.695	79.1907
462.185	92.20855
462.674	25.05488
463.163	57.11991
463.653	77.15505
464.142	45.10385
464.63	110.25511
465.119	78.17458
465.608	76.16659
466.096	84.17503
466.585	83.1799
467.073	48.1092
467.561	136.31466
468.05	32.07094
468.538	107.2535
469.026	83.19139
469.513	4.00818
470.001	52.11307
470.489	75.16977
470.976	46.10211
471.463	69.16663
471.951	33.07972
472.438	90.2026
472.925	33.07375
473.412	61.14223
473.899	56.1241
474.385	29.06884
474.872	10.02254
475.359	15.03554
475.845	50.09936
476.331	74.15158
476.817	21.04898
477.303	27.06057
477.789	14.03264
478.275	30.0723
478.761	48.11079
479.247	67.14256
479.732	39.09475
480.218	61.15296
480.703	59.14318
481.188	12.02475
481.673	12.02677
482.158	22.0458
482.643	44.10796
483.128	29.06358
483.612	25.05622
484.097	28.06615
484.581	-32.07148
485.066	58.13484
485.55	9.01897
486.034	60.12613
486.518	31.07066
487.002	0
487.486	40.09453
487.969	-6.01451
488.453	51.12479
488.936	-18.03942
489.42	67.14237
489.903	26.06356
490.386	34.07062
490.869	-22.04586
491.352	55.12854
491.835	-12.02379
492.318	14.0309
492.8	-9.01791
493.283	69.17046
493.765	16.0385
494.247	24.05367
494.73	8.01715
495.212	-13.03049
495.694	26.05891
496.175	-21.04893
496.657	97.22287
497.139	-54.08786
497.62	-23.0539
498.102	22.05336
498.583	-35.0849
499.064	36.07878
499.545	9.01992
500.026	2.00435
500.507	-22.04934
500.988	-14.03365
501.469	-30.07323
501.949	-2.00476
502.43	-31.07205
502.91	-58.11752
503.39	-1.00243
503.87	14.03213
504.35	-28.06381
504.83	-25.05366
505.31	30.07087
505.79	-27.06335
506.269	-30.06811
506.749	-35.07822
507.228	-14.03213
507.707	-3.00646
508.187	-39.0905
508.666	-49.11779
509.145	4.0091
509.623	4.00912
510.102	-30.07093
510.581	-3.00698
511.059	20.04931
511.538	-45.1141
512.016	9.02108
512.494	-24.05652
512.972	-27.06352
513.45	-58.13452
513.928	-18.04285
514.406	26.06232
514.884	27.06851
515.361	-2.00473
515.839	-36.08021
516.316	-26.06087
516.793	-83.20752
517.27	-21.05014
517.747	-25.06316
518.224	-38.08582
518.701	-19.04155
519.178	13.03207
519.654	-63.14452
520.131	-74.17934
520.607	-24.05832
521.083	-12.02698
521.56	-71.16509
522.036	3.00644
522.512	3.00721
522.987	-7.01648
523.463	-3.007
523.939	-7.01676
524.414	-46.10359
524.89	-55.12768
525.365	-19.04261
525.84	8.01908
526.315	-64.15131
526.79	-32.0702
527.265	-68.15126
527.74	-44.10539
528.215	-28.06504
528.689	-9.01977
529.164	-44.09189
529.638	-22.05567
530.112	-2.00467
530.587	-16.0339
531.061	-46.11006
531.534	-64.15213
532.008	-14.03316
532.482	-94.2097
532.956	-7.01778
533.429	-106.24895
533.903	-67.14491
534.376	-36.07785
534.849	-1.00227
535.322	-6.01384
535.795	-22.05272
536.268	18.04246
536.741	-69.16373
537.213	19.04285
537.686	-65.1556
538.158	15.0328
538.631	-62.14766
539.103	-32.07047
539.575	-17.03448
540.047	-33.07098
540.519	-44.10253
540.991	-44.10495
541.463	-29.06934
541.934	-51.11549
542.406	-46.1085
542.877	-67.14919
543.348	-100.23422
543.82	-47.1132
544.291	-63.14272
544.762	-53.12382
545.233	-2.00497
545.703	-56.12301
546.174	-27.06201
546.645	-42.10106
547.115	-20.04747
547.585	12.02728
548.056	-43.10447
548.526	-56.1308
548.996	-40.09471
549.466	-47.11234
549.935	-10.02364
550.405	-11.02392
550.875	-37.086
551.344	-37.08834
551.814	-90.20244
552.283	-47.09991
552.752	-97.22474
553.221	-71.15317
553.69	-81.17984
554.159	-53.13107
554.628	-102.22764
555.096	-59.14799
555.565	-66.14535
556.033	-67.15542
556.502	-81.1942
556.97	-51.11092
557.438	-24.05586
557.906	-66.15483
558.374	-65.14737
558.842	-61.14458
559.31	-71.15613
559.777	-71.17126
560.245	-45.10273
560.712	-69.15517
561.18	-44.09539
561.647	-76.16751
562.114	-72.16281
562.581	-34.08283
563.048	-32.07136
563.514	-43.1047
563.981	-12.02673
564.448	-71.15842
564.914	-78.17925
565.381	-102.22754
565.847	-83.19177
566.313	-89.2049
566.779	-3.00668
567.245	-63.14603
567.711	-56.13368
568.176	-54.1232
568.642	-29.07222
569.108	-71.1734
569.573	-48.10982
570.038	-8.01657
570.504	-27.06039
570.969	-66.16337
571.434	-57.12518
571.899	-18.04234
572.363	-56.12581
572.828	-64.14366
573.293	-36.08154
573.757	-55.12597
574.222	-25.05574
574.686	-50.11186
575.15	-50.11821
575.614	-88.20061
576.078	-76.17696
576.542	-47.10639
577.006	-34.07629
577.469	-66.16038
577.933	-114.25389
578.396	-55.13106
578.86	-69.16012
579.323	-39.09179
579.786	-44.09331
580.249	-87.19837
580.712	-111.26896
581.175	-62.15173
581.637	12.02725
582.1	-66.14235
582.563	-116.24138
583.025	-62.14907
583.487	-133.26843
583.95	-50.10664
584.412	-22.04484
584.874	-81.19472
585.336	-34.07963
585.797	-38.08052
586.259	-80.18348
586.721	-56.13019
587.182	-29.06535
587.643	-27.06002
588.105	-36.08419
588.566	6.01229
589.027	-14.03348
589.488	-36.08021
589.949	-14.03282
590.41	22.04215
590.87	-42.09214
591.331	-24.04974
591.791	-60.13479
592.252	-51.11511
592.712	11.02567
593.172	6.01314
593.632	-24.04981
594.092	32.06884
594.552	29.05974
595.011	41.09182
595.471	67.14355
595.931	19.0409
596.39	79.18224
596.849	66.14711
597.308	119.24271
597.768	33.08152
598.227	117.26861
598.685	73.15742
599.144	94.20944
599.603	159.35448
600.062	89.17632
600.52	123.26079
600.978	162.36498
601.437	195.41399
601.895	171.33799
602.353	214.4334
602.811	241.4911
603.269	247.54335
603.727	282.62073
604.184	236.49196
604.642	221.50206
605.099	245.52173
605.557	304.66831
606.014	297.57767
606.471	360.82722
606.928	382.76372
607.385	379.85081
607.842	440.90454
608.299	404.83728
608.755	444.94811
609.212	491.95776
609.668	405.80501
610.125	511.06685
610.581	492.99457
611.037	497.97775
611.493	493.00505
611.949	538.12506
612.405	559.95472
612.861	560.1049
613.316	575.19061
613.772	561.10403
614.227	588.18688
614.683	556.00871
615.138	562.14885
615.593	509.01374
616.048	569.08878
616.503	558.18137
616.958	563.22287
617.412	557.13218
617.867	541.0406
618.321	519.88636
618.776	572.06734
619.23	567.15306
619.684	530.01132
620.138	475.93535
620.592	552.14877
621.046	489.991
621.5	490.03537
621.954	493.94933
622.407	475.91159
622.861	419.88757
623.314	455.90524
623.768	473.96559
624.221	434.74412
624.674	415.83181
625.127	458.93857
625.58	352.69525
626.033	367.70362
626.485	389.82655
626.938	388.81454
627.39	395.81515
627.843	349.71408
628.295	391.80218
628.747	350.74612
629.199	412.83477
629.651	324.66428
630.103	368.75653
630.555	304.56917
631.006	294.62348
631.458	271.57182
631.909	294.60278
632.361	300.6237
632.812	295.61973
633.263	256.49306
633.714	244.46474
634.165	232.5051
634.616	267.57401
635.067	292.57079
635.518	260.55499
635.968	314.55191
636.419	282.54156
636.869	331.69872
637.319	270.56583
637.769	310.62667
638.219	276.58684
638.669	273.59651
639.119	247.54883
639.569	294.65176
640.019	327.67301
640.468	261.51854
640.918	347.74502
641.367	335.6727
641.816	321.64518
642.265	314.65309
642.714	334.6984
643.163	321.65084
643.612	330.72668
644.061	338.62783
644.51	350.71661
644.958	359.70026
645.406	360.77676
645.855	366.80087
646.303	334.69469
646.751	336.69169
647.199	361.71521
647.647	363.75618
648.095	355.72175
648.543	373.6541
648.99	372.79989
649.438	428.88662
649.885	391.87378
650.333	383.62835
650.78	389.85603
651.227	376.82691
651.674	373.75903
652.121	353.76051
652.568	257.57436
653.015	328.73619
653.461	338.7246
653.908	374.77372
654.354	305.64921
654.801	324.6889
655.247	310.60597
655.693	312.74639
656.139	323.69828
656.585	283.62123
657.031	285.61323
657.477	294.57797
657.922	309.64971
658.368	277.62212
658.813	221.45997
659.259	277.61139
659.704	264.56817
660.149	286.60625
660.594	301.651
661.039	258.54164
661.484	336.72436
661.929	235.5037
662.373	264.62434
662.818	262.60496
663.262	231.512
663.707	190.44831
664.151	293.66345
664.595	219.49147
665.039	219.50336
665.483	258.61416
665.927	240.51586
666.371	193.42047
666.814	194.42991
667.258	251.5547
667.701	211.40922
668.145	216.49677
668.588	219.50155
669.031	233.51213
669.474	159.35873
669.917	240.48227
670.36	195.44892
670.803	266.58625
671.245	207.39686
671.688	248.5546
672.13	191.39523
672.573	271.63853
673.015	162.36303
673.457	255.51087
673.899	240.53294
674.341	183.41169
674.783	200.44984
675.225	176.40494
675.666	170.38566
676.108	197.39705
676.549	214.46611
676.991	158.32262
677.432	166.30004
677.873	174.37304
678.314	252.55144
678.755	214.48725
679.196	203.43398
679.637	165.37363
680.078	191.41293
680.518	180.3814
680.959	207.45919
681.399	174.40082
681.839	206.46505
682.28	190.44134
682.72	160.33976
683.16	224.5201
683.6	226.47195
684.039	186.3534
684.479	186.42761
684.919	224.48292
685.358	196.46175
685.798	162.39806
686.237	185.41466
686.676	214.45562
687.115	215.4662
687.554	224.49017
687.993	210.41829
688.432	261.55024
688.871	217.45286
689.309	277.62238
689.748	213.4052
690.186	239.5178
690.625	269.58752
691.063	235.52607
691.501	259.59053
691.939	233.53897
692.377	234.52912
692.815	244.54498
693.253	210.4609
693.69	254.50616
694.128	240.54401
694.565	275.60088
695.003	251.59165
695.44	198.42925
695.877	275.5935
696.314	265.51174
696.751	250.51512
697.188	265.55916
697.625	231.47907
698.061	259.57094
698.498	261.57728
698.934	172.38243
699.371	255.55435
699.807	249.54177
700.243	289.64321
700.679	311.63258
701.115	223.47819
701.551	328.70104
701.987	277.55521
702.422	240.5223
702.858	244.52852
703.294	226.4642
703.729	303.67939
704.164	313.6891
704.599	267.53368
705.035	260.53138
705.47	339.75635
705.904	274.57752
706.339	263.54641
706.774	254.53936
707.209	226.47656
707.643	325.70471
708.078	302.66531
708.512	329.76371
708.946	273.5912
709.38	313.66334
709.814	285.58287
710.248	282.61682
710.682	320.69401
711.116	317.69293
711.549	248.58719
711.983	283.58613
712.416	314.65804
712.85	331.75314
713.283	310.66143
713.716	319.72055
714.149	316.66779
714.582	321.64489
715.015	353.78758
715.448	286.64668
715.881	348.65285
716.313	371.77868
716.746	395.82905
717.178	388.8246
717.61	372.84829
718.043	377.83033
718.475	366.78699
718.907	347.77547
719.339	334.67518
719.77	394.84136
720.202	348.79069
720.634	386.84462
721.065	370.77607
721.497	425.92268
721.928	385.84937
722.359	376.82379
722.79	385.81805
723.221	393.87028
723.652	429.96935
724.083	378.74521
724.514	374.73905
724.945	471.96107
725.375	397.8156
725.806	335.73567
726.236	467.04627
726.666	427.87485
727.096	417.89413
727.526	436.98416
727.956	433.85384
728.386	447.94439
728.816	452.01032
729.246	463.99275
729.675	477.03491
730.105	455.97139
730.534	462.93479
730.964	448.98026
731.393	470.99188
731.822	529.1757
732.251	476.06407
732.68	423.84157
733.109	472.01512
733.537	498.03345
733.966	457.98707
734.395	504.98242
734.823	492.9317
735.251	517.06889
735.68	486.04843
736.108	500.08974
736.536	479.97073
736.964	475.94063
737.392	416.9091
737.82	461.95177
738.247	518.04583
738.675	524.04585
739.102	470.03853
739.53	522.16371
739.957	457.02551
740.384	470.98971
740.811	498.10234
741.238	432.9141
741.665	520.04266
742.092	467.94901
742.519	457.0007
742.945	401.84313
743.372	466.00864
743.798	433.98157
744.225	393.81721
744.651	441.96474
745.077	380.84062
745.503	395.84002
745.929	421.8766
746.355	400.85602
746.781	397.8663
747.207	447.92494
747.632	368.80388
748.058	354.77821
748.483	356.71041
748.908	340.75528
749.334	344.75242
749.759	341.70909
750.184	349.73639
750.609	320.69845
751.033	281.58094
751.458	426.83076
751.883	329.7228
752.307	337.717
752.732	318.72751
753.156	295.65601
753.58	353.73568
754.005	318.73424
754.429	231.48336
754.853	251.56929
755.277	312.66425
755.7	266.59656
756.124	309.70138
756.548	265.57143
756.971	251.55261
757.394	274.64297
757.818	221.52882
758.241	230.5315
758.664	274.63719
759.087	239.49256
759.51	217.49478
759.933	230.50925
760.356	254.59418
760.778	242.55366
761.201	192.41944
761.623	148.32537
762.046	180.3794
762.468	211.45948
762.89	200.45279
763.312	162.36199
763.734	188.418
764.156	178.40774
764.578	182.37669
765	198.44316
765.421	220.52613
765.843	167.41072
766.264	190.41613
766.686	195.45626
767.107	186.4211
767.528	181.43113
767.949	150.35544
768.37	133.30228
768.791	158.35042
769.212	173.41113
769.632	74.16146
770.053	77.19321
770.473	134.30399
770.894	110.2539
771.314	135.29374
771.734	64.13887
772.154	131.31551
772.575	113.24169
772.994	65.13884
773.414	81.17752
773.834	108.25523
774.254	100.22769
774.673	80.18164
775.093	120.28007
775.512	101.23549
775.931	132.31689
776.351	64.14902
776.77	102.23506
777.189	87.19163
777.607	102.24636
778.026	86.2034
778.445	101.2416
778.864	89.21387
779.282	81.18073
779.701	80.19038
780.119	9.02161
780.537	55.12965
780.955	95.22603
781.373	66.15368
781.791	71.15008
782.209	130.27774
782.627	68.17146
783.045	93.19891
783.462	21.05083
783.88	91.22398
784.297	62.14766
784.715	89.21978
785.132	64.14566
785.549	110.26167
785.966	51.12097
786.383	90.20947
786.8	82.17785
787.217	53.11782
787.633	28.06674
788.05	59.12723
788.466	53.11601
788.883	52.1274
789.299	33.0743
789.715	82.18852
790.131	32.07504
790.547	-10.02339
790.963	95.22116
791.379	41.09875
791.795	49.10426
792.21	15.03298
792.626	54.12007
793.041	43.09959
793.457	68.15715
793.872	69.15217
794.287	61.14089
794.702	34.07873
795.117	10.02349
795.532	41.0989
795.947	29.06503
796.362	42.09311
796.776	2.00427
797.191	26.05994
797.605	26.0591
798.02	46.10669
798.434	16.03301
798.848	-13.03036
799.262	59.1407
799.676	17.03883
800.09	-14.03268
800.504	74.16781
800.918	16.03479
801.331	-1.00249
801.745	42.08985
802.158	16.03793
802.572	55.12434
802.985	0
803.398	58.12955
803.811	18.04367
804.224	37.08658
804.637	-26.05798
805.05	0
805.462	12.02781
805.875	43.10833
806.288	-6.01397
806.7	34.08091
807.112	56.1211
807.525	79.18362
807.937	-12.02838
808.349	51.1199
808.761	-50.1161
809.173	-44.10075
809.584	21.04875
809.996	-37.08739
810.408	-31.07754
810.819	-32.07198
811.231	19.04824
811.642	46.10804
812.053	18.04133
812.464	42.09493
812.875	-7.01718
813.286	16.03908
813.697	26.05526
814.108	37.08406
814.519	24.04941
814.929	17.04067
815.34	3.00688
815.75	9.02179
816.16	-53.12435
816.571	22.0545
816.981	-12.02635
817.391	-4.00912
817.801	19.04548
818.211	56.12544
818.62	-30.06864
819.03	-2.00459
819.44	9.02231
819.849	30.07194
820.259	7.01713
820.668	39.09183
821.077	6.01423
821.486	-23.05189
821.895	-10.02296
822.304	31.07843
822.713	-19.04239
823.122	14.03341
823.531	44.09836
823.939	18.04158
824.348	21.04839
824.756	20.04719
825.164	24.05661
825.573	13.031
825.981	58.13516
826.389	-17.04009
826.797	-2.00478
827.205	-45.09816
827.612	-11.02557
828.02	9.02017
828.428	35.08395
828.835	3.00759
829.243	-15.03369
829.65	-13.03095
830.057	17.03947
830.464	83.19124
830.871	30.06706
831.278	-27.06144
831.685	-51.1061
832.092	23.05348
832.499	8.0162
832.905	30.07224
833.312	-19.04044
833.718	17.03983
834.124	34.0727
834.531	5.01189
834.937	-16.03881
835.343	40.09067
835.749	8.01733
836.155	-6.01498
836.561	-14.03204
836.966	-3.00692
837.372	2.00482
837.777	-22.05189
838.183	-28.05689
838.588	11.02606
838.993	-8.01819
839.399	-44.10229
839.804	-4.00938
840.209	28.06832
840.613	38.0795
841.018	-31.07413
841.423	0
841.828	-28.0676
842.232	-25.05772
842.637	-8.01748
843.041	44.10876
843.445	-43.10215
843.849	-4.00941
844.253	-46.10283
844.657	-34.08287
845.061	36.07618
845.465	45.10455
845.869	-26.05673
846.272	-49.11412
846.676	25.05707
847.079	36.08744
847.483	-17.04018
847.886	-12.02707
848.289	26.06745
848.692	-34.08212
849.095	-20.04489
849.498	-3.00705
849.901	2.00425
850.304	0
850.707	-21.05092
851.109	21.04908
851.512	55.12789
851.914	1.00245
852.316	21.05052
852.718	-30.07546
853.121	-6.01395
853.523	-34.075
853.925	-19.04766
854.326	32.07668
854.728	10.02447
855.13	-20.04989
855.531	42.09586
855.933	20.04488
856.334	-2.00477
856.736	-53.11129
857.137	-13.02851
857.538	-17.04079
857.939	-16.03794
858.34	-6.01371
858.741	11.02734
859.142	-11.02508
859.542	28.07204
859.943	30.07101
860.343	17.04015
860.744	14.03237
861.144	-15.03469
861.544	27.06216
861.945	-28.06768
862.345	-42.09586
862.745	-46.10938
863.145	-6.01319
863.544	21.05092
863.944	15.03307
864.344	-2.00463
864.743	38.08859
865.143	-19.04663
865.542	-20.04353
865.941	0
866.34	48.10748
866.74	-20.05156
867.139	-14.03201
867.537	-11.02648
867.936	-4.00914
868.335	28.06801
868.734	32.07837
869.132	14.03075
869.531	65.14581
869.929	31.06671
870.327	-12.0272
870.726	41.09552
871.124	0
871.522	-32.07709
871.92	-14.03266
872.318	-2.00464
872.715	37.08546
873.113	51.11666
873.511	64.14967
873.908	34.08336
874.306	6.0142
874.703	18.04242
875.1	-16.03867
875.497	-3.00673
875.894	11.026
876.291	39.09065
876.688	-28.06898
877.085	-40.09056
877.482	7.01642
877.878	-20.04582
878.275	-12.0289
878.671	-31.06262
879.068	9.02038
879.464	-38.08764
879.86	41.09201
880.256	-2.00459
880.652	-16.03872
881.048	-13.0301
881.444	-17.03756
881.84	-20.04816
882.236	46.10901
882.631	16.03711
883.027	-17.03821
883.422	-32.07811
883.817	-22.0535
884.213	16.03905
884.608	15.03517
885.003	-13.02979
885.398	-50.11986
885.793	-33.07858
886.188	-12.02877
886.582	-10.02387
886.977	3.00667
887.371	22.05248
887.766	-43.10337
888.16	21.04952
888.554	-16.03699
888.949	-28.06581
889.343	6.01359
889.737	26.06731
890.131	14.03342
890.525	0
890.918	11.02648
891.312	-25.05534
891.706	59.14762
892.099	-1.0024
892.492	26.05179
892.886	-47.10881
893.279	8.01936
893.672	-4.00973
894.065	-3.00708
894.458	-6.01428
894.851	-27.06161
895.244	-5.01218
895.637	-20.04574
896.029	8.01844
896.422	-6.01377
896.814	19.04468
897.206	28.06337
897.599	-24.05489
897.991	-39.09007
898.383	-47.10487
898.775	-23.04853
899.167	24.05305
899.559	-10.02389
899.951	56.12208
900.342	-50.11935
900.734	-18.04359
901.125	-26.06462
901.517	26.06042
901.908	-15.03352
902.299	-7.01629
902.69	22.04867
903.082	10.02275
903.473	51.11549
903.863	52.12645
904.254	-18.03911
904.645	-35.08151
905.036	12.02789
905.426	3.00619
905.817	-24.05586
906.207	-33.07509
906.597	-11.02435
906.987	-83.20459
907.378	-30.07189
907.768	-12.03052
908.158	20.046
908.547	18.04434
908.937	-35.08541
909.327	-17.03883
909.717	-40.09588
910.106	-29.06604
910.495	23.05447
910.885	-64.1526
911.274	15.03562
911.663	49.11811
912.052	19.04364
912.441	49.11855
912.83	-2.00427
913.219	-18.04439
913.608	-5.01156
913.997	-22.0525
914.385	5.01106
914.774	-17.03895
915.162	-66.14912
915.55	11.02502
915.939	8.01924
916.327	2.00472
916.715	23.05607
917.103	43.09801
917.491	-25.05772
917.878	-35.08019
918.266	7.01721
918.654	30.07342
919.041	-10.02498
919.429	-22.0493
919.816	3.00716
920.203	-25.05756
920.591	-38.08893
920.978	32.07316
921.365	10.02484
921.752	30.06726
922.139	44.08854
922.525	-12.0272
922.912	-18.04133
923.299	23.0542
923.685	-24.05997
924.072	25.05282
924.458	-3.00704
924.844	-42.09895
925.231	-44.09608
925.617	1.00246
926.003	15.03628
926.389	20.0482
926.774	12.02894
927.16	-12.02806
927.546	11.02677
927.931	5.01178
928.317	-33.07003
928.702	-21.04633
929.088	-7.01568
929.473	-4.00969
929.858	30.06958
930.243	-18.04118
930.628	-32.0736
931.013	41.0968
931.398	-3.00637
931.783	4.01002
932.167	-13.02986
932.552	-26.06097
932.937	5.01149
933.321	-78.18726
933.705	47.11277
934.09	-33.07806
934.474	31.06851
934.858	11.02725
935.242	34.07469
935.626	-52.12702
936.009	-25.06372
936.393	52.12569
936.777	34.08305
937.16	-59.14559
937.544	54.11727
937.927	-11.02666
938.311	28.06339
938.694	-11.02776
939.077	-28.06285
939.46	-4.00931
939.843	16.03001
940.226	9.02175
940.609	11.02341
940.991	-42.10229
941.374	-41.09469
941.757	4.00928
942.139	-35.07311
942.522	-11.02404
942.904	32.07218
943.286	11.02615
943.668	-5.01232
944.05	19.04399
944.432	-17.03997
944.814	-3.0069
945.196	15.03495
945.578	-39.08929
945.959	-17.0376
946.341	-40.09115
946.722	-2.00442
947.104	-39.08745
947.485	-27.05897
947.866	25.06005
948.247	-18.04325
948.628	-24.05493
949.009	-4.00978
949.39	-57.13259
949.771	-24.05199
950.152	-14.03274
950.532	31.07424
950.913	-3.00672
951.293	15.03911
951.674	-45.10244
952.054	-22.05201
952.434	-29.06775
952.814	-16.03515
953.194	12.02992
953.574	-12.02747
953.954	6.01337
954.334	23.05432
954.714	-22.05102
955.093	-19.04353
955.473	-57.1352
955.853	-14.03473
956.232	15.03931
956.611	-29.06428
956.99	-22.05288
957.37	-13.0315
957.749	-26.05788
958.128	40.09596
958.506	22.05466
958.885	-26.06211
959.264	-84.19805
959.643	14.02973
960.021	0
960.4	34.07261
960.778	-43.09856
961.156	1.00237
961.535	-84.18157
961.913	-36.07755
962.291	9.02224
962.669	-25.06058
963.047	-52.12531
963.424	17.04125
963.802	-59.13686
964.18	34.0802
964.557	27.05665
964.935	27.05935
965.312	-15.03757
965.69	5.01174
966.067	1.00227
966.444	44.10124
966.821	-30.07333
967.198	-55.12465
967.575	9.02055
967.952	3.00662
968.329	-7.01598
968.705	-25.04888
969.082	15.03674
969.458	14.03202
969.835	-12.0275
970.211	-17.04164
970.587	-14.03302
970.963	2.00485
971.339	-8.02013
971.715	-32.0746
972.091	-10.02318
972.467	-32.07439
972.843	15.03511
973.219	10.0221
973.594	-59.14885
973.97	-7.0154
974.345	8.01794
974.721	-65.14881
975.096	-44.09994
975.471	-20.04486
975.846	76.17052
976.221	-10.02418
976.596	1.00226
976.971	1.00233
977.346	-40.08639
977.72	17.04082
978.095	0
978.469	16.03583
978.844	44.10334
979.218	-1.00228
979.593	49.10938
979.967	27.06206
980.341	-27.05792
980.715	-43.1027
981.089	-1.00234
981.463	19.04117
981.837	-3.00698
982.21	41.08743
982.584	-40.09104
982.957	-9.0215
983.331	1.00222
983.704	5.01168
984.078	-21.04869
984.451	-48.11088
984.824	6.0139
985.197	-27.06179
985.57	22.05135
985.943	-13.02962
986.316	9.02075
986.688	18.0404
987.061	5.01082
987.434	-5.01244
987.806	-45.10286
988.179	21.04589
988.551	-5.01191
988.923	-44.10265
989.295	40.09328
989.667	-5.01152
990.039	15.03511
990.411	23.04977
990.783	-10.0214
991.155	-11.02539
991.527	17.03831
991.898	-25.0587
992.27	-24.05648
992.641	2.00471
993.012	50.10993
993.384	29.0646
993.755	-10.02407
994.126	14.03165
994.497	-32.07445
994.868	13.02793
995.239	19.04346
995.61	-42.10045
995.98	17.03923
996.351	-2.00472
996.722	-6.01317
997.092	53.11806
997.462	1.00222
997.833	-2.00442
998.203	-18.04087
998.573	8.01897
998.943	-33.07202
999.313	11.02489
999.683	-46.10355
1000.053	21.04519
1000.423	24.05462
1000.792	21.05165
1001.162	12.028
1001.531	0
1001.901	-19.04463
1002.27	61.126
1002.639	6.01459
1003.009	32.07212
1003.378	14.03396
1003.747	-7.01544
1004.116	29.06532
1004.485	-2.00452
1004.853	1.0024
1005.222	50.11963
1005.591	-26.05762
1005.959	55.11611
1006.328	-1.00209
1006.696	-2.00458
1007.064	11.02616
1007.433	46.10833
1007.801	-4.00917
1008.169	-34.08107
1008.537	31.0636
1008.905	-22.04849
1009.273	36.08313
1009.64	-19.04308
1010.008	-4.00892
1010.375	50.11265
1010.743	45.09345
1011.11	-16.03578
1011.478	4.00931
1011.845	-46.10041
1012.212	-39.082
1012.579	10.02318
1012.946	0
1013.313	-8.0178
1013.68	1.00207
1014.047	-11.02511
1014.414	6.01343
1014.78	21.04966
1015.147	-3.0067
1015.513	40.09152
1015.88	-23.05506
1016.246	2.00467
1016.612	-21.04449
1016.978	23.05261
1017.344	15.03533
1017.71	-10.02243
1018.076	-25.05527
1018.442	5.01212
1018.808	24.05654
1019.174	-22.05205
1019.539	-24.05003
1019.905	-14.0313
1020.27	4.00942
1020.636	7.01568
1021.001	0
1021.366	18.04137
1021.731	64.15511
1022.096	12.02893
1022.461	-75.16672
1022.826	-1.00223
1023.191	5.0125
1023.556	-49.10684
1023.92	16.03645
1024.285	-2.00457
1024.649	13.02995
1025.014	-19.04446
1025.378	33.07897
1025.742	-26.06116
1026.107	24.04954
1026.471	-20.04273
1026.835	-59.13789
1027.199	0
1027.562	33.07174
1027.926	13.0297
1028.29	-9.02168
1028.654	-14.02978
1029.017	61.14016
1029.381	-8.01809
1029.744	-18.04402
1030.107	-9.01956
1030.471	-5.01119
1030.834	-11.02289
1031.197	-14.03118
1031.56	44.09763
1031.923	-26.06405
1032.286	37.07996
1032.648	-11.02452
1033.011	-9.0194
1033.374	-43.0938
1033.736	-14.03512
1034.099	-10.02315
1034.461	0
1034.823	-24.05639
1035.185	-80.19009
1035.548	0
1035.91	47.10565
1036.272	25.05282
1036.634	4.00906
1036.995	26.05757
1037.357	-20.04615
1037.719	16.03642
1038.08	-3.00654
1038.442	34.07695
1038.803	20.04451
1039.165	-27.06496
1039.526	-5.01138
1039.887	43.09654
1040.248	14.03325
1040.609	27.06238
1040.97	-51.11835
1041.331	-13.03062
1041.692	-24.0533
1042.053	-19.03997
1042.413	-34.07352
1042.774	-23.05251
1043.134	26.05687
1043.495	-7.01651
1043.855	11.02506
1044.215	-7.01635
1044.576	11.02488
1044.936	30.0641
1045.296	31.07208
1045.656	5.01153
1046.016	9.02005
1046.375	13.02988
1046.735	11.02355
1047.095	33.07193
1047.454	6.01166
1047.814	-39.08796
1048.173	-17.03738
1048.533	54.11492
1048.892	4.00911
1049.251	7.01657
1049.61	-23.05291
1049.969	72.15803
1050.328	-46.09167
1050.687	13.02959
1051.046	33.07582
1051.405	-54.12613
1051.763	24.05161
1052.122	8.01905
1052.48	-39.09007
1052.839	14.03083
1053.197	24.05274
1053.555	-23.04704
1053.914	-28.06445
1054.272	8.01805
1054.63	-70.16228
1054.988	11.02438
1055.345	-1.00196
1055.703	10.02228
1056.061	23.05596
1056.419	-11.02726
1056.776	34.07648
1057.134	-32.06941
1057.491	-45.10694
1057.848	3.00699
1058.206	-3.00659
1058.563	39.08005
1058.92	19.04014
1059.277	1.00228
1059.634	-44.09535
1059.991	4.00903
1060.348	33.06976
1060.704	-31.07
1061.061	2.00422
1061.418	-23.05312
1061.774	19.04479
1062.131	72.18356
1062.487	-46.10066
1062.843	19.04446
1063.199	32.07519
1063.555	8.01746
1063.911	0
1064.267	24.04429
1064.623	-19.04416
1064.979	4.00859
1065.335	-13.02862
1065.691	34.07676
1066.046	-18.03639
1066.402	19.04
1066.757	10.02386
1067.112	-19.04346
1067.468	36.08071
1067.823	33.07424
1068.178	40.09082
1068.533	15.03373
1068.888	-21.04662
1069.243	-12.02815
1069.598	-63.14313
1069.952	28.05964
1070.307	-2.00476
1070.662	-55.1244
1071.016	-48.10237
1071.371	-6.01266
1071.725	-47.10322
1072.079	-13.02934
1072.434	-28.06422
1072.788	22.04932
1073.142	62.14328
1073.496	-40.08979
1073.85	5.01078
1074.203	-19.04325
1074.557	23.05856
1074.911	16.03516
1075.265	-59.12783
1075.618	-6.01385
1075.971	-15.03332
1076.325	-32.07755
1076.678	-20.04288
1077.031	13.02723
1077.385	57.11583
1077.738	23.04826
1078.091	-10.02163
1078.444	-40.08602
1078.796	-19.04444
1079.149	-32.07439
1079.502	-16.03565
1079.855	-4.00879
1080.207	9.02076
1080.56	-25.06153
1080.912	-42.09521
1081.264	-16.03625
1081.617	17.03898
1081.969	34.08237
1082.321	14.03211
1082.673	6.01296
1083.025	-8.01763
1083.377	5.00969
1083.728	-22.04704
1084.08	6.01423
1084.432	-95.21381
1084.783	54.11827
1085.135	73.17329
1085.486	-25.05423
1085.838	34.07839
1086.189	-13.02973
1086.54	8.01787
1086.891	60.14426
1087.242	-28.06388
1087.593	-1.00226
1087.944	-16.03367
1088.295	-38.07992
1088.646	6.01368
1088.996	17.03826
1089.347	-26.05989
1089.698	1.00224
1090.048	-48.11829
1090.398	77.16505
1090.749	35.07826
1091.099	5.01203
1091.449	-24.05619
1091.799	-4.00943
1092.149	17.03997
1092.499	1.00231
1092.849	-26.06301
1093.199	41.09556
1093.548	30.06781
1093.898	19.04488
1094.248	5.01216
1094.597	-10.02467
1094.947	-14.03563
1095.296	9.02079
1095.645	7.01717
1095.994	46.10338
1096.343	60.14295
1096.692	7.01771
1097.041	-22.05772
1097.39	-9.02127
1097.739	26.06422
1098.088	-25.06332
1098.437	-39.09888
1098.785	-18.0462
1099.134	-25.06255
1099.482	-45.11832
1099.83	-23.05744
1100.179	32.08031
1100.527	-21.05294
1100.875	-46.11686
1101.223	-1.00256
1101.571	-15.04011
1101.919	-63.1603
1102.267	-9.02475
1102.615	8.0257
1102.962	1.00321
1103.31	11.0353
1103.658	-8.02567
