Data from N3 R5 sample 11_Subt2__0__13-34-40-115.txt Node

Date: Thu Sep 18 13:34:40 PDT 2025
User: uwsun
Spectrometer: HDX01956
Trigger mode: 0
Integration Time (sec): 5.000000E-1
Scans to average: 1
Nonlinearity correction enabled: true
Boxcar width: 0
Storing dark spectrum: false
XAxis mode: Wavelengths
Number of Pixels in Spectrum: 2068
>>>>>Begin Spectral Data<<<<<
194.03	-1.0029
194.578	8.026
195.127	2.00642
195.676	2.00641
196.225	25.0658
196.773	14.03903
197.321	17.04736
197.87	7.01813
198.418	48.12461
198.966	43.11368
199.513	70.1782
200.061	-11.0282
200.609	9.02386
201.156	-23.0503
201.704	-17.04313
202.251	31.08239
202.798	19.04981
203.345	52.12848
203.892	14.03543
204.438	-2.00482
204.985	4.00962
205.532	61.16374
206.078	-15.03727
206.624	-11.02755
207.17	40.0927
207.716	-23.05605
208.262	6.01187
208.808	17.0426
209.354	9.02205
209.899	7.01767
210.445	54.13548
210.99	31.07526
211.535	49.1147
212.08	63.14521
212.625	23.05765
213.17	7.01776
213.715	22.04981
214.259	90.20865
214.804	4.00987
215.348	15.03437
215.892	18.04351
216.436	48.11137
216.98	21.046
217.524	-20.04774
218.068	44.11039
218.612	20.04991
219.155	-6.01419
219.698	19.04481
220.242	4.00996
220.785	18.04216
221.328	24.05984
221.871	53.13304
222.414	24.05873
222.956	47.11329
223.499	29.0649
224.041	0
224.583	31.0659
225.126	59.13088
225.668	26.06313
226.21	22.05515
226.751	-9.01947
227.293	-30.0682
227.835	1.00243
228.376	21.04767
228.918	66.16433
229.459	21.05285
230	-18.04295
230.541	15.03417
231.082	21.05077
231.622	39.08911
232.163	24.05854
232.704	26.06398
233.244	4.00991
233.784	39.09383
234.324	19.04222
234.864	-21.0475
235.404	38.08855
235.944	-20.04701
236.484	0
237.023	16.03783
237.563	54.12315
238.102	34.0796
238.641	92.23048
239.18	39.09118
239.719	44.11043
240.258	10.02223
240.797	46.10964
241.335	-39.09461
241.874	48.09187
242.412	-21.05037
242.95	34.08153
243.488	0
244.026	27.06209
244.564	63.12715
245.102	2.00449
245.64	11.0263
246.177	-14.03117
246.715	32.07521
247.252	6.01356
247.789	-30.05334
248.326	-24.05727
248.863	36.07765
249.4	73.16511
249.936	5.0102
250.473	25.05813
251.009	18.04148
251.546	17.03745
252.082	49.10702
252.618	55.12206
253.154	10.02395
253.69	6.01342
254.226	4.00949
254.761	-60.13407
255.297	36.07841
255.832	11.02578
256.367	20.04655
256.903	34.07337
257.438	30.06903
257.972	5.01099
258.507	54.12395
259.042	-5.01059
259.576	39.08352
260.111	4.00916
260.645	78.16621
261.179	27.06211
261.713	34.07434
262.247	55.12662
262.781	16.03364
263.315	-9.02208
263.849	6.01497
264.382	22.04985
264.915	48.11212
265.449	-1.00245
265.982	4.00894
266.515	29.0703
267.048	42.08845
267.58	20.04254
268.113	32.06914
268.646	48.11843
269.178	5.01115
269.71	18.03879
270.243	11.02496
270.775	3.00763
271.307	-9.02131
271.838	52.12084
272.37	52.12711
272.902	48.10863
273.433	2.00433
273.965	67.1629
274.496	18.044
275.027	18.0442
275.558	27.06496
276.089	77.19078
276.62	25.06287
277.15	-13.03199
277.681	6.01271
278.211	38.09147
278.741	55.12104
279.272	22.05001
279.802	51.12641
280.332	9.02121
280.861	3.0072
281.391	34.0761
281.921	0
282.45	52.13022
282.98	35.091
283.509	49.10875
284.038	-39.08781
284.567	34.07707
285.096	66.15773
285.625	46.10495
286.153	6.01399
286.682	-16.03637
287.21	22.05262
287.739	2.00468
288.267	6.01459
288.795	11.02877
289.323	58.13606
289.851	55.12657
290.378	43.09575
290.906	-1.00244
291.433	43.1065
291.961	37.08249
292.488	4.00996
293.015	28.06622
293.542	12.03021
294.069	14.03431
294.596	34.08345
295.122	32.07601
295.649	80.17521
296.175	23.05466
296.702	10.02391
297.228	-7.01673
297.754	4.00895
298.28	53.1186
298.806	38.09137
299.332	-2.00443
299.857	5.01123
300.383	24.05987
300.908	50.12163
301.433	60.14514
301.958	-5.01134
302.483	89.22204
303.008	81.19553
303.533	19.04841
304.058	50.11615
304.582	59.13832
305.107	61.15893
305.631	-9.02036
306.155	58.13521
306.679	40.09325
307.203	55.12683
307.727	88.20692
308.251	31.07599
308.775	33.07782
309.298	24.0579
309.822	47.1176
310.345	57.13379
310.868	23.05479
311.391	63.153
311.914	40.09996
312.437	25.0562
312.96	28.06607
313.482	-23.05512
314.005	52.12961
314.527	52.13606
315.049	37.09238
315.571	87.19557
316.093	75.18494
316.615	53.12799
317.137	31.06656
317.659	25.05976
318.18	63.15087
318.702	80.18414
319.223	57.11589
319.744	77.1716
320.265	10.0244
320.786	40.0988
321.307	47.11696
321.828	80.18053
322.348	55.1294
322.869	-14.03273
323.389	-33.06272
323.909	43.0984
324.43	43.10219
324.95	29.06671
325.47	54.13274
325.989	87.20676
326.509	62.13636
327.029	32.07215
327.548	70.15713
328.067	87.20724
328.587	115.28252
329.106	37.08365
329.625	63.16121
330.144	11.0252
330.662	47.10868
331.181	88.20409
331.7	96.22132
332.218	104.22431
332.736	76.17466
333.255	55.12733
333.773	92.21573
334.291	60.14694
334.808	26.05755
335.326	60.13501
335.844	95.22107
336.361	64.16085
336.879	91.2095
337.396	56.1328
337.913	46.10487
338.43	86.19368
338.947	59.14
339.464	39.08356
339.981	87.2054
340.497	124.30119
341.014	55.13217
341.53	90.20326
342.046	96.23362
342.562	110.26969
343.078	94.21775
343.594	73.17415
344.11	104.24311
344.626	103.25743
345.141	165.36983
345.657	95.20995
346.172	92.21784
346.687	130.2942
347.202	106.2348
347.717	90.21294
348.232	140.34387
348.747	131.29544
349.261	141.30849
349.776	109.25064
350.29	131.31957
350.805	111.26754
351.319	96.22159
351.833	129.28998
352.347	74.16965
352.861	96.22141
353.374	132.29495
353.888	132.31013
354.401	111.25074
354.915	128.28413
355.428	140.34235
355.941	122.28059
356.454	164.35767
356.967	137.31842
357.48	96.21682
357.993	139.33427
358.505	156.37693
359.018	106.25225
359.53	114.26889
360.042	100.21532
360.554	148.34786
361.066	137.32508
361.578	165.35336
362.09	170.39411
362.602	146.31463
363.113	122.27295
363.625	170.37578
364.136	108.23334
364.647	115.2637
365.158	181.41053
365.669	168.39794
366.18	81.18417
366.691	196.41784
367.201	182.41824
367.712	139.30437
368.222	233.51923
368.733	169.36052
369.243	178.3765
369.753	131.29387
370.263	166.38056
370.773	186.4455
371.282	155.35713
371.792	203.446
372.301	123.29197
372.811	174.43856
373.32	162.3335
373.829	188.43255
374.338	225.47935
374.847	174.38414
375.356	199.45923
375.865	264.53172
376.373	229.49677
376.882	259.62305
377.39	245.56492
377.898	284.66903
378.407	252.53255
378.915	264.53539
379.423	330.72972
379.93	342.7164
380.438	342.78178
380.946	338.73742
381.453	331.74064
381.96	357.7853
382.468	391.85646
382.975	456.01593
383.482	433.88353
383.989	448.0449
384.495	459.95571
385.002	452.85259
385.509	510.05463
386.015	602.04584
386.521	543.058
387.028	590.15657
387.534	681.2307
388.04	601.22288
388.546	607.14539
389.051	674.23323
389.557	753.43951
390.063	839.56941
390.568	822.57808
391.073	883.56663
391.578	856.64109
392.084	863.48991
392.589	948.5769
393.093	965.72223
393.598	1066.76811
394.103	1210.0366
394.607	1306.10679
395.112	1455.35095
395.616	1477.28716
396.12	1641.25274
396.624	1702.31329
397.128	1885.48754
397.632	2172.44203
398.136	2392.46126
398.639	2549.56693
399.143	2751.74333
399.646	3171.29166
400.15	3429.04646
400.653	3921.6719
401.156	4295.05051
401.659	5021.82649
402.162	6174.1538
402.664	8440.09711
403.167	12185.84481
403.67	24262.14351
404.172	51176.94851
404.674	37291.05854
405.176	4428.40989
405.678	533.47942
406.18	0
406.682	0
407.184	6962.89417
407.686	50953.82939
408.187	35705.31873
408.688	21098.66176
409.19	14515.81633
409.691	11607.92004
410.192	9716.82953
410.693	8472.80551
411.194	7580.88084
411.694	7087.37937
412.195	6629.31555
412.696	5976.14468
413.196	5501.84785
413.696	5358.52688
414.196	5294.08527
414.696	5243.67187
415.196	4912.64376
415.696	4487.81565
416.196	3605.79355
416.695	2886.37012
417.195	2462.55217
417.694	2362.87322
418.194	2190.01216
418.693	2010.32377
419.192	2056.51859
419.691	1965.48372
420.19	1937.49914
420.688	1864.60483
421.187	1816.91856
421.685	1624.26834
422.184	1438.1676
422.682	1350.937
423.18	1138.87252
423.678	983.67345
424.176	870.53353
424.674	778.33674
425.172	771.43986
425.669	736.48134
426.167	699.31483
426.664	703.30292
427.161	568.09028
427.659	585.22161
428.156	543.97587
428.652	469.04041
429.149	483.023
429.646	378.7347
430.143	487.02205
430.639	409.86184
431.135	332.74364
431.632	328.67735
432.128	346.75871
432.624	320.74355
433.12	335.69692
433.616	329.64967
434.111	293.64453
434.607	312.68301
435.103	235.4501
435.598	274.51655
436.093	200.4334
436.588	241.50249
437.083	224.46902
437.578	199.42359
438.073	153.358
438.568	183.41928
439.062	242.47709
439.557	181.39616
440.051	150.32158
440.546	181.38963
441.04	115.25819
441.534	151.36409
442.028	166.37536
442.522	139.31783
443.015	131.27132
443.509	136.31753
444.002	97.22812
444.496	93.19081
444.989	172.39985
445.482	84.1999
445.975	125.27233
446.468	92.18948
446.961	80.16254
447.454	115.24383
447.947	98.22602
448.439	107.25145
448.931	98.21201
449.424	18.04335
449.916	60.13855
450.408	138.30148
450.9	42.09845
451.392	98.23822
451.884	8.01761
452.375	53.12601
452.867	88.1894
453.358	19.04139
453.849	114.22929
454.341	96.20715
454.832	83.17152
455.323	71.16685
455.814	72.15763
456.304	63.13883
456.795	32.06991
457.285	29.06162
457.776	31.06673
458.266	89.204
458.756	-1.00231
459.247	32.0733
459.737	79.1826
460.226	54.11692
460.716	51.11793
461.206	30.06872
461.695	79.1907
462.185	54.12335
462.674	60.13075
463.163	35.07398
463.653	95.1905
464.142	35.08093
464.63	95.22098
465.119	83.18558
465.608	74.16228
466.096	50.10497
466.585	14.03079
467.073	-4.0092
467.561	71.16639
468.05	14.03115
468.538	81.19287
469.026	48.11146
469.513	17.03466
470.001	43.09368
470.489	85.19201
470.976	45.09991
471.463	39.09471
471.951	45.10847
472.438	14.03201
472.925	-9.02029
473.412	39.09133
473.899	78.17206
474.385	4.00954
474.872	4.00903
475.359	-9.02142
475.845	28.05593
476.331	23.04766
476.817	41.09526
477.303	11.02476
477.789	12.02799
478.275	13.03143
478.761	11.02558
479.247	8.01724
479.732	27.06574
480.218	42.10567
480.703	41.09983
481.188	4.00826
481.673	90.19753
482.158	33.06853
482.643	7.01729
483.128	4.00882
483.612	10.02256
484.097	23.05439
484.581	-20.04456
485.066	17.03984
485.55	16.03368
486.034	60.12613
486.518	19.04341
487.002	-13.03113
487.486	37.08749
487.969	34.08159
488.453	60.14656
488.936	24.0521
489.42	41.08762
489.903	7.01717
490.386	45.09324
490.869	-33.06896
491.352	5.0118
491.835	-36.07177
492.318	-29.06457
492.8	-20.03989
493.283	29.07217
493.765	20.04809
494.247	-2.0045
494.73	-10.02152
495.212	21.04893
495.694	4.0091
496.175	-18.04191
496.657	99.22737
497.139	-56.09116
497.62	-7.01635
498.102	42.10148
498.583	-45.10937
499.064	49.10693
499.545	41.09012
500.026	-6.01309
500.507	-55.12419
500.988	3.00719
501.469	-26.06342
501.949	-32.07668
502.43	-45.10488
502.91	-9.01803
503.39	-21.05132
503.87	11.02526
504.35	-22.05007
504.83	-20.04288
505.31	-17.04053
505.79	-26.06099
506.269	-16.03622
506.749	-61.13707
507.228	-30.06908
507.707	-16.03457
508.187	-45.10455
508.666	-55.13237
509.145	-11.02509
509.623	-29.06658
510.102	-8.01883
510.581	-2.00465
511.059	-18.04469
511.538	-24.06062
512.016	21.04908
512.494	-5.01173
512.972	-9.0211
513.45	-14.03219
513.928	-11.02615
514.406	18.04321
514.884	43.10879
515.361	43.10077
515.839	-57.12755
516.316	-54.12712
516.793	-10.02467
517.27	31.07328
517.747	30.07505
518.224	-30.06764
518.701	1.00218
519.178	30.07377
519.654	-73.16779
520.131	-80.1941
520.607	30.07216
521.083	-14.03149
521.56	-69.16038
522.036	6.01287
522.512	15.03595
522.987	43.10022
523.463	6.01398
523.939	-34.08184
524.414	-1.00223
524.89	-15.03455
525.365	-5.01118
525.84	-21.05037
526.315	-41.0965
526.79	-12.02622
527.265	-64.14224
527.74	-53.12717
528.215	2.00462
528.689	-24.0529
529.164	-46.0961
529.638	0
530.112	18.0419
530.587	28.05876
531.061	0
531.534	-38.08987
532.008	-22.05219
532.482	-21.04614
532.956	10.02532
533.429	-93.21787
533.903	-16.03423
534.376	-21.04527
534.849	0
535.322	-24.05557
535.795	-56.13506
536.268	-15.03561
536.741	-35.08251
537.213	-5.01133
537.686	-59.14108
538.158	-15.03301
538.631	-41.09725
539.103	-45.09937
539.575	-45.09187
540.047	-15.03214
540.519	-46.10723
540.991	-3.0071
541.463	-21.05014
541.934	-10.02246
542.406	-61.1443
542.877	-18.03967
543.348	-91.21276
543.82	-38.09137
544.291	-44.09929
544.762	-77.18074
545.233	-30.07489
545.703	-19.04141
546.174	-54.12469
546.645	-9.02152
547.115	-36.0857
547.585	-19.04346
548.056	8.01925
548.526	-52.12136
548.996	-21.04954
549.466	-89.21444
549.935	-32.07598
550.405	30.06468
550.875	-61.14245
551.344	-15.03566
551.814	-40.08905
552.283	-70.14956
552.752	-47.10782
553.221	-68.1466
553.69	14.03047
554.159	-3.00735
554.628	-77.17096
555.096	-52.13027
555.565	-18.03924
556.033	-54.12494
556.502	-43.10235
556.97	-28.0606
557.438	15.03464
557.906	-22.05116
558.374	-25.05622
558.842	-15.03524
559.31	-18.03914
559.777	-10.02384
560.245	-4.00906
560.712	-78.17573
561.18	-17.03664
561.647	-60.1318
562.114	-19.0425
562.581	56.13414
563.048	-9.01997
563.514	49.11726
563.981	8.01774
564.448	29.06337
564.914	40.08975
565.381	48.10375
565.847	92.20515
566.313	52.11634
566.779	93.20304
567.245	104.23306
567.711	110.25421
568.176	207.44733
568.642	138.33319
569.108	140.32841
569.573	141.31031
570.038	253.49349
570.504	225.47706
570.969	223.52259
571.434	233.48041
571.899	233.52116
572.363	293.61091
572.828	272.56826
573.293	283.59924
573.757	321.6794
574.222	358.73465
574.686	343.70498
575.15	376.8151
575.614	364.75371
576.078	396.83574
576.542	469.9496
577.006	422.85777
577.469	458.00058
577.933	399.79382
578.396	492.04641
578.86	434.90628
579.323	463.98247
579.786	466.87814
580.249	433.88313
580.712	463.9996
581.175	452.99943
581.637	495.01143
582.1	438.8424
582.563	349.65101
583.025	484.04009
583.487	386.68633
583.95	396.76271
584.412	398.73378
584.874	385.84297
585.336	394.84501
585.797	334.6501
586.259	298.63141
586.721	298.6441
587.182	352.73115
587.643	376.76566
588.105	338.73211
588.566	333.63134
589.027	322.72035
589.488	242.50805
589.949	259.57453
590.41	274.49298
590.87	249.51271
591.331	233.45513
591.791	187.39874
592.252	200.42822
592.712	232.51775
593.172	225.46997
593.632	162.32223
594.092	250.51257
594.552	197.39047
595.011	154.33686
595.471	188.39225
595.931	144.30165
596.39	186.4199
596.849	155.33912
597.308	154.3116
597.768	155.3743
598.227	133.30436
598.685	86.18493
599.144	160.35161
599.603	203.44844
600.062	104.20532
600.52	155.32634
600.978	142.32123
601.437	151.32366
601.895	129.25748
602.353	107.22201
602.811	129.26957
603.269	119.26882
603.727	143.32395
604.184	116.24826
604.642	160.36798
605.099	124.27101
605.557	119.27177
606.014	131.26488
606.471	228.53775
606.928	248.51123
607.385	170.39801
607.842	193.41886
608.299	201.43548
608.755	190.42805
609.212	235.48628
609.668	173.36248
610.125	201.44922
610.581	216.46428
611.037	215.45107
611.493	240.5183
611.949	241.53794
612.405	259.47808
612.861	219.46738
613.316	263.5834
613.772	258.54475
614.227	241.52592
614.683	282.5481
615.138	281.61191
615.593	231.49063
616.048	243.50238
616.503	252.57004
616.958	253.58662
617.412	305.65655
617.867	218.45262
618.321	232.42684
618.776	272.54607
619.23	280.60753
619.684	246.50254
620.138	199.41732
620.592	191.43004
621.046	223.47942
621.5	255.56754
621.954	259.52681
622.407	228.46365
622.861	175.39047
623.314	218.45767
623.768	173.37722
624.221	227.41082
624.674	154.32731
625.127	167.36475
625.58	144.29831
626.033	184.36837
626.485	144.3223
626.938	186.40788
627.39	197.42462
627.843	151.32282
628.295	135.29299
628.747	135.30122
629.199	207.43909
629.651	90.19428
630.103	167.35888
630.555	108.21201
631.006	130.28556
631.458	46.10185
631.909	123.26193
632.361	82.17876
632.812	92.20192
633.263	67.13491
633.714	94.18558
634.165	59.13317
634.616	43.0969
635.067	84.1723
635.518	55.12262
635.968	140.25731
636.419	117.23364
636.869	23.05183
637.319	126.27246
637.769	107.22637
638.219	53.11816
638.669	48.10987
639.119	66.15216
639.569	93.21479
640.019	92.19937
640.468	35.0732
640.918	92.20838
641.367	50.10701
641.816	100.21124
642.265	97.21151
642.714	82.18103
643.163	73.1564
643.612	72.16712
644.061	60.11918
644.51	107.23113
644.958	110.22727
645.406	87.19869
645.855	35.08193
646.303	86.18875
646.751	100.2168
647.199	48.10206
647.647	108.23774
648.095	62.13447
648.543	125.23351
648.99	127.28747
649.438	103.22887
649.885	150.35187
650.333	104.18394
650.78	146.33766
651.227	146.33659
651.674	121.26036
652.121	30.06911
652.568	74.17162
653.015	73.17242
653.461	100.22539
653.908	74.16337
654.354	38.08558
654.801	26.05887
655.247	83.17098
655.693	80.19984
656.139	74.16849
656.585	98.2235
657.031	125.27822
657.477	81.16724
657.922	71.15711
658.368	89.2076
658.813	37.08016
659.259	84.19289
659.704	86.19217
660.149	79.17503
660.594	67.15215
661.039	107.23212
661.484	93.21094
661.929	90.19895
662.373	81.19833
662.818	85.20317
663.262	78.17839
663.707	40.09712
664.151	89.20988
664.595	18.04206
665.039	55.13056
665.483	84.20663
665.927	44.09856
666.371	51.11446
666.814	35.08013
667.258	80.18311
667.701	85.16982
668.145	62.14698
668.588	90.21146
669.031	58.13217
669.474	38.08785
669.917	95.19729
670.36	29.06897
670.803	75.17191
671.245	88.17357
671.688	50.11638
672.13	32.06858
672.573	32.07889
673.015	49.11236
673.457	46.09662
673.899	19.04413
674.341	42.09722
674.783	48.11132
675.225	33.07809
675.666	66.15289
676.108	43.08974
676.549	17.03857
676.991	4.00845
677.432	22.04123
677.873	8.01777
678.314	19.04362
678.755	48.11295
679.196	18.04002
679.637	32.07442
680.078	66.1465
680.518	43.09384
680.959	10.02309
681.399	39.09226
681.839	27.06318
682.28	82.19454
682.72	-10.02202
683.16	56.13434
683.6	95.20415
684.039	28.05525
684.479	13.03092
684.919	-10.02264
685.358	24.05843
685.798	-1.00253
686.237	14.03248
686.676	67.14721
687.115	18.04067
687.554	18.0411
687.993	8.01668
688.432	87.19042
688.871	-1.00219
689.309	87.20309
689.748	74.14554
690.186	-26.05951
690.625	76.17277
691.063	28.06535
691.501	35.0834
691.939	20.04822
692.377	52.12194
692.815	90.20741
693.253	11.02515
693.69	46.0961
694.128	13.03082
694.565	68.15508
695.003	69.16839
695.44	31.0696
695.877	33.07491
696.314	51.10355
696.751	24.05197
697.188	65.14317
697.625	11.02393
698.061	5.01161
698.498	50.11546
698.934	17.03901
699.371	36.0819
699.807	31.07057
700.243	28.06568
700.679	42.09067
701.115	56.12441
701.551	64.1446
701.987	41.08667
702.422	-5.01145
702.858	32.07245
703.294	0
703.729	66.15519
704.164	28.06532
704.599	4.00848
705.035	23.04953
705.47	11.0262
705.904	32.07103
706.339	38.08291
706.774	-4.00897
707.209	-26.05786
707.643	42.09656
708.078	7.01637
708.512	5.01235
708.946	28.06381
709.38	0
709.814	-1.00218
710.248	20.04616
710.682	26.05992
711.116	21.04877
711.549	18.04451
711.983	-5.01102
712.416	10.02236
712.85	48.11546
713.283	15.03405
713.716	32.0765
714.149	16.03603
714.582	42.08981
715.015	-33.07948
715.448	-3.00718
715.881	-11.02247
716.313	49.11015
716.746	34.07704
717.178	-26.06023
717.61	-47.11619
718.043	-7.01666
718.475	1.00232
718.907	-31.07466
719.339	-26.0569
719.77	47.1079
720.202	25.06051
720.634	13.03068
721.065	51.1145
721.497	30.0706
721.928	24.05694
722.359	16.03771
722.79	22.05044
723.221	-23.05533
723.652	25.06112
724.083	20.04275
724.514	-7.01507
724.945	11.02479
725.375	15.03347
725.806	-57.13546
726.236	33.08065
726.666	-35.07919
727.096	22.05119
727.526	-3.00738
727.956	8.01735
728.386	-15.03489
728.816	-18.0442
729.246	15.03526
729.675	-8.01918
730.105	25.05834
730.534	45.09974
730.964	-13.0312
731.393	3.00698
731.822	20.0492
732.251	51.12418
732.68	-39.08594
733.109	17.0402
733.537	-32.07436
733.966	-3.00712
734.395	-37.0814
734.823	28.05904
735.251	-29.06738
735.68	18.04279
736.108	11.02649
736.536	-3.00675
736.964	-30.06643
737.392	-26.06211
737.82	-7.01597
738.247	-19.04315
738.675	-25.05634
739.102	43.10364
739.53	17.0419
739.957	-45.11153
740.384	-1.00232
740.811	33.08023
741.238	-9.02088
741.665	28.06262
742.092	-42.09524
742.519	37.08834
742.945	-49.11322
743.372	-29.0695
743.798	8.01969
744.225	-8.01812
744.651	-34.08181
745.077	15.0357
745.503	-37.08607
745.929	-1.00228
746.355	-18.04199
746.781	9.02125
747.207	26.05887
747.632	-8.01886
748.058	-56.13368
748.483	-21.04558
748.908	-28.06694
749.334	-9.02115
749.759	-42.09478
750.184	-21.0479
750.609	27.06258
751.033	-18.03971
751.458	53.11252
751.883	8.01876
752.307	9.02051
752.732	13.03156
753.156	-7.01654
753.58	32.07145
754.005	68.1648
754.429	-26.0575
754.853	2.00476
755.277	43.0969
755.7	-2.00473
756.124	28.06717
756.548	10.02274
756.971	-27.0629
757.394	-5.01237
757.818	12.02986
758.241	-26.06313
758.664	17.04153
759.087	30.06473
759.51	19.04505
759.933	46.10576
760.356	-28.06911
760.778	68.16101
761.201	-18.04107
761.623	-41.09371
762.046	-40.08838
762.468	36.08131
762.89	-35.08302
763.312	-3.00693
763.734	20.04602
764.156	18.04256
764.578	0
765	6.01396
765.421	23.05707
765.843	11.02783
766.264	0
766.686	20.0484
767.107	40.09325
767.528	14.03441
767.949	10.02434
768.37	-25.05864
768.791	2.00458
769.212	-8.01967
769.632	-10.02221
770.053	-18.04594
770.473	10.02326
770.894	-22.05211
771.314	9.02011
771.734	-52.11562
772.154	9.02218
772.575	11.02405
772.994	12.02593
773.414	-54.12171
773.834	7.01687
774.254	-40.09365
774.673	12.02762
775.093	31.07362
775.512	-3.00714
775.931	50.12191
776.351	-18.04259
776.77	30.07013
777.189	-18.04052
777.607	-2.00493
778.026	-7.01685
778.445	-9.02198
778.864	-16.03921
779.282	-16.03642
779.701	-33.08023
780.119	-30.07257
780.537	-20.04783
780.955	-7.01698
781.373	-7.01653
781.791	-7.01505
782.209	50.10868
782.627	-4.01022
783.045	5.0109
783.462	-24.05858
783.88	-1.0025
784.297	-32.07758
784.715	38.09472
785.132	-18.04165
785.549	34.08206
785.966	-22.05292
786.383	22.05189
786.8	70.15221
787.217	-33.07467
787.633	6.01436
788.05	-42.09253
788.466	36.07908
788.883	-6.01486
789.299	-46.10525
789.715	8.01866
790.131	-24.05689
790.547	-70.16562
790.963	-3.00712
791.379	3.00728
791.795	12.02574
792.21	7.01542
792.626	-3.00675
793.041	-5.01169
793.457	-6.01407
793.872	46.10194
794.287	91.20892
794.702	14.03255
795.117	-24.05674
795.532	-10.02435
795.947	18.04045
796.362	-10.02241
796.776	-29.06229
797.191	-12.02788
797.605	41.09292
798.02	24.0559
798.434	-12.02492
798.848	7.01628
799.262	22.05284
799.676	4.00916
800.09	9.02091
800.504	21.04813
800.918	4.00872
801.331	-9.02243
801.745	-37.08051
802.158	13.03084
802.572	-13.0298
802.985	-2.00452
803.398	19.04278
803.811	38.09185
804.224	-8.01888
804.637	-81.18268
805.05	-32.07041
805.462	11.0255
805.875	49.12331
806.288	23.05323
806.7	-3.00719
807.112	-9.01973
807.525	68.1584
807.937	-38.09033
808.349	16.03787
808.761	-41.09503
809.173	-77.17748
809.584	-24.05621
809.996	-2.00469
810.408	-23.05744
810.819	-2.00447
811.231	4.01018
811.642	35.08238
812.053	6.01381
812.464	-15.0343
812.875	-18.04426
813.286	-19.04671
813.697	6.01281
814.108	-5.01146
814.519	13.02683
814.929	-22.05302
815.34	-6.01378
815.75	14.03387
816.16	-56.13147
816.571	49.12078
816.981	-5.01096
817.391	3.00683
817.801	20.04787
818.211	55.12323
818.62	-5.01138
819.03	-24.05531
819.44	13.0322
819.849	15.03607
820.259	14.03422
820.668	32.07545
821.077	-28.06684
821.486	5.01122
821.895	-9.02066
822.304	23.05827
822.713	22.04867
823.122	55.13021
823.531	13.02925
823.939	-7.01625
824.348	50.11454
824.756	-20.04756
825.164	-14.03327
825.573	-6.01436
825.981	61.14206
826.389	-46.10909
826.797	-9.02154
827.205	3.00648
827.612	-7.01626
828.02	-5.01124
828.428	-54.13171
828.835	-5.01266
829.243	-20.04497
829.65	6.01423
830.057	51.1176
830.464	78.1799
830.871	20.0448
831.278	-25.05687
831.685	-39.08092
832.092	48.11106
832.499	1.00203
832.905	13.03141
833.312	37.0778
833.718	20.04683
834.124	41.08754
834.531	-32.07662
834.937	-36.08764
835.343	25.05684
835.749	-8.01739
836.155	4.00997
836.561	-57.13159
836.966	18.04133
837.372	-18.04353
837.777	-33.078
838.183	-29.05893
838.588	44.10358
838.993	-14.03188
839.399	1.0023
839.804	18.04203
840.209	-11.02703
840.613	16.03364
841.018	-55.13212
841.423	-13.03144
841.828	-7.01683
842.232	14.03207
842.637	-83.1842
843.041	17.04223
843.445	12.02821
843.849	-38.08994
844.253	-12.02664
844.657	4.00968
845.061	45.09504
845.465	18.04204
845.869	7.01517
846.272	-2.00461
846.676	-3.00689
847.079	-21.05155
847.483	6.01412
847.886	11.0247
848.289	28.07261
848.692	-34.08212
849.095	-5.01119
849.498	-4.0094
849.901	-40.08572
850.304	11.02448
850.707	-23.05579
851.109	-7.01645
851.512	33.07707
851.914	10.02451
852.316	8.01929
852.718	9.02248
853.121	22.05088
853.523	-66.14656
853.925	13.03242
854.326	9.02166
854.728	-9.0221
855.13	-4.00995
855.531	56.12746
855.933	17.03817
856.334	-8.0191
856.736	-55.11555
857.137	-36.07935
857.538	-9.02156
857.939	33.07752
858.34	15.03413
858.741	-9.02245
859.142	9.02044
859.542	38.09759
859.943	33.07806
860.343	-14.03327
860.744	51.11704
861.144	16.03677
861.544	12.02771
861.945	-12.02892
862.345	-16.03633
862.745	-22.05207
863.145	-18.03967
863.544	32.07744
863.944	-2.00442
864.344	-31.07217
864.743	45.10476
865.143	16.03901
865.542	18.03886
865.941	49.1151
866.34	20.04504
866.74	-2.00514
867.139	14.03183
867.537	-12.0289
867.936	21.04775
868.335	15.03652
868.734	21.05153
869.132	21.04606
869.531	7.01589
869.929	24.05172
870.327	8.01806
870.726	16.03746
871.124	-26.05673
871.522	-8.01918
871.92	23.05327
872.318	46.10567
872.715	24.05557
873.113	35.08032
873.511	-26.06187
873.908	20.04916
874.306	-8.01899
874.703	50.11711
875.1	-8.01931
875.497	-8.01797
875.894	39.09169
876.291	27.0629
876.688	10.02446
877.085	-11.02476
877.482	-39.09233
877.878	25.05675
878.275	-21.05066
878.671	-11.02212
879.068	22.04969
879.464	10.02284
879.86	-34.07748
880.256	-46.1066
880.652	-2.00483
881.048	15.03453
881.444	-19.04199
881.84	-21.05058
882.236	14.03338
882.631	40.09233
883.027	-13.0292
883.422	-16.03894
883.817	21.05066
884.213	5.01223
884.608	-22.05195
885.003	19.04325
885.398	-65.15626
885.793	-45.1074
886.188	-29.06974
886.582	-9.02148
886.977	44.09702
887.371	6.01436
887.766	-34.08159
888.16	36.08465
888.554	-13.03004
888.949	-3.00702
889.343	-36.08224
889.737	-2.0052
890.131	27.06429
890.525	-8.0194
890.918	3.00723
891.312	-20.04423
891.706	28.07045
892.099	36.08593
892.492	0
892.886	-13.02989
893.279	2.00485
893.672	9.02184
894.065	-38.09033
894.458	-4.00952
894.851	-14.03186
895.244	-1.00243
895.637	13.02953
896.029	22.05058
896.422	-6.01377
896.814	-4.00945
897.206	51.11488
897.599	-33.07561
897.991	-34.07845
898.383	-46.10262
898.775	-18.03794
899.167	5.0111
899.559	9.02142
899.951	19.04175
900.342	-30.07134
900.734	6.01446
901.125	13.03208
901.517	12.02796
901.908	-38.08533
902.299	25.05781
902.69	6.01332
903.082	22.04993
903.473	23.05238
903.863	66.16007
904.254	-17.03693
904.645	3.00693
905.036	19.04409
905.426	-15.03108
905.817	-22.05119
906.207	-35.07968
906.597	6.01324
906.987	-10.02432
907.378	-27.06466
907.768	-11.02797
908.158	39.08936
908.547	-20.04962
908.937	-2.00485
909.327	-12.02738
909.717	-6.01429
910.106	28.06303
910.495	64.15037
910.885	-8.01887
911.274	-5.01192
911.663	6.01458
912.052	23.05278
912.441	18.0438
912.83	-42.09043
913.219	-18.04439
913.608	3.00692
913.997	-61.14664
914.385	-24.05341
914.774	9.02051
915.162	-24.05376
915.55	-5.01141
915.939	-24.05808
916.327	21.04933
916.715	-6.01471
917.103	32.0731
917.491	26.05942
917.878	-44.101
918.266	-47.1167
918.654	8.01966
919.041	-17.04252
919.429	2.00446
919.816	25.05941
920.203	25.05698
920.591	11.0255
920.978	8.01838
921.365	10.02484
921.752	31.06948
922.139	12.02433
922.525	0
922.912	20.04558
923.299	12.02834
923.685	0
924.072	0
924.458	34.07923
924.844	-32.07524
925.231	-22.04782
925.617	12.02949
926.003	13.03145
926.389	16.03859
926.774	55.13156
927.16	27.06266
927.546	-15.03669
927.931	-2.00472
928.317	-10.02111
928.702	-18.03969
929.088	-21.04717
929.473	4.00967
929.858	9.02096
930.243	-7.01598
930.628	-39.08982
931.013	19.04505
931.398	-16.03408
931.783	4.01002
932.167	-2.00458
932.552	-52.12256
932.937	-10.02305
933.321	-15.03558
933.705	2.00484
934.09	40.09328
934.474	-16.03571
934.858	-25.06235
935.242	38.0834
935.626	-35.08522
936.009	-12.03052
936.393	21.05106
936.777	55.13382
937.16	-24.05884
937.544	23.05028
937.927	-42.1024
938.311	15.03405
938.694	-3.00756
939.077	-13.02909
939.46	44.1014
939.843	-8.0151
940.226	-15.03641
940.609	-15.03211
940.991	-34.08268
941.374	-18.04138
941.757	23.05314
942.139	-39.08153
942.522	-16.035
942.904	30.0677
943.286	31.07342
943.668	29.07098
944.05	-35.0819
944.432	31.0722
944.814	39.08893
945.196	-8.01872
945.578	-15.03417
945.959	-4.00882
946.341	14.03155
946.722	-6.01329
947.104	-38.08519
947.485	1.00217
947.866	22.05288
948.247	8.01913
948.628	-28.06414
949.009	-6.01468
949.39	-43.09975
949.771	-1.00216
950.152	33.07646
950.532	46.10985
950.913	-36.08121
951.293	-14.03668
951.674	7.01577
952.054	6.01411
952.434	-43.10073
952.814	-90.20077
953.194	13.03241
953.574	0
953.954	23.05109
954.334	-21.05002
954.714	-11.02546
955.093	-39.08972
955.473	-70.16645
955.853	10.0247
956.232	26.06801
956.611	-54.12032
956.99	-7.01678
957.37	-7.01694
957.749	-38.08481
958.128	7.0169
958.506	17.04227
958.885	-37.08857
959.264	-30.06999
959.643	28.05928
960.021	14.03277
960.4	28.05987
960.778	-21.04792
961.156	-15.03569
961.535	-42.08997
961.913	-63.1365
962.291	-30.07467
962.669	-2.00483
963.047	-34.08166
963.424	55.13252
963.802	-49.11344
964.18	-44.10535
964.557	5.01054
964.935	-15.03326
965.312	-15.03757
965.69	17.03983
966.067	-15.03419
966.444	-15.03492
966.821	4.00972
967.198	-6.01346
967.575	3.00686
967.952	26.05714
968.329	-23.05268
968.705	-20.03906
969.082	40.09753
969.458	-8.01838
969.835	5.01142
970.211	36.08731
970.587	19.04453
970.963	28.0676
971.339	-7.01761
971.715	-60.14064
972.091	-18.0418
972.467	-19.04406
972.843	-15.03532
973.219	-14.03109
973.594	-12.03002
973.97	11.02411
974.345	7.0157
974.721	1.00226
975.096	-11.02482
975.471	47.10396
975.846	36.08144
976.221	-20.04845
976.596	-15.03395
976.971	15.03485
977.346	-20.04301
977.72	-23.05565
978.095	-1.00246
978.469	29.06476
978.844	19.04484
979.218	13.02956
979.593	21.04715
979.967	35.08032
980.341	-34.07305
980.715	1.00237
981.089	0
981.463	43.09269
981.837	-17.03968
982.21	14.03003
982.584	-26.05901
982.957	2.00477
983.331	0
983.704	48.11115
984.078	-13.0301
984.451	-46.10622
984.824	17.03929
985.197	6.01364
985.57	14.03273
985.943	-59.13567
986.316	43.09848
986.688	-5.01128
987.061	-31.06762
987.434	-7.01742
987.806	-3.0068
988.179	-24.05294
988.551	-26.06218
988.923	-20.04644
989.295	56.13019
989.667	4.0092
990.039	-12.02824
990.411	28.06052
990.783	15.03193
991.155	9.02069
991.527	-12.0272
991.898	-18.04221
992.27	-3.00703
992.641	-3.00707
993.012	30.06623
993.384	31.06903
993.755	-22.05308
994.126	-12.02727
994.497	32.07351
994.868	7.01506
995.239	-5.01149
995.61	-25.0596
995.98	4.00925
996.351	-6.01419
996.722	38.08266
997.092	13.0292
997.462	-24.05358
997.833	3.00662
998.203	-9.0204
998.573	27.0638
998.943	-54.11837
999.313	25.05641
999.683	-97.22064
1000.053	36.07721
1000.423	9.02055
1000.792	-31.07698
1001.162	16.0373
1001.531	41.09526
1001.901	-52.12294
1002.27	69.14227
1002.639	15.03641
1003.009	37.08331
1003.378	32.07735
1003.747	-28.06205
1004.116	9.02036
1004.485	14.03157
1004.853	10.02396
1005.222	52.12436
1005.591	-20.04427
1005.959	22.04678
1006.328	-16.03352
1006.696	-7.01605
1007.064	27.06402
1007.433	51.11999
1007.801	11.02514
1008.169	-4.00948
1008.537	64.13033
1008.905	6.01315
1009.273	-4.00931
1009.64	-35.07961
1010.008	-29.06503
1010.375	35.0791
1010.743	11.02302
1011.11	-7.01563
1011.478	-16.03737
1011.845	-17.03688
1012.212	-44.09262
1012.579	30.06927
1012.946	34.07396
1013.313	13.0288
1013.68	-27.05627
1014.047	38.08589
1014.414	25.05574
1014.78	3.00712
1015.147	11.02451
1015.513	72.16367
1015.88	10.02379
1016.246	21.04881
1016.612	14.02943
1016.978	-26.06006
1017.344	43.10073
1017.71	-13.02917
1018.076	18.03944
1018.442	10.02423
1018.808	-6.01422
1019.174	-48.11414
1019.539	4.00829
1019.905	33.07305
1020.27	-9.02124
1020.636	32.07133
1021.001	-17.03803
1021.366	34.07789
1021.731	18.044
1022.096	-7.01694
1022.461	-50.11057
1022.826	27.06
1023.191	-13.0326
1023.556	-57.1245
1023.92	-25.05742
1024.285	-5.01143
1024.649	50.11435
1025.014	30.06952
1025.378	37.08847
1025.742	6.01403
1026.107	24.04954
1026.471	-14.02987
1026.835	-5.01156
1027.199	-8.01827
1027.562	43.09328
1027.926	-2.00458
1028.29	20.04792
1028.654	-22.04688
1029.017	45.10373
1029.381	-6.01356
1029.744	-8.01953
1030.107	-32.06988
1030.471	-9.02016
1030.834	13.02691
1031.197	-1.00222
1031.56	35.0778
1031.923	-12.02949
1032.286	-26.05694
1032.648	16.03547
1033.011	18.03857
1033.374	-38.08281
1033.736	-13.03261
1034.099	-29.06738
1034.461	-31.0754
1034.823	-32.0753
1035.185	-49.11573
1035.548	-26.05968
1035.91	11.02491
1036.272	21.04441
1036.634	-4.00907
1036.995	66.14492
1037.357	-24.05542
1037.719	-10.02288
1038.08	-14.03058
1038.442	68.15283
1038.803	-47.10604
1039.165	0
1039.526	4.00909
1039.887	-24.05462
1040.248	80.18759
1040.609	1.00232
1040.97	-23.05308
1041.331	-32.07565
1041.692	-1.00221
1042.053	1.00209
1042.413	-27.0583
1042.774	-2.00455
1043.134	36.07858
1043.495	-30.07106
1043.855	30.06809
1044.215	43.09943
1044.576	-6.01362
1044.936	0
1045.296	18.04196
1045.656	8.01844
1046.016	-11.02461
1046.375	41.09371
1046.735	33.07031
1047.095	-3.00659
1047.454	52.09991
1047.814	-73.16578
1048.173	-11.02416
1048.533	-4.00862
1048.892	-17.03887
1049.251	50.11738
1049.61	-57.13201
1049.969	37.08181
1050.328	-36.07157
1050.687	1.00228
1051.046	70.15964
1051.405	2.00462
1051.763	-8.01732
1052.122	-8.01911
1052.48	-33.07613
1052.839	15.03303
1053.197	-4.00884
1053.555	-85.17628
1053.914	-34.07835
1054.272	29.06514
1054.63	-47.10846
1054.988	-25.05583
1055.345	8.01565
1055.703	-31.06966
1056.061	14.03412
1056.419	-21.05214
1056.776	26.05858
1057.134	-7.0151
1057.491	-11.02597
1057.848	14.03253
1058.206	-27.05962
1058.563	27.05557
1058.92	-39.08345
1059.277	-48.11031
1059.634	-8.0172
1059.991	10.02254
1060.348	-10.02134
1060.704	2.00449
1061.061	34.07122
1061.418	-13.02997
1061.774	43.10089
1062.131	12.03092
1062.487	-59.12947
1062.843	9.0211
1063.199	-1.00236
1063.555	3.00656
1063.911	-16.03813
1064.267	-18.03357
1064.623	-5.01159
1064.979	-25.05405
1065.335	-61.13566
1065.691	75.1679
1066.046	-15.0303
1066.402	-7.01482
1066.757	63.1488
1067.112	-20.04576
1067.468	21.04723
1067.823	34.07648
1068.178	26.0592
1068.533	14.03149
1068.888	13.02866
1069.243	-3.00703
1069.598	-21.0473
1069.952	21.0448
1070.307	23.05451
1070.662	9.02009
1071.016	15.03155
1071.371	-10.02112
1071.725	-32.07006
1072.079	-33.07479
1072.434	12.0273
1072.788	9.02023
1073.142	57.13186
1073.496	-14.03126
1073.85	25.05368
1074.203	5.01133
1074.557	20.05095
1074.911	-5.01104
1075.265	20.0426
1075.618	-9.02079
1075.971	-10.02219
1076.325	15.03603
1076.678	-32.06878
1077.031	-43.09117
1077.385	23.0471
1077.738	21.04408
1078.091	39.08349
1078.444	-8.01708
1078.796	-3.00699
1079.149	-38.08845
1079.502	-23.05132
1079.855	9.01972
1080.207	-2.00462
1080.56	2.0049
1080.912	-35.07923
1081.264	28.06288
1081.617	20.04583
1081.969	33.07996
1082.321	26.05949
1082.673	3.00648
1083.025	-2.0044
1083.377	-24.04685
1083.728	-27.0578
1084.08	-1.00237
1084.432	-42.0935
1084.783	40.08787
1085.135	51.12158
1085.486	-14.0303
1085.838	-18.04193
1086.189	-14.03202
1086.54	-7.01568
1086.891	23.05569
1087.242	2.00454
1087.593	-12.02722
1087.944	36.07488
1088.295	-39.08204
1088.646	-36.0828
1088.996	-21.04763
1089.347	-44.10172
1089.698	11.02461
1090.048	1.00244
1090.398	29.0628
1090.749	0
1091.099	4.00962
1091.449	-27.06325
1091.799	14.03291
1092.149	11.02589
1092.499	29.06647
1092.849	-33.08008
1093.199	17.03981
1093.548	6.01363
1093.898	16.03781
1094.248	17.04124
1094.597	17.04173
1094.947	1.00254
1095.296	-18.0418
1095.645	-11.02707
1095.994	-24.05471
1096.343	47.11226
1096.692	-10.02538
1097.041	20.0521
1097.39	-8.0189
1097.739	14.03466
1098.088	-28.07095
1098.437	2.00503
1098.785	-31.07974
1099.134	-46.11553
1099.482	-45.11832
1099.83	-8.01993
1100.179	43.10771
1100.527	-33.08337
1100.875	-32.08109
1101.223	24.06108
1101.571	-4.01068
1101.919	-28.0708
1102.267	32.08743
1102.615	17.05455
1102.962	11.03526
1103.31	16.05131
1103.658	4.01282
