Data from N3 R5 sample 12_Subt2__4__13-35-19-114.txt Node

Date: Thu Sep 18 13:35:19 PDT 2025
User: uwsun
Spectrometer: HDX01956
Trigger mode: 0
Integration Time (sec): 5.000000E-1
Scans to average: 1
Nonlinearity correction enabled: true
Boxcar width: 0
Storing dark spectrum: false
XAxis mode: Wavelengths
Number of Pixels in Spectrum: 2068
>>>>>Begin Spectral Data<<<<<
194.03	1.0029
194.578	10.03249
195.127	-3.00963
195.676	-5.01604
196.225	-13.03444
196.773	8.02232
197.321	-8.02237
197.87	22.05682
198.418	61.158
198.966	29.07685
199.513	29.07436
200.061	-6.01537
200.609	14.03709
201.156	-5.01089
201.704	12.03029
202.251	40.10615
202.798	37.0967
203.345	45.11133
203.892	1.00254
204.438	6.01444
204.985	-2.00481
205.532	93.24832
206.078	32.07883
206.624	30.07459
207.17	29.06735
207.716	4.0097
208.262	11.02173
208.808	4.01005
209.354	-13.03199
209.899	52.13022
210.445	31.0781
210.99	16.03895
211.535	-1.00236
212.08	52.12012
212.625	34.08506
213.17	31.07832
213.715	1.00227
214.259	67.15604
214.804	-5.01235
215.348	7.01606
215.892	31.07475
216.436	43.09987
216.98	23.05036
217.524	12.02847
218.068	35.08795
218.612	25.06233
219.155	37.08675
219.698	-16.03799
220.242	34.08416
220.785	30.0701
221.328	12.02999
221.871	24.06056
222.414	9.02209
222.956	31.07495
223.499	-10.02256
224.041	-1.00229
224.583	49.10376
225.126	63.13964
225.668	33.08002
226.21	27.06763
226.751	-13.02815
227.293	7.01579
227.835	35.08455
228.376	16.03636
228.918	40.10006
229.459	45.11276
230	-9.02144
230.541	13.02963
231.082	21.05077
231.622	55.12526
232.163	64.15493
232.704	36.08843
233.244	18.04448
233.784	40.09621
234.324	86.18843
234.864	-1.00225
235.404	34.07929
235.944	26.06056
236.484	22.05394
237.023	17.04018
237.563	7.01612
238.102	28.06563
238.641	51.12871
239.18	12.02821
239.719	54.13528
240.258	54.11892
240.797	50.11908
241.335	-24.05806
241.874	45.08619
242.412	-3.00717
242.95	63.15024
243.488	64.14407
244.026	35.08035
244.564	57.1152
245.102	44.09787
245.64	66.15616
246.177	-17.03787
246.715	34.07988
247.252	63.14075
247.789	21.03684
248.326	-16.03812
248.863	12.02602
249.4	41.09334
249.936	17.03459
250.473	30.06969
251.009	70.15964
251.546	49.10721
252.082	15.033
252.618	58.12864
253.154	-22.05302
253.69	58.12832
254.226	16.03786
254.761	13.02861
255.297	9.01972
255.832	-20.04716
256.367	4.00934
256.903	3.00652
257.438	58.1327
257.972	32.06991
258.507	34.07835
259.042	17.03582
259.576	36.07715
260.111	-11.02527
260.645	61.13047
261.179	21.04837
261.713	9.01978
262.247	54.12435
262.781	48.10019
263.315	6.01468
263.849	56.13847
264.382	5.01137
264.915	35.08196
265.449	12.02933
265.982	-10.02242
266.515	24.05823
267.048	37.07801
267.58	44.09311
268.113	5.01087
268.646	65.15987
269.178	46.10173
269.71	58.12392
270.243	34.07679
270.775	38.09606
271.307	0
271.838	31.07234
272.37	50.12227
272.902	66.14882
273.433	-4.00866
273.965	96.23213
274.496	24.0586
275.027	-12.02963
275.558	54.12925
276.089	64.15894
276.62	-7.0177
277.15	25.06108
277.681	21.04433
278.211	-11.02672
278.741	43.09487
279.272	31.07034
279.802	54.13377
280.332	51.11919
280.861	42.1001
281.391	-5.01128
281.921	19.04484
282.45	70.17473
282.98	86.22164
283.509	35.0779
284.038	1.00223
284.567	-34.07814
285.096	38.0913
285.625	53.12075
286.153	20.0465
286.682	8.0181
287.21	48.11423
287.739	21.04896
288.267	34.08222
288.795	17.04441
289.323	82.19146
289.851	30.06938
290.378	38.0847
290.906	18.04379
291.433	63.15546
291.961	-4.00899
292.488	42.10381
293.015	74.17346
293.542	52.12999
294.069	19.04652
294.596	46.11266
295.122	40.09486
295.649	79.17306
296.175	39.0924
296.702	44.10451
297.228	23.05464
297.754	21.0468
298.28	32.07192
298.806	38.09137
299.332	31.06817
299.857	11.02467
300.383	38.09455
300.908	32.07811
301.433	68.16424
301.958	-16.03636
302.483	91.22695
303.008	19.0464
303.533	4.01022
304.058	30.06996
304.582	42.0988
305.107	48.12534
305.631	53.11836
306.155	72.16738
306.679	27.0631
307.203	59.13594
307.727	51.12078
308.251	10.02461
308.775	19.04493
309.298	61.14614
309.822	23.0578
310.345	62.14539
310.868	48.11379
311.391	37.09029
311.914	44.10987
312.437	-7.01584
312.96	56.13142
313.482	67.15782
314.005	28.0701
314.527	60.15678
315.049	59.14671
315.571	98.2198
316.093	99.24304
316.615	81.19457
317.137	27.05802
317.659	33.07876
318.18	90.21442
318.702	68.1569
319.223	47.09577
319.744	60.13418
320.265	70.16888
320.786	63.15495
321.307	70.17347
321.828	96.21593
322.348	99.23092
322.869	31.07183
323.389	26.0487
323.909	75.17053
324.43	48.11396
324.95	61.13943
325.47	132.31978
325.989	101.23938
326.509	36.07961
327.029	102.2267
327.548	64.14384
328.067	22.05306
328.587	99.24394
329.106	84.18809
329.625	78.19906
330.144	48.10916
330.662	51.11784
331.181	87.20181
331.7	102.23487
332.218	117.25165
332.736	35.08109
333.255	74.17067
333.773	79.18572
334.291	33.08122
334.808	75.1643
335.326	99.22099
335.844	74.17291
336.361	77.19308
336.879	57.13212
337.396	53.12576
337.913	91.20557
338.43	104.23335
338.947	64.15172
339.464	96.20315
339.981	53.12596
340.497	136.3296
341.014	125.29638
341.53	115.2584
342.046	121.29308
342.562	114.27929
343.078	112.25852
343.594	118.27908
344.11	104.24311
344.626	150.3717
345.141	138.31103
345.657	85.18825
346.172	117.2757
346.687	134.30301
347.202	112.24778
347.717	122.28686
348.232	146.35821
348.747	126.28445
349.261	147.32121
349.776	124.28428
350.29	155.37642
350.805	117.28169
351.319	154.35135
351.833	115.25925
352.347	64.14702
352.861	133.30448
353.374	160.35545
353.888	116.27339
354.401	152.34048
354.915	141.31214
355.428	162.39452
355.941	152.34749
356.454	133.29197
356.967	168.38808
357.48	176.39099
357.993	165.39483
358.505	145.35108
359.018	163.38364
359.53	117.2758
360.042	137.29264
360.554	141.33186
361.066	115.27403
361.578	186.39652
362.09	173.40082
362.602	172.36859
363.113	98.22034
363.625	195.42879
364.136	142.30456
364.647	129.29497
365.158	169.38425
365.669	202.47533
366.18	144.32323
366.691	166.35619
367.201	163.37601
367.712	158.34458
368.222	174.39249
368.733	192.40754
369.243	161.34181
369.753	172.38258
370.263	119.27539
370.773	234.55533
371.282	203.46323
371.792	187.41223
372.301	185.43388
372.811	202.50657
373.32	194.39649
373.829	194.44582
374.338	209.44681
374.847	198.43493
375.356	264.60132
375.865	264.53172
376.373	284.60885
376.882	254.6116
377.39	273.62596
377.898	288.67792
378.407	289.60578
378.915	274.5544
379.423	345.7605
379.93	329.69115
380.438	355.80937
380.946	357.77573
381.453	351.78214
381.96	424.91953
382.468	420.91435
382.975	467.03812
383.482	432.88169
383.989	494.14198
384.495	477.98921
385.002	516.95806
385.509	468.97857
386.015	598.03997
386.521	635.21064
387.028	650.25639
387.534	604.11269
388.04	632.277
388.546	674.25124
389.051	696.26651
389.557	829.55602
390.063	879.62819
390.568	865.64363
391.073	904.59528
391.578	866.65631
392.084	923.56847
392.589	1012.65426
393.093	1012.78454
393.598	1192.90991
394.103	1268.10137
394.607	1356.15742
395.112	1485.37973
395.616	1604.39492
396.12	1787.34298
396.624	1899.42426
397.128	2173.61074
397.632	2316.47346
398.136	2593.47291
398.639	2755.56553
399.143	2930.73165
399.646	3395.21579
400.15	3872.83862
400.653	4264.48245
401.156	4687.8321
401.659	5540.60825
402.162	6762.30163
402.664	8992.60579
403.167	13079.20088
403.67	26587.18999
404.172	51408.94803
404.674	37291.05854
405.176	4428.40989
405.678	533.47942
406.18	0
406.682	0
407.184	6962.89417
407.686	50953.82939
408.187	38715.91195
408.688	22674.88545
409.19	15600.60732
409.691	12444.1711
410.192	10524.57299
410.693	9177.95168
411.194	8294.17224
411.694	7750.127
412.195	7120.56412
412.696	6507.20183
413.196	6116.83489
413.696	5877.38257
414.196	5837.97671
414.696	5698.51159
415.196	5316.46619
415.696	4800.64866
416.196	4018.58014
416.695	3069.33127
417.195	2575.55975
417.694	2526.85894
418.194	2340.02061
418.693	2190.37552
419.192	2137.54774
419.691	2155.55726
420.19	2054.55117
420.688	2029.69479
421.187	1869.93541
421.685	1749.35006
422.184	1576.28117
422.682	1431.00225
423.18	1247.9912
423.678	1069.77845
424.176	984.6837
424.674	932.5366
425.172	887.60959
425.669	860.68207
426.167	816.49137
426.664	731.34548
427.161	649.2218
427.659	645.32923
428.156	591.0476
428.652	538.17667
429.149	489.03438
429.646	438.83915
430.143	517.07796
430.639	440.92084
431.135	382.8468
431.632	373.76249
432.128	373.81325
432.624	298.69545
433.12	374.77129
433.616	332.65513
434.111	269.59473
434.607	246.54604
435.103	224.43018
435.598	281.52884
436.093	248.53191
436.588	287.59228
437.083	249.51848
437.578	235.4963
438.073	137.32157
438.568	179.41044
439.062	213.42278
439.557	160.35176
440.051	175.37315
440.546	208.44516
441.04	110.24722
441.534	159.3828
442.028	153.34689
442.522	180.40818
443.015	159.32725
443.509	169.39202
444.002	144.33555
444.496	87.17874
444.989	171.3976
445.482	112.26509
445.975	126.27445
446.468	94.19351
446.961	113.22786
447.454	86.1835
447.947	169.38425
448.439	119.27899
448.931	158.33742
449.424	99.23473
449.916	113.25818
450.408	139.3036
450.9	82.1907
451.392	84.20472
451.884	48.10477
452.375	79.18688
452.867	78.16824
453.358	63.13597
453.849	63.1282
454.341	104.22403
454.832	87.17963
455.323	77.18074
455.814	75.16409
456.304	67.14752
456.795	56.12172
457.285	90.1887
457.776	23.0496
458.266	88.20175
458.756	79.17933
459.247	61.13892
459.737	104.23919
460.226	108.23114
460.716	75.1726
461.206	42.09598
461.695	93.22391
462.185	77.17508
462.674	80.17359
463.163	21.04453
463.653	69.1392
464.142	42.09698
464.63	81.18894
465.119	108.24023
465.608	54.11892
466.096	45.09458
466.585	23.05049
467.073	14.03207
467.561	108.25127
468.05	57.12571
468.538	91.21626
469.026	52.12065
469.513	63.12709
470.001	87.18777
470.489	39.08893
470.976	13.02905
471.463	71.17139
471.951	53.12755
472.438	51.11572
472.925	-3.00675
473.412	-23.05451
473.899	77.16989
474.385	42.09945
474.872	43.09626
475.359	77.18024
475.845	39.0777
476.331	53.10908
476.817	-11.02582
477.303	31.06948
477.789	28.06509
478.275	-7.01699
478.761	18.0418
479.247	11.02369
479.732	57.13801
480.218	48.12064
480.703	43.10466
481.188	8.01651
481.673	33.0733
482.158	24.04994
482.643	37.0909
483.128	-60.13402
483.612	-37.08426
484.097	-1.00238
484.581	1.00222
485.066	1.00235
485.55	7.01476
486.034	48.10117
486.518	42.09552
487.002	4.00955
487.486	-8.01908
487.969	52.12436
488.453	17.04186
488.936	38.08224
489.42	16.03438
489.903	33.08056
490.386	7.01463
490.869	-19.03958
491.352	-27.06412
491.835	-22.04372
492.318	1.00221
492.8	-15.02988
493.283	27.06721
493.765	11.02649
494.247	-2.0045
494.73	48.10202
495.212	5.01169
495.694	-22.05034
496.175	-24.05595
496.657	53.12285
497.139	-69.11274
497.62	1.00233
498.102	22.05336
498.583	-28.06783
499.064	33.07226
499.545	19.04196
500.026	-46.10117
500.507	-40.09005
500.988	-5.012
501.469	-10.02432
501.949	-24.05742
502.43	-24.05571
502.91	-28.05634
503.39	10.0243
503.87	30.06864
504.35	-4.00907
504.83	-5.01068
505.31	3.00712
505.79	2.00467
506.269	5.01127
506.749	-42.09401
507.228	-7.01604
507.707	8.0172
508.187	26.05956
508.666	1.00238
509.145	-17.03883
509.623	-11.02516
510.102	18.04216
510.581	0
511.059	56.13715
511.538	-11.02772
512.016	59.13686
512.494	14.03273
512.972	84.19335
513.45	35.07968
513.928	62.14533
514.406	81.19213
514.884	86.21591
515.361	90.20898
515.839	22.04843
516.316	61.14038
516.793	83.20127
517.27	119.27648
517.747	110.27119
518.224	110.24092
518.701	93.19857
519.178	153.36766
519.654	38.0854
520.131	60.14174
520.607	100.23733
521.083	67.1482
521.56	68.15377
522.036	109.22859
522.512	103.24271
522.987	121.27768
523.463	127.28876
523.939	107.25066
524.414	50.11039
524.89	67.15178
525.365	38.08421
525.84	102.2389
526.315	53.12246
526.79	22.04772
527.265	39.08482
527.74	31.07319
528.215	28.06432
528.689	58.12564
529.164	-13.02696
529.638	22.05523
530.112	88.20199
530.587	31.06501
531.061	24.05665
531.534	39.09086
532.008	39.09144
532.482	-9.01972
532.956	30.0757
533.429	-24.05546
533.903	21.04457
534.376	15.03208
534.849	24.05429
535.322	20.04591
535.795	-15.0359
536.268	-4.00948
536.741	2.00468
537.213	45.10095
537.686	-29.06895
538.158	-8.01758
538.631	-57.13562
539.103	-58.12842
539.575	31.06219
540.047	-26.05584
540.519	-22.05104
540.991	-46.10976
541.463	-23.05493
541.934	-33.07445
542.406	-41.09661
542.877	-16.03525
543.348	-60.13943
543.82	-5.01195
544.291	-21.04717
544.762	-36.08382
545.233	3.00744
545.703	-19.04141
546.174	15.03416
546.645	-5.01195
547.115	-14.03319
547.585	0
548.056	19.04562
548.526	-8.01851
548.996	9.02111
549.466	-40.09548
549.935	21.04935
550.405	-6.01304
550.875	-78.18276
551.344	-19.04521
551.814	-59.13186
552.283	-20.04227
552.752	-48.11013
553.221	-57.1226
553.69	-20.04384
554.159	25.06094
554.628	-7.01532
555.096	-8.01988
555.565	-52.11418
556.033	-19.04366
556.502	-33.0784
556.97	-40.08679
557.438	-9.02089
557.906	-8.01855
558.374	4.00894
558.842	8.01871
559.31	-19.04132
559.777	-3.00714
560.245	14.03158
560.712	-21.04676
561.18	8.01715
561.647	24.05179
562.114	0
562.581	68.16251
563.048	71.15494
563.514	41.09826
563.981	34.075
564.448	22.04814
564.914	74.16488
565.381	40.08661
565.847	91.20296
566.313	52.11634
566.779	104.22653
567.245	87.19565
567.711	105.24289
568.176	156.3408
568.642	120.29071
569.108	168.39194
569.573	153.33587
570.038	240.46958
570.504	202.43044
570.969	187.44132
571.434	236.48627
571.899	263.58462
572.363	221.46817
572.828	294.61122
573.293	306.64468
573.757	299.63588
574.222	337.69484
574.686	341.70119
575.15	365.79311
575.614	314.65746
576.078	401.84536
576.542	453.92056
577.006	387.7929
577.469	414.91467
577.933	355.71352
578.396	466.99853
578.86	424.88736
579.323	449.95567
579.786	424.80722
580.249	415.84988
580.712	412.89922
581.175	426.94707
581.637	489.0005
582.1	423.81648
582.563	382.70675
583.025	387.85056
583.487	379.67511
583.95	349.67978
584.412	376.69703
584.874	324.71855
585.336	350.75777
585.797	326.63574
586.259	295.62547
586.721	299.64612
587.182	311.6519
587.643	290.6021
588.105	290.63459
588.566	298.56981
589.027	299.67208
589.488	237.49811
589.949	240.53449
590.41	245.44408
590.87	205.42629
591.331	240.46802
591.791	165.35351
592.252	143.30995
592.712	196.44067
593.172	210.4401
593.632	149.29727
594.092	209.43248
594.552	156.31217
595.011	174.37899
595.471	165.34602
595.931	157.32794
596.39	171.38722
596.849	114.25158
597.308	194.38894
597.768	134.32487
598.227	154.35093
598.685	81.17437
599.144	99.22035
599.603	99.22345
600.062	83.16467
600.52	132.27933
600.978	199.44493
601.437	157.33608
601.895	99.19898
602.353	102.21187
602.811	144.29991
603.269	70.15971
603.727	129.29307
604.184	89.19159
604.642	96.22362
605.099	101.22181
605.557	51.11807
606.014	74.15158
606.471	122.29367
606.928	167.35053
607.385	137.32282
607.842	173.37706
608.299	203.43962
608.755	137.312
609.212	173.36296
609.668	171.35845
610.125	126.28596
610.581	131.28673
611.037	157.33361
611.493	144.31738
611.949	131.29906
612.405	197.36929
612.861	189.40598
613.316	160.36253
613.772	244.51677
614.227	136.30339
614.683	231.45444
615.138	184.40894
615.593	134.29063
616.048	160.33695
616.503	183.41978
616.958	161.38011
617.412	130.29037
617.867	169.35472
618.321	154.28889
618.776	171.35131
619.23	153.34096
619.684	153.31916
620.138	131.27885
620.592	131.29858
621.046	192.41553
621.5	134.30572
621.954	152.31672
622.407	157.32444
622.861	78.17753
623.314	95.20486
623.768	135.29673
624.221	129.23931
624.674	69.14937
625.127	134.29472
625.58	73.15363
626.033	66.13575
626.485	122.2743
626.938	74.16611
627.39	93.20493
627.843	103.22249
628.295	99.21651
628.747	127.28384
629.199	114.24673
629.651	85.18369
630.103	113.24566
630.555	13.02609
631.006	88.19501
631.458	34.07547
631.909	68.14654
632.361	39.0858
632.812	52.11509
633.263	47.09508
633.714	41.08195
634.165	5.01141
634.616	45.10136
635.067	27.0561
635.518	18.04044
635.968	95.17658
636.419	55.11141
636.869	53.1187
637.319	43.09464
637.769	63.13457
638.219	52.11596
638.669	54.12345
639.119	65.14988
639.569	48.11185
640.019	67.14597
640.468	38.07943
640.918	50.11422
641.367	82.17428
641.816	71.15094
642.265	59.12968
642.714	105.2307
643.163	107.22756
643.612	85.19678
644.061	23.04608
644.51	58.1266
644.958	60.12535
645.406	67.15363
645.855	43.1005
646.303	72.15849
646.751	79.17204
647.199	88.18548
647.647	148.32305
648.095	115.2466
648.543	88.1659
648.99	132.29848
649.438	122.27002
649.885	125.29466
650.333	123.21646
650.78	121.28124
651.227	151.34777
651.674	143.30625
652.121	108.24491
652.568	91.21034
653.015	82.19334
653.461	62.14083
653.908	154.33429
654.354	60.13451
654.801	74.1659
655.247	122.24912
655.693	100.24889
656.139	91.20649
656.585	101.2302
657.031	65.14647
657.477	153.31078
657.922	139.30321
658.368	97.2259
658.813	18.03916
659.259	95.21766
659.704	105.2337
660.149	75.16631
660.594	126.28271
661.039	98.21301
661.484	73.16625
661.929	89.19678
662.373	31.07661
662.818	72.17253
663.262	52.11955
663.707	46.11157
664.151	113.26523
664.595	20.04672
665.039	58.1376
665.483	83.20421
665.927	59.13176
666.371	14.03166
666.814	68.15464
667.258	110.25026
667.701	54.10866
668.145	80.18899
668.588	57.13478
669.031	30.06875
669.474	106.24174
669.917	57.11938
670.36	42.09964
670.803	97.22135
671.245	68.13475
671.688	52.12098
672.13	-36.07828
672.573	61.14959
673.015	56.12823
673.457	85.17699
673.899	59.13594
674.341	63.14521
674.783	70.16164
675.225	72.1691
675.666	69.15974
676.108	72.14929
676.549	7.01592
676.991	29.06095
677.432	23.04309
677.873	41.09042
678.314	51.11634
678.755	68.15939
679.196	58.12789
679.637	20.04662
680.078	29.06487
680.518	25.05477
680.959	12.0277
681.399	17.04039
681.839	63.14637
682.28	57.13588
682.72	19.04159
683.16	27.06513
683.6	112.23981
684.039	-9.01791
684.479	7.01667
684.919	27.06067
685.358	50.12113
685.798	12.0303
686.237	24.05557
686.676	29.06423
687.115	30.06762
687.554	34.07738
687.993	26.05401
688.432	82.17967
688.871	55.11891
689.309	142.32789
689.748	76.1494
690.186	36.08137
690.625	49.112
691.063	74.17115
691.501	69.16335
691.939	21.05062
692.377	39.09169
692.815	34.07923
693.253	-3.00688
693.69	31.06498
694.128	52.12237
694.565	22.05064
695.003	35.08595
695.44	7.01579
695.877	15.03417
696.314	15.03071
696.751	26.05627
697.188	24.05332
697.625	78.1673
698.061	38.08764
698.498	62.14282
698.934	-30.06949
699.371	-6.01377
699.807	33.07509
700.243	32.07501
700.679	49.10562
701.115	31.06923
701.551	38.08631
701.987	31.06567
702.422	-1.00229
702.858	-23.05266
703.294	-20.04336
703.729	32.07574
704.164	55.12763
704.599	-19.0405
705.035	45.09646
705.47	43.1018
705.904	-26.05841
706.339	-13.02867
706.774	-24.05405
707.209	-25.05562
707.643	38.08743
708.078	-14.03288
708.512	18.04434
708.946	-13.02987
709.38	-28.06375
709.814	-9.01963
710.248	-15.03486
710.682	15.03464
711.116	17.03951
711.549	-36.0899
711.983	-39.08659
712.416	-45.10178
712.85	43.10353
713.283	-3.00683
713.716	7.01681
714.149	7.01579
714.582	5.01078
715.015	17.04056
715.448	-41.09886
715.881	-4.00816
716.313	33.07442
716.746	-12.02744
717.178	-16.03699
717.61	58.14062
718.043	-38.09095
718.475	-25.05827
718.907	-16.03843
719.339	-16.03494
719.77	-17.03953
720.202	-22.05372
720.634	20.04714
721.065	-23.05242
721.497	-12.02847
721.928	11.02616
722.359	-13.03081
722.79	16.03673
723.221	-37.08925
723.652	13.03186
724.083	0
724.514	-51.11083
724.945	-4.00904
725.375	-20.04495
725.806	-54.12826
726.236	-8.0197
726.666	-21.04738
727.096	-18.04221
727.526	-42.104
727.956	-6.01305
728.386	-33.07704
728.816	-18.0442
729.246	0
729.675	-19.04564
730.105	-25.05891
730.534	-12.02691
730.964	-29.06982
731.393	6.01395
731.822	6.0148
732.251	1.00246
732.68	-31.0682
733.109	-17.04046
733.537	-48.1119
733.966	-50.11967
734.395	-42.09249
734.823	30.06323
735.251	-9.02083
735.68	-35.08404
736.108	-25.06062
736.536	-18.04062
736.964	-7.01543
737.392	-19.04533
737.82	33.07467
738.247	-44.10043
738.675	40.08894
739.102	10.02425
739.53	-8.01981
739.957	-44.10904
740.384	-16.03728
740.811	3.00733
741.238	-25.05818
741.665	34.07594
742.092	-29.06559
742.519	-30.07254
742.945	-3.00687
743.372	17.04039
743.798	-34.08435
744.225	-45.10269
744.651	-26.06247
745.077	-1.00239
745.503	-55.12839
745.929	0
746.355	-20.04668
746.781	2.00473
747.207	11.02498
747.632	-48.11405
748.058	-49.11681
748.483	-30.06523
748.908	-23.05493
749.334	-31.07316
749.759	-38.08568
750.184	-24.05478
750.609	-24.05619
751.033	-30.06634
751.458	54.11462
751.883	3.00704
752.307	23.05227
752.732	-6.01462
753.156	-20.04738
753.58	4.00898
754.005	34.08293
754.429	-59.13137
754.853	-13.03106
755.277	-3.00682
755.7	27.06352
756.124	11.02647
756.548	-8.01826
756.971	-14.03253
757.394	51.12488
757.818	3.00748
758.241	-30.0729
758.664	27.06584
759.087	3.00651
759.51	18.04269
759.933	16.03701
760.356	9.02206
760.778	30.07156
761.201	-66.15204
761.623	-25.05696
762.046	-45.09954
762.468	8.01817
762.89	58.1351
763.312	11.02534
763.734	-15.03475
764.156	32.07545
764.578	34.0727
765	28.06486
765.421	61.15031
765.843	1.00253
766.264	0
766.686	58.13935
767.107	-1.00235
767.528	49.11967
767.949	18.04374
768.37	-51.12022
768.791	11.02514
769.212	33.08053
769.632	-26.05793
770.053	1.00254
770.473	-25.05854
770.894	5.01178
771.314	7.01564
771.734	-17.03752
772.154	-11.0272
772.575	33.0718
772.994	-11.02388
773.414	-25.05601
773.834	32.07674
774.254	-23.05367
774.673	-63.14718
775.093	28.06653
775.512	7.01662
775.931	20.04904
776.351	-35.08308
776.77	7.01644
777.189	-40.09045
777.607	-9.02219
778.026	29.06934
778.445	-22.05386
778.864	-20.04905
779.282	-72.16573
779.701	-14.03392
780.119	-48.11651
780.537	-51.12269
780.955	-20.04864
781.373	22.05167
781.791	-28.06047
782.209	46.10007
782.627	40.10136
783.045	20.04345
783.462	-34.08314
783.88	-57.14411
784.297	-35.0849
784.715	10.02505
785.132	8.01841
785.549	38.09165
785.966	33.07855
786.383	11.026
786.8	33.07232
787.217	-17.03834
787.633	-13.03123
788.05	-40.08809
788.466	41.08997
788.883	-4.0099
789.299	-29.06612
789.715	72.16586
790.131	-20.04738
790.547	-48.11309
790.963	-21.05
791.379	5.01212
791.795	14.03001
792.21	-21.04653
792.626	-9.02027
793.041	-18.04219
793.457	7.01637
793.872	14.03123
794.287	6.01401
794.702	26.0603
795.117	-6.01414
795.532	27.0653
795.947	-1.00226
796.362	-1.00224
796.776	-1.00214
797.191	-27.0629
797.605	21.04779
798.02	14.03268
798.434	-15.03116
798.848	-57.13426
799.262	35.08385
799.676	16.03655
800.09	-68.16039
800.504	-15.03463
800.918	-8.01748
801.331	-12.02992
801.745	-29.06299
802.158	-29.06934
802.572	29.06591
802.985	7.01578
803.398	18.04054
803.811	24.05817
804.224	-17.0402
804.637	-40.08946
805.05	-19.04169
805.462	1.00232
805.875	11.02787
806.288	28.06473
806.7	12.02868
807.112	1.00219
807.525	15.0353
807.937	-35.08315
808.349	11.02606
808.761	-37.08569
809.173	-41.09383
809.584	-28.06563
809.996	-5.01174
810.408	-49.12296
810.819	-27.06067
811.231	21.0533
811.642	1.00237
812.053	4.00921
812.464	26.05896
812.875	5.01224
813.286	-18.04425
813.697	1.00214
814.108	-23.05289
814.519	-28.05832
814.929	-17.04093
815.34	-6.01378
815.75	-20.04869
816.16	-46.10778
816.571	-27.06748
816.981	-51.1129
817.391	-37.08488
817.801	16.03832
818.211	26.0586
818.62	-25.05714
819.03	-32.07386
819.44	3.00744
819.849	25.06001
820.259	13.03178
820.668	6.01422
821.077	-27.06444
821.486	-18.04057
821.895	-25.05758
822.304	-14.0357
822.713	9.01997
823.122	29.069
823.531	21.04717
823.939	-32.07466
824.348	46.10546
824.756	23.05424
825.164	-14.03327
825.573	-2.00478
825.981	13.03056
826.389	-35.08283
826.797	17.04048
827.205	0
827.612	16.03699
828.02	14.03135
828.428	-52.12678
828.835	-15.03806
829.243	26.05791
829.65	5.01186
830.057	23.05333
830.464	47.10907
830.871	46.10249
831.278	-5.01133
831.685	-9.01855
832.092	31.07197
832.499	-15.03054
832.905	-5.01212
833.312	26.0548
833.718	1.00235
834.124	11.02364
834.531	-15.0358
834.937	-8.01937
835.343	-9.0206
835.749	-31.06771
836.155	-13.0325
836.561	-99.23047
836.966	-12.02772
837.372	-10.02414
837.777	-27.06375
838.183	-59.12072
838.588	-24.05725
838.993	-36.08233
839.399	-9.02078
839.804	7.01638
840.209	39.09496
840.613	102.21036
841.018	-58.1394
841.423	-19.046
841.828	-6.01443
842.232	-24.0554
842.637	-19.0416
843.041	2.00498
843.445	-35.08302
843.849	-7.01647
844.253	-6.0133
844.657	15.03622
845.061	18.03824
845.465	63.14585
845.869	13.02813
846.272	-61.1424
846.676	17.03887
847.079	-27.06636
847.483	24.05628
847.886	-11.02481
848.289	56.14452
848.692	-17.04093
849.095	-13.02914
849.498	-36.08511
849.901	5.01061
850.304	-39.0877
850.707	12.02892
851.109	-33.07794
851.512	-9.02119
851.914	15.03673
852.316	40.09588
852.718	-28.0704
853.121	38.08761
853.523	14.03057
853.925	-34.08552
854.326	2.00482
854.728	0
855.13	2.00497
855.531	66.14991
855.933	-5.01128
856.334	9.02142
856.736	-37.07742
857.137	-9.01972
857.538	-34.08184
857.939	5.01181
858.34	-57.13159
858.741	8.0199
859.142	0
859.542	50.12814
859.943	0
860.343	9.02129
860.744	65.14875
861.144	-15.03469
861.544	9.02079
861.945	-40.09691
862.345	-48.10969
862.745	-8.01888
863.145	30.06546
863.544	12.02915
863.944	-8.01772
864.344	-50.11683
864.743	30.07005
865.143	-8.01959
865.542	-14.03043
865.941	51.11976
866.34	42.09416
866.74	22.0563
867.139	19.04315
867.537	2.0048
867.936	42.09509
868.335	9.02194
868.734	52.12688
869.132	56.12193
869.531	1.00227
869.929	-11.02388
870.327	-23.05225
870.726	20.04679
871.124	-16.03484
871.522	-40.0965
871.92	15.0348
872.318	40.092
872.715	30.06938
873.113	16.03686
873.511	11.02599
873.908	31.07605
874.306	-44.10515
874.703	-4.00947
875.1	-24.0581
875.497	-27.06089
875.894	25.05893
876.291	27.0629
876.688	-64.15871
877.085	-11.02476
877.482	-14.03298
877.878	-11.02515
878.275	-42.10171
878.671	-28.05652
879.068	-1.00227
879.464	19.04332
879.86	27.06077
880.256	-8.0184
880.652	-8.01933
881.048	-38.08841
881.444	-47.10448
881.84	3.00719
882.236	41.09725
882.631	15.0348
883.027	-21.04724
883.422	-11.02674
883.817	-26.06327
884.213	1.00245
884.608	18.04218
885.003	17.03872
885.398	-21.05006
885.793	-6.01421
886.188	2.00478
886.582	-7.0167
886.977	41.09046
887.371	-9.02159
887.766	5.01191
888.16	35.08231
888.554	-37.0859
888.949	-18.04223
889.343	-42.09606
889.737	-7.01823
890.131	7.01673
890.525	6.01451
890.918	30.07197
891.312	-46.10228
891.706	28.07045
892.099	-11.02649
892.492	48.09512
892.886	-13.02989
893.279	19.04588
893.672	-9.02191
894.065	-47.11191
894.458	11.0261
894.851	1.00227
895.244	-11.02682
895.637	40.09038
896.029	2.00462
896.422	-28.06455
896.814	0
897.206	13.02951
897.599	-13.02967
897.991	24.05474
898.383	-19.04215
898.775	27.05635
899.167	41.09031
899.559	-29.06953
899.951	-25.05544
900.342	-36.0857
900.734	34.08153
901.125	-44.10971
901.517	37.0858
901.908	-9.02009
902.299	-6.01396
902.69	-25.05585
903.082	24.05445
903.473	-12.02752
903.863	39.09507
904.254	3.00649
904.645	-33.07682
905.036	16.03715
905.426	-28.05819
905.817	-11.02554
906.207	-20.04539
906.597	-32.07115
906.987	-38.09289
907.378	-31.0743
907.768	29.07321
908.158	22.05058
908.547	13.03206
908.937	23.05552
909.327	-8.01824
909.717	8.019
910.106	0
910.495	8.019
910.885	-17.04017
911.274	11.02614
911.663	35.08459
912.052	31.07103
912.441	10.02437
912.83	-13.02782
913.219	-17.04192
913.608	13.02994
913.997	-61.14664
914.385	35.07693
914.774	-19.04355
915.162	-21.04701
915.55	49.1106
915.939	-8.0193
916.327	31.07268
916.715	7.01711
917.103	6.01378
917.491	-3.0069
917.878	-14.03194
918.266	25.06126
918.654	34.08314
919.041	-59.14869
919.429	-18.0403
919.816	-34.08172
920.203	4.00916
920.591	-25.05836
920.978	8.01838
921.365	-17.04243
921.752	31.06948
922.139	24.04852
922.525	-19.04313
922.912	29.06596
923.299	-8.01896
923.685	-34.08512
924.072	-21.04482
924.458	22.05139
924.844	-11.02576
925.231	-31.06751
925.617	16.03929
926.003	12.02904
926.389	37.08888
926.774	23.05535
927.16	-14.03275
927.546	-1.00244
927.931	5.01178
928.317	-11.02323
928.702	5.01097
929.088	6.0134
929.473	-3.00726
929.858	19.04416
930.243	58.13067
930.628	-39.08982
931.013	27.06392
931.398	-19.0405
931.783	9.02253
932.167	-32.07377
932.552	-17.03979
932.937	-29.06711
933.321	-68.16294
933.705	7.01692
934.09	-9.02119
934.474	-8.01782
934.858	30.07407
935.242	6.01326
935.626	-87.21389
936.009	-11.02797
936.393	45.10892
936.777	7.01718
937.16	-26.06377
937.544	29.06331
937.927	-4.00968
938.311	24.05438
938.694	-4.01008
939.077	-69.15619
939.46	28.06473
939.843	-36.0684
940.226	-17.04129
940.609	-25.05363
940.991	-17.04121
941.374	-46.10635
941.757	11.02548
942.139	-22.04582
942.522	-27.0592
942.904	21.04748
943.286	23.05456
943.668	4.00984
944.05	6.01393
944.432	-6.01408
944.814	-8.01841
945.196	-2.00468
945.578	-1.00227
945.959	-32.071
946.341	-2.00452
946.722	21.04624
947.104	-24.05365
947.485	10.02167
947.866	51.1219
948.247	-1.00239
948.628	11.025
949.009	-8.01958
949.39	-12.02767
949.771	28.05998
950.152	-1.00233
950.532	60.14289
950.913	-42.09486
951.293	7.01828
951.674	-39.08867
952.054	-14.03305
952.434	-26.06071
952.814	-29.06388
953.194	40.09923
953.574	-29.06661
953.954	18.04002
954.334	45.10583
954.714	-41.09545
955.093	-36.08277
955.473	-54.12801
955.853	26.06403
956.232	-18.04743
956.611	-27.05982
956.99	14.03342
957.37	6.01449
957.749	-11.02441
958.128	31.07449
958.506	5.01246
958.885	-9.02143
959.264	-48.11238
959.643	98.20429
960.021	11.02576
960.4	59.12532
960.778	-46.1055
961.156	-27.06439
961.535	-64.13774
961.913	-36.07755
962.291	29.0714
962.669	-7.0169
963.047	-52.12531
963.424	-23.05623
963.802	-41.09477
964.18	-10.02379
964.557	-4.00845
964.935	3.00663
965.312	6.01497
965.69	-3.00706
966.067	13.02946
966.444	21.04854
966.821	13.03152
967.198	11.0246
967.575	0
967.952	-23.05107
968.329	-44.1012
968.705	-13.02534
969.082	15.03674
969.458	1.00229
969.835	13.02964
970.211	-7.01711
970.587	66.15325
970.963	14.03389
971.339	6.01506
971.715	-31.07225
972.091	1.00231
972.467	-3.00693
972.843	-11.02588
973.219	13.02871
973.594	1.0025
973.97	0
974.345	-22.04965
974.721	42.09408
975.096	-60.13673
975.471	4.00893
975.846	19.04313
976.221	7.01687
976.596	-16.03622
976.971	-19.04444
977.346	-28.06031
977.72	11.02644
978.095	36.08813
978.469	13.02913
978.844	48.11265
979.218	-24.05498
979.593	41.09167
979.967	24.0552
980.341	-22.04715
980.715	1.00237
981.089	-3.00702
981.463	30.06485
981.837	11.02554
982.21	24.05137
982.584	20.04497
982.957	60.14147
983.331	21.04633
983.704	13.03031
984.078	-52.12132
984.451	-28.06442
984.824	32.07375
985.197	-22.0503
985.57	0
985.943	-23.05251
986.316	8.01845
986.688	22.04934
987.061	-32.06982
987.434	11.02728
987.806	43.09654
988.179	-37.08184
988.551	-25.05978
988.923	-6.01389
989.295	-11.02591
989.667	35.07997
990.039	-19.04477
990.411	-11.02398
990.783	18.03829
991.155	14.03215
991.527	-26.0591
991.898	-27.06343
992.27	-50.11826
992.641	-4.00942
993.012	82.17906
993.384	-1.00224
993.755	-28.06763
994.126	22.04965
994.497	10.02307
994.868	16.03435
995.239	-22.05074
995.61	-17.04046
995.98	34.0782
996.351	5.0118
996.722	44.09559
997.092	-4.00902
997.462	16.03543
997.833	15.03303
998.203	3.00678
998.573	6.01423
998.943	-40.08742
999.313	-4.00908
999.683	-39.08767
1000.053	38.08147
1000.423	35.07948
1000.792	30.07366
1001.162	32.07436
1001.531	50.11596
1001.901	7.01636
1002.27	17.03546
1002.639	17.04125
1003.009	56.1256
1003.378	-17.04147
1003.747	-11.02429
1004.116	28.06308
1004.485	-5.01132
1004.853	18.04307
1005.222	20.04812
1005.591	-10.02209
1005.959	19.04043
1006.328	-37.07787
1006.696	-17.03906
1007.064	28.06638
1007.433	2.00475
1007.801	0
1008.169	-40.09548
1008.537	63.12832
1008.905	-3.00659
1009.273	31.07165
1009.64	-59.13486
1010.008	-14.0313
1010.375	64.14378
1010.743	-20.04214
1011.11	21.04661
1011.478	-19.04441
1011.845	-60.13136
1012.212	-27.05662
1012.579	-14.03261
1012.946	-6.01316
1013.313	21.04645
1013.68	37.07601
1014.047	-23.05263
1014.414	5.01119
1014.78	23.05437
1015.147	30.06659
1015.513	24.05509
1015.88	2.00476
1016.246	22.05112
1016.612	24.05034
1016.978	3.00689
1017.344	27.06345
1017.71	-21.04721
1018.076	8.01757
1018.442	18.04354
1018.808	-28.06663
1019.174	-18.04256
1019.539	-3.00622
1019.905	6.01336
1020.27	-5.01179
1020.636	7.01568
1021.001	-31.06954
1021.366	54.1232
1021.731	38.09255
1022.096	-9.02178
1022.461	-4.00876
1022.826	-18.04037
1023.191	-15.03763
1023.556	-40.08705
1023.92	-4.00915
1024.285	-32.07357
1024.649	-5.01156
1025.014	15.03486
1025.378	39.09322
1025.742	13.03035
1026.107	-21.04379
1026.471	-18.03844
1026.835	-75.17584
1027.199	-1.00228
1027.562	36.07821
1027.926	30.06831
1028.29	-22.05314
1028.654	1.00212
1029.017	5.01162
1029.381	6.01353
1029.744	6.01461
1030.107	22.04749
1030.471	-21.04717
1030.834	-46.09649
1031.197	-33.07379
1031.56	11.02457
1031.923	-43.10627
1032.286	1.00218
1032.648	12.02663
1033.011	-28.0606
1033.374	-62.13579
1033.736	-45.11353
1034.099	-25.05804
1034.461	-2.00484
1034.823	-37.08715
1035.185	-6.01405
1035.548	-15.03435
1035.91	22.04971
1036.272	0
1036.634	-10.02271
1036.995	21.04655
1037.357	-56.13013
1037.719	-9.02059
1038.08	-46.10117
1038.442	5.01138
1038.803	-37.08331
1039.165	-15.036
1039.526	4.00909
1039.887	-3.0068
1040.248	13.03088
1040.609	10.02318
1040.97	-35.08096
1041.331	-64.15224
1041.692	-14.03102
1042.053	-5.01049
1042.413	8.01714
1042.774	12.0272
1043.134	20.0438
1043.495	-16.0378
1043.855	-14.03206
1044.215	-13.03039
1044.576	-4.00907
1044.936	63.13364
1045.296	-3.00702
1045.656	24.05513
1046.016	11.02449
1046.375	49.11182
1046.735	4.00858
1047.095	-4.00879
1047.454	30.05795
1047.814	-48.10845
1048.173	20.04364
1048.533	15.03219
1048.892	-34.07801
1049.251	8.01894
1049.61	-42.09698
1049.969	26.05762
1050.328	-3.00592
1050.687	4.00912
1051.046	80.18208
1051.405	-36.08379
1051.763	22.04733
1052.122	9.02143
1052.48	14.03199
1052.839	4.00883
1053.197	4.00883
1053.555	-65.1342
1053.914	-8.01834
1054.272	34.07629
1054.63	-47.10846
1054.988	-23.05134
1055.345	-53.10515
1055.703	-11.02462
1056.061	-18.04413
1056.419	2.00495
1056.776	6.01357
1057.134	-13.02808
1057.491	-4.00943
1057.848	-6.014
1058.206	-28.06184
1058.563	17.03507
1058.92	-9.01913
1059.277	-47.10799
1059.634	-61.13267
1059.991	28.06288
1060.348	7.01488
1060.704	-37.08365
1061.061	-15.03176
1061.418	-45.10439
1061.774	39.09158
1062.131	5.0129
1062.487	-46.10066
1062.843	3.00704
1063.199	38.08918
1063.555	13.02835
1063.911	-28.06689
1064.267	1.00186
1064.623	61.13954
1064.979	-13.02803
1065.335	8.01754
1065.691	29.06554
1066.046	-10.02018
1066.402	-23.04887
1066.757	25.05948
1067.112	-39.08957
1067.468	24.05394
1067.823	22.04961
1068.178	57.12897
1068.533	-18.04075
1068.888	-24.05332
1069.243	43.09979
1069.598	-29.06543
1069.952	-26.05603
1070.307	43.10152
1070.662	12.02677
1071.016	32.06706
1071.371	3.00632
1071.725	-41.08993
1072.079	-19.04294
1072.434	25.05673
1072.788	19.04262
1073.142	33.0767
1073.496	-5.01114
1073.85	-3.00648
1074.203	-8.01817
1074.557	40.10154
1074.911	-2.00441
1075.265	-61.13222
1075.618	61.13898
1075.971	1.00221
1076.325	-16.03866
1076.678	-26.05581
1077.031	-18.03796
1077.385	44.08968
1077.738	18.03781
1078.091	57.12154
1078.444	-29.06221
1078.796	-11.02569
1079.149	-18.04173
1079.502	-17.03789
1079.855	22.04806
1080.207	-31.07208
1080.56	-31.07638
1080.912	-5.01125
1081.264	30.06734
1081.617	42.09582
1081.969	3.00731
1082.321	-19.04387
1082.673	-8.01733
1083.025	9.01976
1083.377	15.02901
1083.728	-17.03631
1084.08	6.01423
1084.432	-85.19091
1084.783	63.13772
1085.135	31.07418
1085.486	10.02153
1085.838	-62.14567
1086.189	-27.06191
1086.54	-6.01344
1086.891	19.04604
1087.242	-49.11227
1087.593	-20.04545
1087.944	-28.05907
1088.295	-4.00835
1088.646	44.09958
1088.996	-27.06132
1089.347	-6.01377
1089.698	13.02907
1090.048	35.08494
1090.398	24.05203
1090.749	29.06492
1091.099	21.05037
1091.449	27.06258
1091.799	-8.01888
1092.149	2.00472
1092.499	-2.00461
1092.849	-14.03385
1093.199	-16.03771
1093.548	14.03175
1093.898	-29.06913
1094.248	59.14199
1094.597	-10.02467
1094.947	-13.03308
1095.296	-11.02551
1095.645	-20.04931
1095.994	30.06764
1096.343	64.15236
1096.692	-23.0585
1097.041	-13.03406
1097.39	-22.05211
1097.739	28.06913
1098.088	-14.03539
1098.437	2.00503
1098.785	3.00767
1099.134	-27.06758
1099.482	-5.01306
1099.83	7.01739
1100.179	42.10522
1100.527	-17.04283
1100.875	4.01007
1101.223	37.09394
1101.571	-15.04011
1101.919	-50.12693
1102.267	21.05748
1102.615	7.02249
1102.962	14.04486
1103.31	13.0417
1103.658	-3.00962
