Data from N3 R5 sample 10_Subt2__0__13-34-19-615.txt Node

Date: Thu Sep 18 13:34:19 PDT 2025
User: uwsun
Spectrometer: HDX01956
Trigger mode: 0
Integration Time (sec): 5.000000E-1
Scans to average: 1
Nonlinearity correction enabled: true
Boxcar width: 0
Storing dark spectrum: false
XAxis mode: Wavelengths
Number of Pixels in Spectrum: 2068
>>>>>Begin Spectral Data<<<<<
194.03	2.00581
194.578	7.02275
195.127	3.00963
195.676	2.00641
196.225	-4.01058
196.773	24.0668
197.321	11.03067
197.87	17.04394
198.418	80.20653
198.966	57.15033
199.513	23.05904
200.061	11.02809
200.609	30.07927
201.156	-17.03713
201.704	1.00253
202.251	-4.01069
202.798	2.00526
203.345	59.14559
203.892	8.02027
204.438	26.06232
204.985	36.08603
205.532	46.12378
206.078	13.03214
206.624	39.0968
207.17	5.01167
207.716	-5.01214
208.262	33.06486
208.808	19.04759
209.354	-5.01228
209.899	-3.00759
210.445	23.05803
210.99	0
211.535	23.05411
212.08	-24.05628
212.625	-12.03027
213.17	31.07832
213.715	-6.01366
214.259	65.15144
214.804	-13.03216
215.348	34.0776
215.892	39.0939
216.436	39.09065
216.98	28.06125
217.524	4.0095
218.068	47.11785
218.612	-21.05279
219.155	28.06576
219.698	7.01655
220.242	10.02486
220.785	45.10484
221.328	26.06481
221.871	24.06056
222.414	-26.06422
222.956	-23.05617
223.499	29.0649
224.041	-10.02297
224.583	39.08276
225.126	60.13307
225.668	18.04377
226.21	12.03014
226.751	-60.13124
227.293	8.01805
227.835	7.017
228.376	27.06122
228.918	48.1199
229.459	61.15241
230	11.0261
230.541	32.07266
231.082	48.11546
231.622	20.04587
232.163	10.02445
232.704	14.03453
233.244	26.06415
233.784	-1.00242
234.324	29.06431
234.864	21.04709
235.404	-5.01175
235.944	-13.03051
236.484	-11.02713
237.023	79.18449
237.563	19.04364
238.102	45.10513
238.641	34.08607
239.18	20.04694
239.719	34.08549
240.258	31.0686
240.797	48.11436
241.335	-12.02896
241.874	41.0786
242.412	17.04048
242.95	-4.00966
243.488	47.10617
244.026	21.04835
244.564	25.0509
245.102	41.09126
245.64	9.02153
246.177	22.04861
246.715	13.03067
247.252	1.00226
247.789	26.04555
248.326	-46.11022
248.863	-11.02396
249.4	91.20506
249.936	35.07093
250.473	17.03959
251.009	30.06897
251.546	39.08551
252.082	38.08319
252.618	61.13521
253.154	40.09526
253.69	56.12394
254.226	15.0355
254.761	30.06579
255.297	29.06326
255.832	17.03979
256.367	20.04655
256.903	40.0862
257.438	14.03232
257.972	7.01537
258.507	-14.03257
259.042	-47.10044
259.576	31.0665
260.111	3.00687
260.645	37.07955
261.179	-26.06044
261.713	35.07651
262.247	37.08549
262.781	50.10432
263.315	7.01712
263.849	-5.0125
264.382	36.08134
264.915	42.09822
265.449	2.0049
265.982	-7.01568
266.515	36.08715
267.048	34.07173
267.58	1.00214
268.113	37.07986
268.646	62.15257
269.178	12.02673
269.71	-10.02168
270.243	29.06556
270.775	24.06082
271.307	4.00945
271.838	-1.00235
272.37	33.08095
272.902	84.18871
273.433	27.0581
273.965	38.09289
274.496	11.02692
275.027	45.10994
275.558	36.08646
276.089	61.15158
276.62	8.02018
277.15	24.05865
277.681	-22.04688
278.211	16.03867
278.741	55.12104
279.272	23.05227
279.802	40.09934
280.332	28.06574
280.861	60.14251
281.391	42.09385
281.921	32.07533
282.45	74.18458
282.98	35.091
283.509	23.05132
284.038	-33.07421
284.567	-17.03893
285.096	39.09368
285.625	51.11624
286.153	2.00467
286.682	-34.07757
287.21	42.10006
287.739	23.05361
288.267	10.02429
288.795	60.1556
289.323	34.08013
289.851	16.03711
290.378	23.05143
290.906	31.07523
291.433	34.08435
291.961	-49.11119
292.488	40.09891
293.015	74.17346
293.542	29.0728
294.069	24.05871
294.596	51.12479
295.122	40.09486
295.649	29.0642
296.175	7.01669
296.702	39.09272
297.228	-29.06958
297.754	27.0601
298.28	47.1053
298.806	42.10091
299.332	15.0331
299.857	17.03807
300.383	10.02501
300.908	39.09507
301.433	70.16901
301.958	20.04511
302.483	41.10318
303.008	-7.01718
303.533	-15.03845
304.058	16.03742
304.582	43.10113
305.107	33.08639
305.631	24.05392
306.155	95.21985
306.679	33.07704
307.203	50.11541
307.727	75.1768
308.251	37.0906
308.775	-7.01664
309.298	60.14377
309.822	-3.00757
310.345	74.17312
310.868	26.0619
311.391	50.12172
311.914	39.09747
312.437	-3.00678
312.96	54.12678
313.482	18.0428
314.005	38.09496
314.527	56.14642
315.049	35.08741
315.571	66.149
316.093	62.15325
316.615	52.1256
317.137	27.05802
317.659	42.10006
318.18	27.0651
318.702	34.07898
319.223	25.0512
319.744	52.11648
320.265	48.11629
320.786	60.14765
321.307	27.06743
321.828	91.20489
322.348	97.22635
322.869	23.05337
323.389	206.36872
323.909	-14.03241
324.43	49.11632
324.95	75.17094
325.47	67.1643
325.989	93.22076
326.509	3.00668
327.029	31.06991
327.548	65.14605
328.067	52.1247
328.587	66.16361
329.106	107.23845
329.625	5.01292
330.144	64.14508
330.662	57.13154
331.181	78.18126
331.7	36.08399
332.218	73.1585
332.736	85.19499
333.255	37.08597
333.773	55.1299
334.291	29.07143
334.808	26.05755
335.326	89.19908
335.844	89.20735
336.361	70.17574
336.879	60.13899
337.396	28.06676
337.913	60.1364
338.43	71.16039
338.947	65.15406
339.464	50.10687
339.981	86.20308
340.497	95.23201
341.014	53.12741
341.53	68.15427
342.046	80.19527
342.562	108.26489
343.078	60.13993
343.594	122.28831
344.11	86.20174
344.626	83.2082
345.141	142.31979
345.657	31.06943
346.172	50.11935
346.687	90.20534
347.202	82.18255
347.717	102.24077
348.232	137.33669
348.747	108.24471
349.261	112.24654
349.776	77.17819
350.29	139.33858
350.805	68.16524
351.319	94.21706
351.833	80.18164
352.347	93.2124
352.861	112.25749
353.374	74.16733
353.888	93.22017
354.401	85.19303
354.915	68.15283
355.428	113.27771
355.941	127.2918
356.454	145.31751
356.967	89.20882
357.48	82.18573
357.993	127.30611
358.505	157.37927
359.018	69.16537
359.53	83.19695
360.042	65.14101
360.554	111.26278
361.066	58.13972
361.578	165.35336
362.09	121.28324
362.602	136.29371
363.113	97.21814
363.625	158.35013
364.136	137.29416
364.647	112.25697
365.158	143.32685
365.669	149.35423
366.18	84.19088
366.691	159.34169
367.201	120.27919
367.712	98.21645
368.222	183.41203
368.733	142.3047
369.243	101.21724
369.753	142.31782
370.263	138.31815
370.773	126.30525
371.282	126.29199
371.792	153.33969
372.301	126.29892
372.811	157.39692
373.32	207.42181
373.829	224.51166
374.338	186.39962
374.847	167.36923
375.356	197.45479
375.865	190.3892
376.373	284.60885
376.882	186.45364
377.39	223.51645
377.898	217.51786
378.407	189.40493
378.915	196.40367
379.423	231.52137
379.93	218.46918
380.438	309.71105
380.946	293.64535
381.453	289.65227
381.96	303.67408
382.468	349.77125
382.975	387.87625
383.482	344.71612
383.989	375.889
384.495	439.91814
385.002	451.85091
385.509	408.86446
386.015	500.89326
386.521	464.9225
387.028	472.9524
387.534	595.09855
388.04	514.06624
388.546	489.95069
389.051	556.04717
389.557	644.26321
390.063	679.31975
390.568	690.36634
391.073	727.34146
391.578	677.35337
392.084	763.35186
392.589	798.38144
393.093	808.49978
393.598	967.64701
394.103	1003.78287
394.607	1094.86958
395.112	1225.1049
395.616	1309.12409
396.12	1337.011
396.624	1567.22009
397.128	1712.38423
397.632	1812.3019
398.136	2023.37444
398.639	2186.50797
399.143	2378.7092
399.646	2715.38146
400.15	3032.18223
400.653	3337.94919
401.156	3818.318
401.659	4317.20817
402.162	5346.2828
402.664	7137.74679
403.167	10313.96703
403.67	20723.4338
404.172	50776.79901
404.674	37291.05854
405.176	4428.40989
405.678	533.47942
406.18	0
406.682	0
407.184	6962.89417
407.686	50953.82939
408.187	30412.74093
408.688	17984.59203
409.19	12369.39849
409.691	9874.02341
410.192	8261.20858
410.693	7278.47828
411.194	6469.84969
411.694	6177.95158
412.195	5623.30147
412.696	5121.35773
413.196	4678.13328
413.696	4625.87484
414.196	4653.3552
414.696	4507.04596
415.196	4237.00935
415.696	3835.18309
416.196	3172.97444
416.695	2464.39644
417.195	2091.47139
417.694	2026.85593
418.194	1807.92759
418.693	1679.16936
419.192	1763.37386
419.691	1598.26675
420.19	1640.32141
420.688	1586.40591
421.187	1499.77643
421.685	1468.14911
422.184	1324.062
422.682	1107.70648
423.18	981.68348
423.678	828.46769
424.176	721.31974
424.674	712.24463
425.172	680.29816
425.669	668.36528
426.167	634.21136
426.664	564.08102
427.161	496.97004
427.659	508.07863
428.156	447.8231
428.652	399.89974
429.149	416.89564
429.646	350.68481
430.143	360.77809
430.639	365.77657
431.135	276.62535
431.632	283.59032
432.128	296.65592
432.624	215.50995
433.12	230.48968
433.616	278.55554
434.111	254.56332
434.607	206.46106
435.103	142.2781
435.598	236.44907
436.093	187.40636
436.588	223.46682
437.083	192.40487
437.578	178.38062
438.073	146.34209
438.568	138.31904
439.062	164.32925
439.557	108.24003
440.051	119.25683
440.546	142.30824
441.04	104.23402
441.534	130.3147
442.028	137.31162
442.522	127.2911
443.015	90.18811
443.509	158.3673
444.002	145.33782
444.496	76.15653
444.989	133.31157
445.482	91.21626
445.975	73.16079
446.468	55.11422
446.961	66.13452
447.454	-7.01524
447.947	122.28003
448.439	118.2767
448.931	48.10495
449.424	42.10068
449.916	38.08813
450.408	98.21591
450.9	39.09147
451.392	56.1372
451.884	-4.00883
452.375	17.0407
452.867	74.15975
453.358	47.10179
453.849	39.0798
454.341	88.19021
454.832	27.0565
455.323	67.15757
455.814	28.06187
456.304	62.13665
456.795	29.06339
457.285	64.13496
457.776	40.08594
458.266	42.09718
458.756	-17.03934
459.247	33.07558
459.737	84.19397
460.226	86.18493
460.716	57.13165
461.206	7.01611
461.695	57.13817
462.185	85.19295
462.674	26.05707
463.163	0
463.653	55.11131
464.142	-25.0585
464.63	19.04486
465.119	15.03401
465.608	30.0664
466.096	37.0779
466.585	8.01762
467.073	-29.06701
467.561	71.16639
468.05	-33.07415
468.538	66.15761
469.026	41.09533
469.513	24.04885
470.001	13.0285
470.489	2.00459
470.976	24.05352
471.463	64.1547
471.951	20.04843
472.438	24.05476
472.925	13.02917
473.412	-18.04262
473.899	16.03575
474.385	25.05939
474.872	37.08293
475.359	-7.01666
475.845	1.00201
476.331	-4.00834
476.817	-62.14698
477.303	2.00451
477.789	-17.03987
478.275	-6.01456
478.761	27.06258
479.247	20.04299
479.732	27.06574
480.218	27.06812
480.703	49.11913
481.188	15.03091
481.673	51.11285
482.158	-13.02727
482.643	-1.00247
483.128	5.01102
483.612	-44.10035
484.097	56.13157
484.581	-33.07372
485.066	0
485.55	-48.10246
486.034	9.01913
486.518	42.09552
487.002	1.00239
487.486	9.0214
487.969	42.10064
488.453	23.05657
488.936	-32.07029
489.42	16.03438
489.903	32.07814
490.386	39.08092
490.869	-46.0964
491.352	-24.05696
491.835	-44.08789
492.318	-5.01108
492.8	-1.00199
493.283	37.09194
493.765	-23.05575
494.247	-28.06329
494.73	-26.05615
495.212	3.00701
495.694	-7.01597
496.175	-32.07472
496.657	50.11596
497.139	-19.03061
497.62	-1.00233
498.102	0
498.583	-36.08735
499.064	-6.01325
499.545	-33.07366
500.026	-58.12789
500.507	2.00446
500.988	-55.13322
501.469	-47.11508
501.949	-25.05983
502.43	-56.1308
502.91	4.00799
503.39	-15.03662
503.87	-4.00921
504.35	-50.11445
504.83	-32.06878
505.31	-13.03097
505.79	-29.06807
506.269	-32.07269
506.749	-16.03562
507.228	-46.10626
507.707	-27.05847
508.187	-21.04856
508.666	-48.11537
509.145	-58.13356
509.623	-20.04583
510.102	-48.11388
510.581	-30.07018
511.059	-5.01238
511.538	-35.08858
512.016	-1.00235
512.494	-21.04943
512.972	-1.00234
513.45	11.02516
513.928	-28.06679
514.406	-21.05079
514.884	0
515.361	11.02594
515.839	-77.17302
516.316	-61.1438
516.793	-43.10673
517.27	-22.05254
517.747	-27.06824
518.224	-86.19613
518.701	-27.05915
519.178	28.06888
519.654	-98.22638
520.131	-72.17443
520.607	-31.07543
521.083	-74.16849
521.56	-75.17453
522.036	-38.08228
522.512	-3.00721
522.987	12.02814
523.463	-29.06802
523.939	-13.03117
524.414	-14.03132
524.89	-22.05074
525.365	-32.07195
525.84	-9.02154
526.315	-92.21868
526.79	-53.11679
527.265	-24.0529
527.74	-71.17094
528.215	-21.04871
528.689	-7.01537
529.164	-113.23959
529.638	-25.0633
530.112	27.06273
530.587	8.01686
531.061	-32.07636
531.534	-45.10657
532.008	-44.10483
532.482	-45.09937
532.956	-24.06114
533.429	-131.30916
533.903	-43.09253
534.376	-61.13261
534.849	9.02042
535.322	-27.06256
535.795	-72.17417
536.268	-60.14366
536.741	-20.04701
537.213	-14.03179
537.686	-53.12659
538.158	-63.14005
538.631	-96.23012
539.103	-84.187
539.575	-36.07334
540.047	-38.08182
540.519	-97.22839
540.991	-62.14839
541.463	-15.03577
541.934	-38.08582
542.406	-75.1779
542.877	-55.12216
543.348	-76.17717
543.82	-42.10106
544.291	-58.13126
544.762	-55.12854
545.233	-2.00497
545.703	-73.16093
546.174	-78.18097
546.645	-32.07685
547.115	-45.10731
547.585	-14.03199
548.056	-20.04838
548.526	-50.11665
548.996	-74.17637
549.466	-90.21689
549.935	-20.04738
550.405	-40.08753
550.875	-85.19944
551.344	-41.09796
551.814	-104.2346
552.283	-57.12144
552.752	-60.138
553.221	-45.09654
553.69	-40.08805
554.159	-25.06151
554.628	-68.15069
555.096	-43.10755
555.565	-56.12306
556.033	-43.09927
556.502	-90.21615
556.97	-34.07368
557.438	-45.10517
557.906	-54.12638
558.374	-41.0925
558.842	-88.20966
559.31	-45.09841
559.777	-40.09592
560.245	-25.05684
560.712	-104.23555
561.18	-91.19926
561.647	-91.2012
562.114	-87.19733
562.581	-57.13947
563.048	-88.1985
563.514	-63.15397
563.981	-80.18068
564.448	-37.08198
564.914	-62.14203
565.381	-120.26869
565.847	-18.04105
566.313	-103.23779
566.779	-11.02454
567.245	-70.16248
567.711	-52.12403
568.176	0
568.642	-47.11743
569.108	-75.1833
569.573	-94.21706
570.038	-56.11726
570.504	-22.04916
570.969	-57.14086
571.434	-67.14745
571.899	-15.03526
572.363	-67.15086
572.828	-48.10739
573.293	-67.15271
573.757	-41.09364
574.222	-47.10526
574.686	-83.18696
575.15	-62.14692
575.614	-95.21688
576.078	-92.21489
576.542	-59.13388
577.006	-50.11256
577.469	-70.17022
577.933	-104.23114
578.396	8.01883
578.86	-70.16248
579.323	-76.18016
579.786	-8.01683
580.249	-65.14755
580.712	-106.2566
581.175	-78.19145
581.637	-27.06179
582.1	-40.08579
582.563	-97.20099
583.025	-85.20527
583.487	-58.11504
583.95	-54.11527
584.412	-72.14842
584.874	-45.10744
585.336	-36.08435
585.797	-94.20161
586.259	-107.24673
586.721	-95.22255
587.182	-58.13147
587.643	-5.01106
588.105	-47.11015
588.566	-22.04533
589.027	-14.03348
589.488	-49.10947
589.949	-39.09186
590.41	-19.03676
590.87	-31.06785
591.331	-45.0937
591.791	-21.0468
592.252	-42.09463
592.712	11.02567
593.172	6.01314
593.632	-73.15316
594.092	5.01082
594.552	-33.06893
595.011	-49.11177
595.471	45.09687
595.931	41.08784
596.39	16.03737
596.849	82.18217
597.308	77.15855
597.768	99.2416
598.227	109.25064
598.685	61.13188
599.144	109.2421
599.603	139.31117
600.062	112.2207
600.52	130.27521
600.978	205.45778
601.437	226.47656
601.895	215.42057
602.353	230.4641
602.811	225.46016
603.269	246.54127
603.727	261.57704
604.184	272.56246
604.642	320.71234
605.099	355.73787
605.557	334.72962
606.014	382.72796
606.471	422.95761
606.928	464.91003
607.385	450.99543
607.842	511.0319
608.299	542.08686
608.755	491.0359
609.212	568.08608
609.668	491.95639
610.125	614.25306
610.581	579.1454
611.037	627.1942
611.493	635.25345
611.949	661.34515
612.405	706.1572
612.861	687.31567
613.316	698.40605
613.772	776.451
614.227	686.35397
614.683	739.27939
615.138	750.46871
615.593	668.28199
616.048	660.23555
616.503	716.46417
616.958	729.52812
617.412	719.40825
617.867	791.4314
618.321	653.07397
618.776	716.28915
619.23	748.45927
619.684	705.28909
620.138	679.2715
620.592	615.2622
621.046	624.22392
621.5	652.32952
621.954	659.21696
622.407	641.17952
622.861	614.24342
623.314	625.19269
623.768	634.24532
624.221	567.93771
624.674	510.99978
625.127	564.12636
625.58	526.99658
626.033	514.95055
626.485	471.98288
626.938	494.01098
627.39	464.9427
627.843	421.84734
628.295	430.87442
628.747	441.92151
629.199	471.94143
629.651	420.84241
630.103	419.85147
630.555	310.57955
631.006	351.73509
631.458	324.67569
631.909	404.8077
632.361	347.71385
632.812	357.73971
633.263	349.65715
633.714	303.56884
634.165	269.58105
634.616	294.62838
635.067	255.50283
635.518	275.5851
635.968	313.5503
636.419	284.54514
636.869	292.62167
637.319	288.60115
637.769	259.5297
638.219	229.4919
638.669	237.52179
639.119	217.48518
639.569	273.60785
640.019	252.52741
640.468	153.31163
640.918	262.57284
641.367	232.47695
641.816	276.5605
642.265	215.45705
642.714	258.54857
643.163	218.45242
643.612	229.51496
644.061	180.34751
644.51	205.43351
644.958	214.43181
645.406	245.54167
645.855	203.45949
646.303	230.48947
646.751	213.45063
647.199	185.38162
647.647	251.5359
648.095	214.44907
648.543	206.3771
648.99	212.47155
649.438	233.50372
649.885	237.54648
650.333	201.34651
650.78	258.58338
651.227	188.42978
651.674	248.51904
652.121	122.27587
652.568	159.36254
653.015	130.30365
653.461	191.42246
653.908	180.38856
654.354	150.33005
654.801	148.32674
655.247	198.39732
655.693	158.38909
656.139	163.36445
656.585	210.46807
657.031	111.24777
657.477	181.36531
657.922	187.40376
658.368	167.38354
658.813	153.32327
659.259	201.4507
659.704	172.3775
660.149	199.42985
660.594	164.36509
661.039	143.30783
661.484	199.44163
661.929	185.40081
662.373	181.43493
662.818	144.3403
663.262	123.27876
663.707	150.35668
664.151	210.48355
664.595	130.29708
665.039	150.34953
665.483	160.38805
665.927	132.29032
666.371	134.29559
666.814	164.3657
667.258	180.4037
667.701	184.35916
668.145	185.42811
668.588	208.47741
669.031	131.29411
669.474	159.35873
669.917	162.33139
670.36	160.37092
670.803	206.45973
671.245	157.30463
671.688	165.37531
672.13	171.35543
672.573	214.50983
673.015	154.34567
673.457	169.34532
673.899	134.30412
674.341	165.37257
674.783	207.46492
675.225	141.32668
675.666	129.29509
676.108	185.3739
676.549	149.32902
676.991	166.33834
677.432	121.22122
677.873	100.21782
678.314	125.28087
678.755	162.37273
679.196	157.33899
679.637	146.33189
680.078	192.415
680.518	107.23034
680.959	113.25557
681.399	124.28849
681.839	172.39099
682.28	167.38968
682.72	134.28617
683.16	107.25419
683.6	238.49569
684.039	156.29857
684.479	136.31579
684.919	130.28592
685.358	109.26113
685.798	120.29715
686.237	153.34519
686.676	136.29447
687.115	197.42882
687.554	210.4609
687.993	131.26573
688.432	157.33855
688.871	136.28892
689.309	236.53472
689.748	177.33967
690.186	169.37162
690.625	231.50859
691.063	198.44662
691.501	200.46144
691.939	156.36637
692.377	183.4181
692.815	196.44211
693.253	117.26182
693.69	103.21247
694.128	155.35741
694.565	150.33642
695.003	172.41166
695.44	147.32216
695.877	194.42596
696.314	204.39971
696.751	95.20257
697.188	171.36827
697.625	141.29831
698.061	163.36655
698.498	212.4737
698.934	150.33504
699.371	146.32475
699.807	173.38249
700.243	174.3965
700.679	197.41112
701.115	162.35196
701.551	200.43932
701.987	194.39631
702.422	182.40096
702.858	166.36556
703.294	139.29111
703.729	228.51912
704.164	212.47664
704.599	161.32972
705.035	187.38852
705.47	189.43476
705.904	130.28268
706.339	109.23424
706.774	185.39876
707.209	165.3526
707.643	213.47289
708.078	159.36078
708.512	197.46924
708.946	148.32907
709.38	167.36521
709.814	178.37287
710.248	88.20037
710.682	188.41921
711.116	153.34604
711.549	183.43874
711.983	92.19869
712.416	142.3089
712.85	209.48729
713.283	172.37798
713.716	230.52896
714.149	184.40009
714.582	193.39919
715.015	190.4382
715.448	168.38901
715.881	164.32164
716.313	235.50805
716.746	219.47751
717.178	195.43185
717.61	225.52831
718.043	178.4084
718.475	221.49004
718.907	191.44059
719.339	163.34243
719.77	255.56095
720.202	227.52842
720.634	221.50044
721.065	197.429
721.497	244.55015
721.928	246.55851
722.359	253.56869
722.79	214.47165
723.221	194.44742
723.652	249.58328
724.083	195.40098
724.514	210.43095
724.945	243.52152
725.375	271.57257
725.806	187.42345
726.236	220.51889
726.666	266.56484
727.096	262.58058
727.526	264.61684
727.956	265.5432
728.386	285.62351
728.816	236.55208
729.246	281.62618
729.675	291.65758
730.105	283.62672
730.534	274.57828
730.964	263.59795
731.393	229.50883
731.822	330.76497
732.251	313.72456
732.68	231.48014
733.109	298.66612
733.537	312.67551
733.966	249.56177
734.395	291.59595
734.823	285.56701
735.251	277.60448
735.68	280.63183
736.108	273.6247
736.536	317.66623
736.964	317.65096
737.392	282.63374
737.82	251.54264
738.247	313.66276
738.675	295.62109
739.102	319.72848
739.53	326.75749
739.957	282.65682
740.384	323.70216
740.811	326.74881
741.238	292.6368
741.665	318.66848
742.092	254.54125
742.519	270.61573
742.945	276.5963
743.372	255.57789
743.798	254.59674
744.225	257.55061
744.651	264.59913
745.077	228.52038
745.503	229.50461
745.929	254.54853
746.355	248.54819
746.781	235.5304
747.207	300.6412
747.632	220.49564
748.058	253.56799
748.483	253.51696
748.908	229.52045
749.334	225.50451
749.759	195.41869
750.184	213.46285
750.609	208.46477
751.033	180.38056
751.458	301.60443
751.883	210.47292
752.307	229.49868
752.732	257.59518
753.156	218.49254
753.58	267.56709
754.005	270.62937
754.429	168.35644
754.853	218.49776
755.277	228.49429
755.7	230.51965
756.124	180.41927
756.548	171.37617
756.971	156.35031
757.394	179.42784
757.818	223.5334
758.241	181.42235
758.664	157.37354
759.087	221.45731
759.51	195.44659
759.933	197.43919
760.356	144.34412
760.778	191.44147
761.201	138.30492
761.623	105.23293
762.046	123.2625
762.468	143.3159
762.89	183.41574
763.312	96.21744
763.734	91.2064
764.156	128.29615
764.578	124.25998
765	109.24844
765.421	153.37059
765.843	145.35806
766.264	128.28401
766.686	170.39972
767.107	157.35754
767.528	115.2774
767.949	111.26501
768.37	57.13154
768.791	83.18696
769.212	124.29746
769.632	104.22547
770.053	125.31094
770.473	75.17219
770.894	75.17432
771.314	72.15876
771.734	88.18997
772.154	110.26599
772.575	103.22077
772.994	79.16823
773.414	16.03555
773.834	72.17134
774.254	29.06698
774.673	63.14353
775.093	74.17427
775.512	68.15958
775.931	122.29344
776.351	63.14672
776.77	90.2079
777.189	57.12634
777.607	62.15088
778.026	81.19176
778.445	62.14941
778.864	57.13781
779.282	31.06989
779.701	32.07685
780.119	31.07413
780.537	8.01903
780.955	58.13898
781.373	55.12834
781.791	51.10828
782.209	93.20029
782.627	61.154
783.045	45.09725
783.462	45.10842
783.88	50.12399
784.297	65.15471
784.715	72.17836
785.132	22.0505
785.549	40.09643
785.966	60.14207
786.383	61.14279
786.8	86.18637
787.217	26.05812
787.633	-1.0024
788.05	3.00655
788.466	66.14406
788.883	62.15161
789.299	-4.00907
789.715	63.14539
790.131	3.00707
790.547	2.00467
790.963	13.03075
791.379	63.1511
791.795	56.11897
792.21	37.08099
792.626	46.10245
793.041	-7.01637
793.457	-20.04703
793.872	31.06891
794.287	82.18859
794.702	22.05106
795.117	-20.04725
795.532	67.16082
795.947	12.027
796.362	18.04011
796.776	-30.06446
797.191	1.00232
797.605	52.11759
798.02	75.17294
798.434	18.03712
798.848	4.00931
799.262	33.07909
799.676	70.15816
800.09	15.03481
800.504	23.0527
800.918	11.02394
801.331	18.04464
801.745	-20.04336
802.158	52.12241
802.572	57.12881
802.985	-23.05217
803.398	14.03155
803.811	4.00973
804.224	27.0633
804.637	-52.11658
805.05	-19.04169
805.462	4.00928
805.875	63.15814
806.288	38.08768
806.7	9.02152
807.112	19.04141
807.525	14.03296
807.937	-20.04738
808.349	-34.08125
808.761	-26.06009
809.173	7.01586
809.584	3.00699
809.996	-35.08263
810.408	-15.03741
810.819	16.03563
811.231	-13.03319
811.642	23.05426
812.053	-14.03235
812.464	3.00683
812.875	-6.01472
813.286	-15.03685
813.697	3.00641
814.108	-76.17661
814.519	31.06372
814.929	-20.04818
815.34	-12.02759
815.75	5.01212
816.16	-11.0256
816.571	41.10121
816.981	-18.03957
817.391	28.06339
817.801	19.04548
818.211	36.08097
818.62	-42.09633
819.03	-22.05068
819.44	1.00248
819.849	-6.01449
820.259	21.05127
820.668	-3.00712
821.077	3.00712
821.486	-28.06324
821.895	6.01373
822.304	-5.01273
822.713	7.01554
823.122	33.07846
823.531	-5.01129
823.939	46.10567
824.348	42.09637
824.756	-22.05233
825.164	-15.03565
825.573	-21.05041
825.981	37.08658
826.389	-32.07568
826.797	-13.03113
827.205	12.02586
827.612	-41.09586
828.02	0
828.428	-28.06796
828.835	-40.10194
829.243	-3.00672
829.65	-8.01903
830.057	3.00698
830.464	29.06754
830.871	12.02693
831.278	-61.13976
831.685	-16.03303
832.092	17.03958
832.499	15.03033
832.905	-3.00727
833.312	-12.0255
833.718	19.04449
834.124	43.09177
834.531	-1.00238
834.937	5.01208
835.343	23.05232
835.749	-4.00869
836.155	-13.0325
836.561	-51.1176
836.966	-31.07188
837.372	-8.01931
837.777	-25.059
838.183	-42.08561
838.588	-11.02617
838.993	-27.06164
839.399	-33.07655
839.804	-8.01877
840.209	-11.02703
840.613	73.15153
841.018	-13.03098
841.423	-5.01207
841.828	-24.0579
842.232	-21.04844
842.637	-27.05922
843.041	9.02239
843.445	-4.00943
843.849	3.00704
844.253	-46.10283
844.657	20.04825
845.061	10.02128
845.465	41.09533
845.869	-27.05892
846.272	4.00922
846.676	15.03431
847.079	4.00977
847.483	-20.0473
847.886	-4.00901
848.289	31.08035
848.692	-19.04576
849.095	-4.00895
849.498	-25.05898
849.901	-30.06415
850.304	-10.02235
850.707	6.01448
851.109	-29.06844
851.512	42.09791
851.914	7.01717
852.316	-11.02662
852.718	16.03991
853.121	5.0116
853.523	-6.01316
853.925	-22.05521
854.326	-9.02173
854.728	-14.03441
855.13	-39.09762
855.531	28.06409
855.933	42.09381
856.334	-2.00477
856.736	-31.06478
857.137	6.01311
857.538	-16.03838
857.939	-5.01183
858.34	-1.00228
858.741	-11.02745
859.142	5.01136
859.542	63.16109
859.943	9.02139
860.343	1.00237
860.744	37.08515
861.144	23.05278
861.544	20.04611
861.945	-22.05312
862.345	-56.12818
862.745	-11.02598
863.145	-29.06406
863.544	57.13729
863.944	-34.07572
864.344	-60.14048
864.743	44.10245
865.143	31.07537
865.542	-18.03916
865.941	42.0988
866.34	49.1097
866.74	21.05375
867.139	-47.10816
867.537	2.0048
867.936	17.03868
868.335	43.10415
868.734	53.12929
869.132	21.04606
869.531	52.11696
869.929	0
870.327	19.0428
870.726	-30.07087
871.124	-17.03702
871.522	-38.09165
871.92	25.05788
872.318	21.04848
872.715	22.05096
873.113	27.06206
873.511	30.07062
873.908	4.00986
874.306	25.05896
874.703	-8.01895
875.1	9.02165
875.497	-1.00224
875.894	-14.03325
876.291	32.07448
876.688	-20.0492
877.085	15.03358
877.482	-19.04481
877.878	3.00684
878.275	-7.01684
878.671	-1.00201
879.068	-6.01363
879.464	11.02512
879.86	26.05853
880.256	-25.05769
880.652	-36.08744
881.048	-19.04404
881.444	-22.04865
881.84	7.01677
882.236	-25.06005
882.631	-25.05845
883.027	-12.02695
883.422	-27.06584
883.817	18.04344
884.213	25.06092
884.608	-16.03774
885.003	20.04552
885.398	-46.11018
885.793	-13.03084
886.188	1.00239
886.582	8.01903
886.977	29.06415
887.371	-3.00719
887.766	-1.00238
888.16	13.0307
888.554	-17.03931
888.949	3.00701
889.343	19.04292
889.737	22.05699
890.131	18.04293
890.525	-30.07303
890.918	15.03609
891.312	-30.06648
891.706	50.12531
892.099	28.06694
892.492	-20.04026
892.886	-36.08316
893.279	-1.00242
893.672	-4.00973
894.065	43.10062
894.458	-36.0862
894.851	-60.13783
895.244	-53.13026
895.637	32.07242
896.029	8.01844
896.422	-18.04142
896.814	-2.00472
897.206	4.0091
897.599	-29.06639
897.991	31.0706
898.383	0
898.775	21.04388
899.167	-17.0379
899.559	-12.02868
899.951	41.08966
900.342	-75.17988
900.734	14.0337
901.125	-19.04716
901.517	-5.01169
901.908	-15.03352
902.299	8.01856
902.69	4.00888
903.082	39.08821
903.473	27.06144
903.863	24.05867
904.254	-68.14931
904.645	-4.00926
905.036	19.04409
905.426	-11.02277
905.817	-6.01392
906.207	-10.02265
906.597	-6.01327
906.987	-42.10275
907.378	-29.06948
907.768	20.05057
908.158	3.00692
908.547	-19.04713
908.937	-45.11002
909.327	-3.00683
909.717	17.04031
910.106	-18.0409
910.495	33.078
910.885	-46.1093
911.274	12.02851
911.663	54.13004
912.052	-32.07425
912.441	20.04865
912.83	-7.01496
913.219	5.01228
913.608	-26.06035
913.997	-33.07891
914.385	-7.01552
914.774	-15.03435
915.162	-55.12399
915.55	21.04767
915.939	-10.02414
916.327	28.06568
916.715	16.03905
917.103	23.05263
917.491	-27.06236
917.878	-41.09405
918.266	-9.02219
918.654	51.12432
919.041	-22.05508
919.429	-9.02011
919.816	-13.03112
920.203	20.04563
920.591	-15.03495
920.978	-7.01613
921.365	-29.07253
921.752	-5.01129
922.139	81.1616
922.525	-37.0843
922.912	16.03649
923.299	20.04716
923.685	-10.02493
924.072	-7.01489
924.458	-34.08029
924.844	-24.05634
925.231	-24.05219
925.617	37.0905
926.003	-28.06827
926.389	-16.03882
926.774	20.04816
927.16	-2.00467
927.546	-2.00488
927.931	-1.00236
928.317	-44.0936
928.702	-28.06187
929.088	15.03344
929.473	-27.06567
929.858	-4.00934
930.243	7.01594
930.628	-11.02519
931.013	40.09446
931.398	-8.01701
931.783	50.12422
932.167	-20.046
932.552	-18.04214
932.937	-51.11854
933.321	-29.06897
933.705	39.09372
934.09	-10.02355
934.474	14.03105
934.858	26.06424
935.242	15.03308
935.626	-37.09013
936.009	-7.01779
936.393	-3.00733
936.777	56.13623
937.16	-46.11324
937.544	4.00878
937.927	5.01208
938.311	24.05438
938.694	16.04018
939.077	-34.07641
939.46	66.15143
939.843	32.05979
940.226	-41.10002
940.609	-5.01068
940.991	1.00242
941.374	-43.09935
941.757	-25.05831
942.139	-62.13028
942.522	-20.04379
942.904	7.01587
943.286	7.01666
943.668	-6.01478
944.05	-19.04432
944.432	-1.00234
944.814	-23.0531
945.196	-10.02341
945.578	10.02267
945.959	58.12628
946.341	-2.00452
946.722	36.07901
947.104	-48.10783
947.485	-28.06117
947.866	51.1219
948.247	6.01435
948.628	2.00455
949.009	-24.05891
949.39	-37.08573
949.771	45.09604
950.152	16.0372
950.532	46.10985
950.913	-24.05401
951.293	-9.02356
951.674	-14.03167
952.054	-36.08534
952.434	-12.02794
952.814	-52.11509
953.194	70.1727
953.574	-61.141
953.954	32.07094
954.334	30.07076
954.714	-34.07904
955.093	-33.07582
955.473	-35.08267
955.853	-2.00495
956.232	50.13025
956.611	-9.01987
956.99	-2.00479
957.37	-2.00484
957.749	-37.08256
958.128	53.12683
958.506	1.00249
958.885	-3.00714
959.264	-26.06061
959.643	38.08027
960.021	-7.01645
960.4	71.15041
960.778	1.00227
961.156	28.06607
961.535	-34.0727
961.913	-14.03001
962.291	20.04933
962.669	18.04326
963.047	-33.07924
963.424	17.04125
963.802	-31.07151
964.18	29.06847
964.557	31.06498
964.935	-30.06673
965.312	-5.0125
965.69	3.00705
966.067	-49.11245
966.444	14.03241
966.821	-1.00243
967.198	-23.05179
967.575	21.04784
967.952	89.19299
968.329	-19.04348
968.705	2.00389
969.082	9.02207
969.458	-8.01838
969.835	0
970.211	-10.02446
970.587	-6.01413
970.963	-18.04384
971.339	9.02258
971.715	-44.10281
972.091	17.0392
972.467	-36.08376
972.843	-11.02588
973.219	-13.02886
973.594	-34.08539
973.97	-10.02201
974.345	42.09354
974.721	-38.08652
975.096	-15.03387
975.471	20.04449
975.846	27.06119
976.221	-18.04359
976.596	-19.04304
976.971	16.03717
977.346	-74.16098
977.72	12.02884
978.095	-11.02716
978.469	29.06476
978.844	-6.01423
979.218	25.0567
979.593	46.10275
979.967	17.03915
980.341	-59.12745
980.715	-7.0166
981.089	-42.09899
981.463	-11.02399
981.837	15.0348
982.21	0
982.584	-48.10943
982.957	-40.09614
983.331	4.00886
983.704	18.04193
984.078	-60.1402
984.451	-24.05518
984.824	-21.04891
985.197	-7.01595
985.57	-4.00938
985.943	1.00227
986.316	23.05289
986.688	-15.0339
987.061	5.01082
987.434	9.02233
987.806	-2.00453
988.179	16.035
988.551	-8.01907
988.923	-11.0255
989.295	38.08865
989.667	23.05268
990.039	48.11163
990.411	26.05622
990.783	-9.01926
991.155	-20.04624
991.527	-25.05682
991.898	-41.09657
992.27	32.07448
992.641	12.02818
993.012	50.10993
993.384	11.0246
993.755	-17.04098
994.126	20.04515
994.497	-34.07914
994.868	-4.00862
995.239	-22.05074
995.61	4.00948
995.98	-14.03251
996.351	20.04705
996.722	3.00657
997.092	5.01125
997.462	-30.06706
997.833	-17.03768
998.203	-3.00679
998.573	15.03552
998.943	-18.03916
999.313	20.04517
999.683	-60.13546
1000.053	-1.00216
1000.423	29.06594
1000.792	11.0271
1001.162	31.07205
1001.531	17.03968
1001.901	-23.05407
1002.27	20.04169
1002.639	10.0243
1003.009	49.11006
1003.378	40.09654
1003.747	0
1004.116	13.02938
1004.485	7.01581
1004.853	43.10239
1005.222	-16.03876
1005.591	-18.03982
1005.959	30.06368
1006.328	-15.03142
1006.696	20.04561
1007.064	3.00715
1007.433	52.12232
1007.801	31.07057
1008.169	3.0071
1008.537	35.07174
1008.905	32.06973
1009.273	28.06476
1009.64	2.00452
1010.008	22.04881
1010.375	53.11933
1010.743	18.03761
1011.11	-9.0201
1011.478	-31.07262
1011.845	-14.03035
1012.212	-51.10752
1012.579	31.07157
1012.946	-39.08616
1013.313	30.06623
1013.68	0
1014.047	-3.00684
1014.414	-2.00448
1014.78	29.06847
1015.147	11.02451
1015.513	70.15919
1015.88	-35.08398
1016.246	-2.00467
1016.612	-26.05514
1016.978	-20.04615
1017.344	31.07279
1017.71	-27.06077
1018.076	3.00659
1018.442	-3.00729
1018.808	-7.01659
1019.174	-32.07586
1019.539	-14.02912
1019.905	23.05102
1020.27	17.03992
1020.636	43.09563
1021.001	19.04218
1021.366	63.14348
1021.731	17.04156
1022.096	-1.00242
1022.461	-18.03954
1022.826	5.01116
1023.191	-17.04266
1023.556	-22.0477
1023.92	-43.09912
1024.285	-8.0183
1024.649	-1.00231
1025.014	30.06952
1025.378	26.0623
1025.742	-11.0258
1026.107	-14.02915
1026.471	-17.0363
1026.835	-30.06972
1027.199	8.01822
1027.562	-5.01096
1027.926	6.01373
1028.29	29.06937
1028.654	9.01905
1029.017	12.02784
1029.381	-3.00678
1029.744	33.07993
1030.107	-16.03482
1030.471	9.02009
1030.834	-34.07113
1031.197	-34.07604
1031.56	19.04238
1031.923	-10.02456
1032.286	-13.02839
1032.648	24.05312
1033.011	-11.02372
1033.374	-61.13357
1033.736	-28.07042
1034.099	6.01384
1034.461	13.03136
1034.823	-47.11092
1035.185	-20.04697
1035.548	-4.00914
1035.91	-15.03415
1036.272	49.10299
1036.634	-21.04781
1036.995	4.0089
1037.357	-18.04151
1037.719	-9.02059
1038.08	-57.12566
1038.442	46.10385
1038.803	-30.06745
1039.165	29.06903
1039.526	-1.00227
1039.887	-19.0432
1040.248	21.04981
1040.609	9.02087
1040.97	2.00459
1041.331	-75.17879
1041.692	40.08764
1042.053	7.01464
1042.413	-26.05613
1042.774	1.00227
1043.134	-24.05305
1043.495	-24.05678
1043.855	12.02733
1044.215	-18.04213
1044.576	18.04065
1044.936	-6.01292
1045.296	30.06977
1045.656	-11.02545
1046.016	-2.00447
1046.375	4.00921
1046.735	29.06184
1047.095	-14.03082
1047.454	47.09041
1047.814	-54.12216
1048.173	-22.04843
1048.533	27.0578
1048.892	-22.05036
1049.251	13.03074
1049.61	-21.04829
1049.969	22.04879
1050.328	-59.11793
1050.687	22.04999
1051.046	23.05295
1051.405	-47.10963
1051.763	-25.05433
1052.122	1.00238
1052.48	-61.1415
1052.839	17.03741
1053.197	-7.01548
1053.555	-57.11747
1053.914	-22.05058
1054.272	57.12729
1054.63	-54.12479
1054.988	-11.02449
1055.345	-6.01177
1055.703	-30.0674
1056.061	-4.00978
1056.419	-3.00742
1056.776	6.01357
1057.134	1.00215
1057.491	4.00942
1057.848	-12.02803
1058.206	-21.04631
1058.563	20.04123
1058.92	-19.04048
1059.277	-35.08022
1059.634	-27.0583
1059.991	22.04946
1060.348	22.04662
1060.704	-6.01348
1061.061	-29.0616
1061.418	-18.04153
1061.774	35.08225
1062.131	13.03349
1062.487	-42.09183
1062.843	-21.04952
1063.199	26.06116
1063.555	30.06518
1063.911	-34.08132
1064.267	-5.00929
1064.623	48.11009
1064.979	-24.05188
1065.335	28.06112
1065.691	-17.03878
1066.046	-53.108
1066.402	-1.00211
1066.757	-1.00239
1067.112	-31.07108
1067.468	-2.00452
1067.823	3.00679
1068.178	1.00229
1068.533	0
1068.888	-16.03549
1069.243	-3.00703
1069.598	-25.05636
1069.952	-4.00858
1070.307	17.04034
1070.662	-49.11069
1071.016	2.00422
1071.371	-36.07648
1071.725	-4.00871
1072.079	-22.04975
1072.434	0
1072.788	17.03815
1073.142	76.17514
1073.496	-11.02454
1073.85	35.07499
1074.203	6.01359
1074.557	28.07123
1074.911	14.03078
1075.265	2.00428
1075.618	-1.00231
1075.971	10.0221
1076.325	-18.04351
1076.678	-24.0515
1077.031	-34.07195
1077.385	1.00206
1077.738	-3.00633
1078.091	11.02369
1078.444	-11.02351
1078.796	44.10164
1079.149	-44.10253
1079.502	-11.02448
1079.855	12.02627
1080.207	-3.00694
1080.56	-35.0863
1080.912	-53.12041
1081.264	-8.0181
1081.617	-22.05084
1081.969	41.0992
1082.321	12.02753
1082.673	-35.07625
1083.025	-33.07308
1083.377	6.01163
1083.728	-14.02989
1084.08	0
1084.432	-102.2299
1084.783	60.13124
1085.135	73.17329
1085.486	15.03226
1085.838	-24.05597
1086.189	-4.00913
1086.54	87.19115
1086.891	4.00972
1087.242	-33.07537
1087.593	-6.0136
1087.944	-15.03155
1088.295	41.08473
1088.646	3.00685
1088.996	-57.13023
1089.347	-36.0831
1089.698	-8.01796
1090.048	-22.05396
1090.398	51.10993
1090.749	6.0135
1091.099	-2.00482
1091.449	-40.09394
1091.799	-5.0118
1092.149	32.07501
1092.499	-2.00461
1092.849	-32.07764
1093.199	15.03514
1093.548	30.06781
1093.898	-6.01424
1094.248	33.07981
1094.597	-13.03209
1094.947	-3.00762
1095.296	-32.07451
1095.645	-20.04931
1095.994	33.07436
1096.343	76.18051
1096.692	-46.11748
1097.041	-7.01832
1097.39	-12.02837
1097.739	25.06176
1098.088	-32.08115
1098.437	-35.08868
1098.785	-15.03848
1099.134	-38.0953
1099.482	-51.13424
1099.83	-2.00498
1100.179	26.06532
1100.527	-5.01257
1100.875	-14.03536
1101.223	-3.00767
1101.571	-9.02404
1101.919	-68.17317
1102.267	20.05475
1102.615	8.0257
1102.962	11.03526
1103.31	11.0353
1103.658	-9.02888
