Data from N3 R5 sample 8_Subt2__2__13-33-06-117.txt Node

Date: Thu Sep 18 13:33:06 PDT 2025
User: uwsun
Spectrometer: HDX01956
Trigger mode: 0
Integration Time (sec): 5.000000E-1
Scans to average: 1
Nonlinearity correction enabled: true
Boxcar width: 0
Storing dark spectrum: false
XAxis mode: Wavelengths
Number of Pixels in Spectrum: 2068
>>>>>Begin Spectral Data<<<<<
194.03	7.02031
194.578	-2.00651
195.127	4.01283
195.676	-8.02568
196.225	39.10241
196.773	6.01675
197.321	24.06678
197.87	34.08763
198.418	50.12975
198.966	86.22571
199.513	77.19578
200.061	44.1117
200.609	-10.0266
201.156	-2.00435
201.704	32.08049
202.251	47.12458
202.798	40.10448
203.345	80.19665
203.892	14.03543
204.438	52.12403
204.985	74.17556
205.532	93.24832
206.078	41.10084
206.624	88.21647
207.17	69.15898
207.716	16.0387
208.262	54.1056
208.808	57.14179
209.354	11.02694
209.899	32.08043
210.445	60.15037
210.99	29.07043
211.535	-2.00473
212.08	57.13154
212.625	56.13953
213.17	13.03295
213.715	53.11924
214.259	87.20181
214.804	18.04428
215.348	59.13399
215.892	75.17934
216.436	97.22287
216.98	48.10455
217.524	50.11775
218.068	77.19203
218.612	29.07225
219.155	55.12849
219.698	42.0986
220.242	32.07924
220.785	60.13938
221.328	69.17064
221.871	85.21214
222.414	37.09033
222.956	52.12522
223.499	75.16624
224.041	-7.01607
224.583	44.09327
225.126	88.19404
225.668	30.07279
226.21	41.10244
226.751	4.00863
227.293	40.08964
227.835	9.02185
228.376	34.07698
228.918	68.16925
229.459	73.18199
230	11.0261
230.541	33.07491
231.082	55.13212
231.622	55.12526
232.163	52.12617
232.704	22.05418
233.244	59.14468
233.784	47.1129
234.324	55.1213
234.864	28.0627
235.404	47.10933
235.944	47.10903
236.484	35.08561
237.023	64.1499
237.563	62.14117
238.102	33.07728
238.641	73.18351
239.18	28.06561
239.719	68.16992
240.258	20.04436
240.797	78.18476
241.335	29.06945
241.874	53.10131
242.412	41.09718
242.95	33.07915
243.488	33.07476
244.026	35.08035
244.564	53.10721
245.102	5.01121
245.64	44.10455
246.177	44.09677
246.715	43.10085
247.252	21.04732
247.789	-32.05692
248.326	30.07084
248.863	45.09687
249.4	69.15619
249.936	82.1644
250.473	9.02099
251.009	46.10542
251.546	75.16319
252.082	71.15435
252.618	65.14395
253.154	56.13296
253.69	59.1305
254.226	50.11752
254.761	14.0308
255.297	55.11932
255.832	22.05145
256.367	43.09963
256.903	13.02818
257.438	-7.01623
257.972	1.0022
258.507	46.10576
259.042	47.09839
259.576	35.07502
260.111	45.10223
260.645	71.15153
261.179	13.02999
261.713	45.09816
262.247	98.22368
262.781	21.0441
263.315	55.13332
263.849	10.02493
264.382	37.08358
264.915	63.14672
265.449	19.04639
265.982	27.06007
266.515	66.15887
267.048	47.09887
267.58	51.10776
268.113	55.11825
268.646	64.15744
269.178	18.04004
269.71	40.08579
270.243	28.06332
270.775	21.05324
271.307	52.12165
271.838	37.08624
272.37	39.09557
272.902	107.23924
273.433	42.09008
273.965	87.21073
274.496	25.06103
275.027	25.06131
275.558	8.01932
276.089	61.15158
276.62	17.04281
277.15	74.17914
277.681	-13.02765
278.211	37.08908
278.741	58.12757
279.272	67.15092
279.802	47.11658
280.332	31.07274
280.861	42.1001
281.391	26.05829
281.921	36.08468
282.45	116.28714
282.98	93.23939
283.509	69.15249
284.038	43.09519
284.567	37.08382
285.096	89.21175
285.625	70.15893
286.153	28.06499
286.682	48.1077
287.21	76.17989
287.739	60.13882
288.267	83.19884
288.795	32.08339
289.323	90.20981
289.851	74.16965
290.378	73.16154
290.906	60.14481
291.433	40.09912
291.961	11.02466
292.488	77.1891
293.015	85.19881
293.542	67.16703
294.069	46.11207
294.596	87.21144
295.122	109.25505
295.649	51.11238
296.175	-3.00717
296.702	76.1794
297.228	18.0428
297.754	71.15659
298.28	61.13628
298.806	80.19082
299.332	13.02869
299.857	46.10241
300.383	51.12659
300.908	92.22204
301.433	91.21884
301.958	53.11875
302.483	94.2343
303.008	55.13342
303.533	13.03316
304.058	118.27041
304.582	78.18219
305.107	82.21287
305.631	93.20596
306.155	80.18569
306.679	83.19185
307.203	79.1813
307.727	122.28496
308.251	112.27041
308.775	68.15927
309.298	112.26571
309.822	80.19897
310.345	72.16851
310.868	58.13723
311.391	96.2317
311.914	76.18868
312.437	74.16467
312.96	74.17305
313.482	87.20413
314.005	97.2398
314.527	84.21859
315.049	128.31428
315.571	116.2592
316.093	179.4329
316.615	62.14947
317.137	84.1783
317.659	94.22172
318.18	118.27962
318.702	157.35581
319.223	126.25214
319.744	115.25426
320.265	83.19975
320.786	104.25385
321.307	129.31621
321.828	112.25109
322.348	131.30364
322.869	61.14049
323.389	353.60796
323.909	122.27475
324.43	109.25575
324.95	118.26661
325.47	147.35512
325.989	179.41784
326.509	95.2075
327.029	89.19834
327.548	135.29898
328.067	134.3163
328.587	113.27771
329.106	138.30556
329.625	107.27167
330.144	110.24701
330.662	104.23776
331.181	178.40545
331.7	152.34651
332.218	210.44263
332.736	151.34179
333.255	122.27868
333.773	168.38808
334.291	157.37755
334.808	158.34005
335.326	172.37814
335.844	153.35196
336.361	153.37837
336.879	184.41572
337.396	162.3763
337.913	118.26509
338.43	227.49642
338.947	206.47491
339.464	179.3719
339.981	185.42845
340.497	177.42565
341.014	156.36766
341.53	215.47316
342.046	196.46802
342.562	198.4775
343.078	174.39666
343.594	218.50557
344.11	194.44546
344.626	235.57324
345.141	236.52123
345.657	191.41364
346.172	188.43687
346.687	212.47175
347.202	239.5147
347.717	241.55348
348.232	243.58545
348.747	285.62246
349.261	333.69893
349.776	222.49891
350.29	225.53921
350.805	253.59335
351.319	246.5508
351.833	263.5749
352.347	204.45545
352.861	284.63038
353.374	249.54292
353.888	226.52122
354.401	255.55906
354.915	259.55921
355.428	299.70942
355.941	261.58354
356.454	264.56353
356.967	254.57667
357.48	244.53439
357.993	252.59297
358.505	274.64723
359.018	286.65695
359.53	279.63689
360.042	255.53074
360.554	315.71616
361.066	271.62636
361.578	319.66039
362.09	323.72602
362.602	316.65608
363.113	294.63437
363.625	362.76801
364.136	317.65419
364.647	282.6249
365.158	345.75636
365.669	396.89644
366.18	240.52807
366.691	328.67917
367.201	313.70037
367.712	306.64638
368.222	368.79708
368.733	394.79939
369.243	329.67285
369.753	320.68987
370.263	376.82552
370.773	381.87844
371.282	380.83606
371.792	365.77454
372.301	356.8069
372.811	366.89053
373.32	376.73673
373.829	447.97497
374.338	405.82903
374.847	426.89076
375.356	490.06294
375.865	475.91027
376.373	491.00369
376.882	541.22923
377.39	536.16191
377.898	572.26956
378.407	515.02381
378.915	597.11712
379.423	700.42625
379.93	641.25229
380.438	682.44994
380.946	744.48167
381.453	686.42048
381.96	772.5482
382.468	830.64781
382.975	946.89583
383.482	901.64251
383.989	910.93089
384.495	952.76412
385.002	1007.64285
385.509	1065.93243
386.015	1218.78081
386.521	1149.92257
387.028	1254.07918
387.534	1288.97636
388.04	1300.23028
388.546	1364.10763
389.051	1492.18331
389.557	1536.39387
390.063	1749.56085
390.568	1745.62768
391.073	1893.51808
391.578	1841.71888
392.084	1825.38123
392.589	2036.43258
393.093	2160.73166
393.598	2360.62082
394.103	2486.84314
394.607	2742.80085
395.112	2982.96481
395.616	3266.76087
396.12	3427.41907
396.624	3828.28637
397.128	4242.18949
397.632	4593.74553
398.136	5134.41576
398.639	5308.44713
399.143	5860.41684
399.646	6723.92439
400.15	7503.16922
400.653	8376.1698
401.156	9312.35707
401.659	10945.56611
402.162	13412.14939
402.664	17990.10558
403.167	25948.67585
403.67	50741.28514
404.172	54064.86153
404.674	37291.05854
405.176	4428.40989
405.678	533.47942
406.18	0
406.682	0
407.184	6962.89417
407.686	50953.82939
408.187	59237.6763
408.688	45864.98426
409.19	31507.15807
409.691	24968.45938
410.192	21041.86695
410.693	18215.33475
411.194	16559.34624
411.694	15504.1041
412.195	14285.70956
412.696	12983.63845
413.196	12057.95219
413.696	11655.69022
414.196	11880.18174
414.696	11405.0592
415.196	10752.95076
415.696	9681.60383
416.196	7817.39189
416.695	6306.92608
417.195	5343.41954
417.694	4993.73229
418.194	4799.01901
418.693	4408.74781
419.192	4253.10794
419.691	4251.11441
420.19	4139.22023
420.688	3999.52956
421.187	3836.53574
421.685	3625.38982
422.184	3307.58922
422.682	2850.40008
423.18	2442.67659
423.678	2140.57596
424.176	2017.54617
424.674	1905.33872
425.172	1824.55268
425.669	1661.64804
426.167	1641.39473
426.664	1469.21677
427.161	1305.06923
427.659	1300.28947
428.156	1176.7759
428.652	1057.05918
429.149	1059.96428
429.646	928.56808
430.143	960.80723
430.639	902.69371
431.135	770.56692
431.632	793.46568
432.128	785.56017
432.624	644.39815
433.12	679.30283
433.616	716.28453
434.111	662.34138
434.607	622.27056
435.103	540.95828
435.598	599.03814
436.093	527.06038
436.588	559.08149
437.083	520.01574
437.578	437.88198
438.073	405.90058
438.568	443.96175
439.062	427.80523
439.557	337.71326
440.051	391.79458
440.546	381.78485
441.04	329.70607
441.534	383.88269
442.028	340.74147
442.522	335.73567
443.015	373.73068
443.509	349.78059
444.002	314.70709
444.496	270.53179
444.989	284.64556
445.482	307.69911
445.975	281.59188
446.468	284.55962
446.961	248.48454
447.454	232.47932
447.947	292.64732
448.439	278.63141
448.931	226.47551
449.424	242.55789
449.916	223.49818
450.408	270.57334
450.9	200.45427
451.392	253.59706
451.884	182.38597
452.375	200.46199
452.867	244.5075
453.358	149.31564
453.849	202.39804
454.341	226.47405
454.832	218.43685
455.323	183.42063
455.814	204.43414
456.304	178.38276
456.795	193.40724
457.285	193.39543
457.776	163.34092
458.266	222.49523
458.756	192.42583
459.247	137.3072
459.737	197.44464
460.226	213.4455
460.716	205.45948
461.206	152.33964
461.695	214.50336
462.185	179.39857
462.674	156.333
463.163	123.25498
463.653	145.2874
464.142	117.26613
464.63	219.49692
465.119	184.40282
465.608	134.29014
466.096	129.2661
466.585	104.22441
467.073	115.25808
467.561	210.47872
468.05	120.26116
468.538	188.43842
469.026	144.32801
469.513	125.24857
470.001	123.26342
470.489	133.2975
470.976	149.32365
471.463	166.39351
471.951	103.24553
472.438	124.27719
472.925	26.05819
473.412	102.23591
473.899	143.31114
474.385	113.26389
474.872	63.14046
475.359	109.25355
475.845	74.14623
476.331	95.19368
476.817	77.17763
477.303	141.30888
477.789	67.15456
478.275	99.23546
478.761	80.18348
479.247	106.22362
479.732	104.24958
480.218	79.19745
480.703	116.27848
481.188	56.11435
481.673	70.15428
482.158	104.21255
482.643	38.09334
483.128	17.03737
483.612	53.1185
484.097	75.17556
484.581	42.09238
485.066	57.13254
485.55	67.13945
486.034	96.20021
486.518	69.15606
487.002	43.10188
487.486	27.06397
487.969	117.27634
488.453	86.20905
488.936	37.0801
489.42	72.15283
489.903	41.09994
490.386	78.16043
490.869	7.0145
491.352	48.11234
491.835	48.09383
492.318	25.05504
492.8	27.05327
493.283	70.17289
493.765	47.11243
494.247	49.10902
494.73	58.123
495.212	24.05588
495.694	25.05666
496.175	27.06231
496.657	103.23637
497.139	-14.02252
497.62	8.01863
498.102	27.06542
498.583	-14.03383
499.064	89.19258
499.545	61.13352
500.026	-24.05254
500.507	-57.12876
500.988	58.13749
501.469	12.02906
501.949	2.00476
502.43	-20.04639
502.91	-17.03412
503.39	43.10384
503.87	42.09586
504.35	40.0899
504.83	37.07835
505.31	8.01898
505.79	4.00933
506.269	3.00677
506.749	-15.03339
507.228	12.0274
507.707	29.06205
508.187	15.03444
508.666	-56.1348
509.145	-2.00455
509.623	4.00912
510.102	2.0047
510.581	-6.01397
511.059	33.08116
511.538	12.03012
512.016	25.05838
512.494	-28.06599
512.972	9.02103
513.45	-23.05297
513.928	-8.01901
514.406	5.01203
514.884	47.11883
515.361	48.11238
515.839	-14.03105
516.316	-26.06087
516.793	-13.03209
517.27	59.1387
517.747	-30.07586
518.224	-31.06991
518.701	2.00435
519.178	27.06643
519.654	-70.1608
520.131	-67.16216
520.607	21.0506
521.083	2.00448
521.56	-44.10176
522.036	31.06613
522.512	34.08119
522.987	-9.02119
523.463	-6.01401
523.939	-8.01916
524.414	16.03558
524.89	-41.09492
525.365	9.02007
525.84	30.07126
526.315	-75.17769
526.79	9.01957
527.265	-46.10185
527.74	-25.05967
528.215	-41.09548
528.689	2.00438
529.164	-51.10667
529.638	-32.08112
530.112	17.03958
530.587	-2.00422
531.061	-16.03806
531.534	-11.02588
532.008	-11.02604
532.482	-54.11947
532.956	-17.04326
533.429	-73.17034
533.903	0
534.376	-55.11942
534.849	35.079
535.322	0
535.795	-13.0311
536.268	1.00237
536.741	-17.03993
537.213	45.10095
537.686	-62.14834
538.158	-12.02639
538.631	-9.02122
539.103	-12.02632
539.575	11.02217
540.047	-7.01497
540.519	-10.02315
540.991	-28.06658
541.463	-18.04295
541.934	-26.05858
542.406	-19.04458
542.877	-8.0176
543.348	-79.18427
543.82	-30.07202
544.291	-44.09929
544.762	-30.06977
545.233	4.00992
545.703	11.02382
546.174	-6.01372
546.645	-29.06961
547.115	-7.01657
547.585	32.07245
548.056	-4.00965
548.526	4.00923
548.996	-31.07328
549.466	-26.0619
549.935	8.01885
550.405	-1.00217
550.875	-3.00693
551.344	-7.01662
551.814	-28.06218
552.283	-35.07421
552.752	-39.08932
553.221	-52.11172
553.69	1.00218
554.159	20.0488
554.628	0
555.096	-13.03234
555.565	-37.08099
556.033	-18.04135
556.502	-23.05453
556.97	-22.04755
557.438	31.07137
557.906	2.00463
558.374	-26.05848
558.842	12.02804
559.31	-34.07418
559.777	-29.0694
560.245	-7.01586
560.712	-47.10522
561.18	-14.03016
561.647	16.03458
562.114	-11.02456
562.581	-17.04129
563.048	-22.04896
563.514	6.01448
563.981	-43.09638
564.448	21.04596
564.914	-27.06142
565.381	-51.11257
565.847	19.04301
566.313	-42.09579
566.779	60.13191
567.245	11.02512
567.711	6.01415
568.176	41.09175
568.642	-34.08475
569.108	-15.03625
569.573	-22.05007
570.038	53.1083
570.504	37.08167
570.969	34.08262
571.434	44.09458
571.899	54.12524
572.363	0
572.828	24.0529
573.293	10.02244
573.757	49.10988
574.222	10.02213
574.686	-6.0133
575.15	11.0257
575.614	13.02903
576.078	-3.00688
576.542	38.08453
577.006	31.06863
577.469	29.06921
577.933	-8.01743
578.396	40.09358
578.86	25.05694
579.323	34.07889
579.786	12.02514
580.249	-9.0202
580.712	9.02131
581.175	-11.02666
581.637	32.07236
582.1	9.0191
582.563	-54.11082
583.025	4.0095
583.487	-7.01372
583.95	10.02105
584.412	16.03233
584.874	14.03305
585.336	-7.01631
585.797	1.0021
586.259	-16.03622
586.721	8.01836
587.182	-13.0292
587.643	6.01325
588.105	13.03011
588.566	27.05502
589.027	31.0735
589.488	-1.00221
589.949	42.09737
590.41	52.0989
590.87	-16.03491
591.331	18.03696
591.791	-18.04009
592.252	27.05997
592.712	28.06512
593.172	75.16187
593.632	20.0411
594.092	79.16823
594.552	47.09643
595.011	88.19518
595.471	89.18978
595.931	80.16996
596.39	118.27009
596.849	85.18872
597.308	136.27631
597.768	94.22961
598.227	120.27533
598.685	112.23949
599.144	164.36009
599.603	179.39741
600.062	148.28916
600.52	235.48606
600.978	222.494
601.437	233.49056
601.895	228.44462
602.353	195.39664
602.811	257.52179
603.269	261.57246
603.727	322.70281
604.184	316.647
604.642	310.69151
605.099	362.75125
605.557	361.78409
606.014	379.72277
606.471	461.03577
606.928	557.06681
607.385	495.0827
607.842	557.11313
608.299	526.05861
608.755	564.17118
609.212	610.15472
609.668	611.15464
610.125	625.27237
610.581	635.23996
611.037	648.22799
611.493	668.30852
611.949	669.35898
612.405	708.15984
612.861	737.39459
613.316	790.5581
613.772	734.38654
614.227	774.4965
614.683	818.38693
615.138	761.48642
615.593	694.32365
616.048	728.34029
616.503	777.5672
616.958	783.62193
617.412	762.47748
617.867	802.44729
618.321	734.18048
618.776	701.26692
619.23	706.3909
619.684	703.28608
620.138	704.31029
620.592	602.2391
621.046	677.31148
621.5	683.38305
621.954	650.20301
622.407	632.16555
622.861	574.17289
623.314	624.19107
623.768	643.26036
624.221	612.99962
624.674	534.0392
625.127	536.07728
625.58	501.955
626.033	547.00167
626.485	444.93209
626.938	519.05624
627.39	554.10072
627.843	473.94061
628.295	472.95065
628.747	506.04026
629.199	453.90923
629.651	430.86048
630.103	429.86981
630.555	385.70642
631.006	412.85118
631.458	363.75046
631.909	394.78953
632.361	359.73654
632.812	333.69369
633.263	347.65371
633.714	294.55317
634.165	252.54631
634.616	312.66425
635.067	300.58531
635.518	270.57509
635.968	331.57921
636.419	249.482
636.869	284.60569
637.319	321.66512
637.769	314.63417
638.219	291.61672
638.669	283.61705
639.119	299.65718
639.569	303.67045
640.019	261.54516
640.468	212.42601
640.918	328.70711
641.367	289.58649
641.816	270.54906
642.265	311.64729
642.714	311.65363
643.163	270.55382
643.612	324.71436
644.061	271.51178
644.51	296.61346
644.958	314.61903
645.406	297.64949
645.855	276.61542
646.303	270.56959
646.751	340.69929
647.199	257.52156
647.647	344.71963
648.095	303.62333
648.543	308.54932
648.99	298.65099
649.438	355.74741
649.885	310.70437
650.333	259.43961
650.78	350.77653
651.227	329.7307
651.674	332.68191
652.121	255.56095
652.568	305.67487
653.015	276.62611
653.461	312.67262
653.908	305.64073
654.354	289.61729
654.801	301.6432
655.247	296.58053
655.693	271.65339
656.139	269.58826
656.585	309.67459
657.031	273.58893
657.477	293.57614
657.922	264.5606
658.368	241.54528
658.813	205.42819
659.259	222.49564
659.704	217.47175
660.149	229.49147
660.594	262.57138
661.039	259.54362
661.484	317.68619
661.929	198.42779
662.373	222.52929
662.818	226.52558
663.262	173.38808
663.707	169.40039
664.151	271.61639
664.595	202.4549
665.039	195.45036
665.483	177.42791
665.927	220.47491
666.371	143.31485
666.814	193.42778
667.258	187.4188
667.701	211.40922
668.145	172.39906
668.588	194.44653
669.031	153.34195
669.474	159.35873
669.917	167.34123
670.36	159.36868
670.803	158.35611
671.245	157.30463
671.688	196.44302
672.13	150.31324
672.573	192.45935
673.015	164.36736
673.457	184.37469
673.899	161.36339
674.341	201.45052
674.783	191.4304
675.225	173.39828
675.666	127.29063
676.108	169.34281
676.549	174.38221
676.991	184.3735
677.432	130.23713
677.873	156.33575
678.314	183.40629
678.755	159.36605
679.196	141.30549
679.637	129.29426
680.078	150.32714
680.518	175.37121
680.959	148.33234
681.399	118.27486
681.839	134.30696
682.28	149.34891
682.72	102.21934
683.16	128.30285
683.6	160.33902
684.039	152.2912
684.479	145.33608
684.919	112.24727
685.358	137.32646
685.798	128.31649
686.237	128.29027
686.676	117.25436
687.115	184.40163
687.554	131.2923
687.993	82.1682
688.432	182.39036
688.871	149.31564
689.309	207.47179
689.748	160.3083
690.186	128.28389
690.625	177.39411
691.063	161.36591
691.501	183.42365
691.939	172.40269
692.377	147.33829
692.815	167.37893
693.253	123.2749
693.69	131.26853
694.128	185.42403
694.565	116.26198
695.003	182.43476
695.44	125.27522
695.877	187.4112
696.314	195.38289
696.751	104.22133
697.188	209.44642
697.625	179.37555
698.061	122.27666
698.498	151.34166
698.934	149.33287
699.371	183.40392
699.807	148.32893
700.243	190.43156
700.679	204.42507
701.115	177.38332
701.551	245.53307
701.987	187.38262
702.422	159.35198
702.858	152.33571
703.294	161.33554
703.729	214.48863
704.164	185.41824
704.599	194.39433
705.035	189.3925
705.47	188.43255
705.904	165.35611
706.339	197.41532
706.774	132.28776
707.209	142.30496
707.643	202.4495
708.078	135.30782
708.512	207.49211
708.946	196.43144
709.38	167.36521
709.814	164.34461
710.248	192.42796
710.682	186.41493
711.116	200.448
711.549	159.38294
711.983	127.27222
712.416	160.34672
712.85	236.54731
713.283	184.40333
713.716	251.57483
714.149	214.46235
714.582	257.52394
715.015	222.50873
715.448	185.42692
715.881	175.34232
716.313	252.54282
716.746	255.55176
717.178	205.45305
717.61	234.54847
718.043	235.533
718.475	244.53844
718.907	203.46715
719.339	188.39277
719.77	259.56927
720.202	185.43422
720.634	257.57768
721.065	244.52604
721.497	227.5136
721.928	218.49776
722.359	251.56443
722.79	235.51565
723.221	207.47617
723.652	257.60108
724.083	240.4885
724.514	203.41724
724.945	229.49296
725.375	240.51053
725.806	198.44735
726.236	281.65488
726.666	226.48409
727.096	234.52156
727.526	247.57905
727.956	235.48497
728.386	198.44115
728.816	241.56322
729.246	299.6638
729.675	242.55233
730.105	230.51498
730.534	300.62954
730.964	252.57422
731.393	270.59482
731.822	276.64665
732.251	273.63699
732.68	230.47817
733.109	281.63033
733.537	243.53388
733.966	258.581
734.395	241.49914
734.823	266.53156
735.251	277.60448
735.68	292.65729
736.108	248.57035
736.536	258.54929
736.964	220.46167
737.392	252.56981
737.82	255.55081
738.247	224.48354
738.675	280.59146
739.102	270.62268
739.53	292.68306
739.957	233.54794
740.384	255.56236
740.811	275.63813
741.238	177.39542
741.665	293.61933
742.092	229.49063
742.519	299.67786
742.945	214.46849
743.372	248.56282
743.798	240.56539
744.225	206.44621
744.651	170.39317
745.077	191.43919
745.503	232.51089
745.929	197.43064
746.355	188.42077
746.781	197.44809
747.207	243.52579
747.632	250.55976
748.058	168.38375
748.483	187.38782
748.908	183.41978
749.334	203.45725
749.759	218.46575
750.184	207.45039
750.609	201.44978
751.033	151.32128
751.458	246.50026
751.883	177.4013
752.307	220.48
752.732	162.38225
753.156	217.49038
753.58	190.41033
754.005	236.55381
754.429	147.31331
754.853	180.41414
755.277	208.45285
755.7	171.391
756.124	207.47959
756.548	144.31858
756.971	162.36333
757.394	153.36752
757.818	167.40373
758.241	137.32244
758.664	136.32488
759.087	191.39789
759.51	132.30614
759.933	128.28944
760.356	134.32084
760.778	183.42365
761.201	136.30063
761.623	86.19153
762.046	96.20608
762.468	124.27502
762.89	166.37842
763.312	147.32949
763.734	114.25736
764.156	113.26223
764.578	100.21078
765	133.30167
765.421	158.38234
765.843	121.30012
766.264	127.28185
766.686	118.28027
767.107	183.41456
767.528	172.4104
767.949	125.29763
768.37	86.19732
768.791	99.22227
769.212	120.28809
769.632	79.17218
770.053	78.19569
770.473	134.30399
770.894	114.26292
771.314	92.20201
771.734	65.14101
772.154	117.28254
772.575	108.23124
772.994	116.24504
773.414	39.08623
773.834	131.3082
774.254	59.13545
774.673	61.13903
775.093	104.24349
775.512	83.19421
775.931	99.23916
776.351	8.01883
776.77	51.11873
777.189	12.02685
777.607	127.3053
778.026	78.18476
778.445	79.18977
778.864	77.18545
779.282	44.09893
779.701	105.24867
780.119	19.04554
780.537	49.11564
780.955	74.17678
781.373	80.18576
781.791	45.09566
782.209	93.20029
782.627	37.09381
783.045	63.13562
783.462	41.09886
783.88	61.15097
784.297	84.19921
784.715	89.21978
785.132	51.11638
785.549	79.18905
785.966	15.03583
786.383	52.12194
786.8	51.11135
787.217	-1.00225
787.633	27.06436
788.05	-17.03726
788.466	55.12033
788.883	70.17092
789.299	29.06535
789.715	75.17267
790.131	26.06104
790.547	-18.04216
790.963	40.09413
791.379	42.10114
791.795	37.07893
792.21	26.05704
792.626	31.06926
793.041	15.03493
793.457	25.05827
793.872	49.10852
794.287	55.12718
794.702	5.01164
795.117	25.05854
795.532	22.05326
795.947	48.10721
796.362	8.01786
796.776	22.04674
797.191	4.00926
797.605	21.04779
798.02	32.07442
798.434	35.07191
798.848	5.01164
799.262	56.13362
799.676	27.06154
800.09	-2.00466
800.504	19.04357
800.918	30.06504
801.331	13.03227
801.745	15.03228
802.158	25.05916
802.572	53.11987
802.985	36.08068
803.398	44.09856
803.811	32.07744
804.224	7.01648
804.637	-43.09622
805.05	51.11026
805.462	63.14452
805.875	52.13079
806.288	23.05323
806.7	20.04772
807.112	10.02184
807.525	49.11457
807.937	1.00236
808.349	12.02843
808.761	-28.06473
809.173	-10.02274
809.584	6.01397
809.996	6.01405
810.408	-27.06748
810.819	-4.00895
811.231	1.00255
811.642	57.13358
812.053	56.12761
812.464	35.07923
812.875	40.09731
813.286	-24.05906
813.697	-34.07321
814.108	6.01372
814.519	2.00414
814.929	17.04067
815.34	-13.02989
815.75	-13.03161
816.16	-57.13384
816.571	-9.02242
816.981	-26.05726
817.391	-33.07564
817.801	35.08353
818.211	55.12323
818.62	4.00909
819.03	-42.09714
819.44	26.06424
819.849	-2.00483
820.259	29.07069
820.668	17.0402
821.077	-13.03094
821.486	-17.03831
821.895	4.00916
822.304	21.05323
822.713	19.04206
823.122	39.09261
823.531	44.09836
823.939	29.06685
824.348	36.0827
824.756	-27.06429
825.164	5.01184
825.573	31.07367
825.981	11.02587
826.389	15.03515
826.797	-25.06001
827.205	-38.08277
827.612	-34.07939
828.02	7.0157
828.428	-5.01208
828.835	-10.02535
829.243	-18.04045
829.65	-19.04529
830.057	24.05564
830.464	13.03037
830.871	20.0448
831.278	-72.16533
831.685	-59.12296
832.092	55.12708
832.499	-7.01423
832.905	48.11519
833.312	-11.02337
833.718	1.00235
834.124	29.06208
834.531	38.08977
834.937	-47.11466
835.343	3.00685
835.749	34.07324
836.155	-18.04505
836.561	-59.13627
836.966	9.0207
837.372	-28.06783
837.777	-33.078
838.183	-47.09591
838.588	2.00475
838.993	5.01134
839.399	-29.06722
839.804	25.05829
840.209	29.07075
840.613	22.04619
841.018	1.00238
841.423	-47.1144
841.828	-17.04096
842.232	-27.06236
842.637	-32.07026
843.041	48.11856
843.445	-14.03307
843.849	-27.06377
844.253	-26.05788
844.657	14.03382
845.061	40.08457
845.465	36.08379
845.869	4.00867
846.272	-39.09065
846.676	58.13153
847.079	10.02441
847.483	-9.02124
847.886	-17.03839
848.289	30.07777
848.692	-43.10404
849.095	4.00893
849.498	7.01641
849.901	-26.05555
850.304	-22.0493
850.707	-1.00242
851.109	-80.19067
851.512	47.10946
851.914	11.02695
852.316	-21.05092
852.718	-3.00751
853.121	11.0255
853.523	-37.08167
853.925	-1.0025
854.326	-4.00965
854.728	-23.05663
855.13	-19.04738
855.531	28.06409
855.933	-21.04752
856.334	16.03803
856.736	-28.05847
857.137	-26.05719
857.538	-41.09882
857.939	-3.0071
858.34	-11.02516
858.741	18.04469
859.142	1.00227
859.542	47.12052
859.943	3.00714
860.343	3.0071
860.744	29.06685
861.144	4.00921
861.544	4.00925
861.945	-39.09447
862.345	-23.0523
862.745	-11.02598
863.145	-33.07296
863.544	53.12775
863.944	9.01987
864.344	-36.08389
864.743	13.03045
865.143	-14.03432
865.542	-29.06323
865.941	22.05195
866.34	61.13622
866.74	24.0614
867.139	-29.0665
867.537	-7.01684
867.936	31.07034
868.335	33.08008
868.734	23.05642
869.132	9.01979
869.531	-13.02963
869.929	-45.09841
870.327	17.03831
870.726	-8.01882
871.124	-4.00869
871.522	-30.07224
871.92	17.03942
872.318	40.092
872.715	6.01394
873.113	2.00462
873.511	14.03306
873.908	35.0858
874.306	24.05661
874.703	14.03302
875.1	15.03605
875.497	-20.04504
875.894	7.01656
876.291	18.04201
876.688	-32.07889
877.085	-7.01574
877.482	-28.06615
877.878	-12.02744
878.275	-28.06763
878.671	-30.06059
879.068	38.08554
879.464	-31.0714
879.86	22.04957
880.256	-13.02993
880.652	-33.08011
881.048	-28.06502
881.444	-18.03977
881.84	-4.0096
882.236	24.05711
882.631	-27.06315
883.027	-43.09718
883.422	-32.07811
883.817	10.02417
884.213	-2.0049
884.608	40.09332
885.003	-2.00457
885.398	-31.07404
885.793	-23.05466
886.188	17.04053
886.582	-3.00715
886.977	53.11664
887.371	-15.03603
887.766	-16.03827
888.16	8.01891
888.554	-53.12343
888.949	-51.12041
889.343	-6.01362
889.737	-22.05743
890.131	21.05006
890.525	-24.05836
890.918	7.01687
891.312	-23.0509
891.706	37.09294
892.099	-2.00481
892.492	23.04584
892.886	-24.05531
893.279	8.01936
893.672	6.01457
894.065	-40.09512
894.458	29.06857
894.851	24.0542
895.244	-25.06112
895.637	57.12834
896.029	5.01153
896.422	-6.01377
896.814	-4.00945
897.206	34.07685
897.599	-32.0733
897.991	-38.08775
898.383	6.01324
898.775	1.0021
899.167	37.08157
899.559	-18.04307
899.951	20.04393
900.342	-54.129
900.734	14.0337
901.125	-40.09967
901.517	-13.03044
901.908	-13.02904
902.299	7.01624
902.69	26.05747
903.082	25.0567
903.473	35.07952
903.863	49.11922
904.254	9.01944
904.645	0
905.036	56.129
905.426	-42.08755
905.817	-30.06991
906.207	-13.02946
906.597	-8.0177
906.987	-21.05117
907.378	-10.02387
907.768	10.02533
908.158	-3.00693
908.547	-17.04215
908.937	7.01695
909.327	-45.10335
909.717	-2.00476
910.106	-26.05918
910.495	54.12712
910.885	-24.05678
911.274	20.04745
911.663	76.18225
912.052	-5.01154
912.441	3.00732
912.83	2.00427
913.219	-30.07415
913.608	-9.02082
913.997	-34.08132
914.385	-29.0646
914.774	-16.03665
915.162	-25.05601
915.55	9.02048
915.939	-52.1265
916.327	-2.00472
916.715	17.04149
917.103	32.0731
917.491	-13.02994
917.878	-44.101
918.266	18.04416
918.654	35.08557
919.041	-12.02999
919.429	-8.01788
919.816	-31.07447
920.203	6.01373
920.591	-39.09129
920.978	3.0069
921.365	-36.09016
921.752	16.03597
922.139	15.03039
922.525	-1.00226
922.912	25.05691
923.299	7.01655
923.685	-47.11794
924.072	-9.01916
924.458	-18.04237
924.844	-33.07761
925.231	-18.03909
925.617	26.06372
926.003	17.0411
926.389	21.0506
926.774	32.07688
927.16	-12.02806
927.546	-8.01954
927.931	21.04933
928.317	-41.08716
928.702	47.10222
929.088	-67.15191
929.473	19.04581
929.858	18.04185
930.243	20.04541
930.628	3.00685
931.013	42.09914
931.398	19.04016
931.783	-8.02009
932.167	13.0297
932.552	12.02793
932.937	-31.07177
933.321	-56.13388
933.705	35.08417
934.09	21.04916
934.474	45.09916
934.858	23.05686
935.242	24.05283
935.626	-47.1147
936.009	-18.04582
936.393	11.02679
936.777	8.01964
937.16	-30.07363
937.544	15.03285
937.927	-22.05344
938.311	23.05213
938.694	29.07266
939.077	-32.07189
939.46	75.17177
939.843	9.01691
940.226	12.02898
940.609	-36.07741
940.991	13.03133
941.374	-32.07377
941.757	2.00464
942.139	-10.02077
942.522	-18.03939
942.904	17.03847
943.286	-27.06466
943.668	11.02701
944.05	13.03013
944.432	18.04203
944.814	14.03208
945.196	4.00934
945.578	1.00227
945.959	55.11982
946.341	-20.04539
946.722	15.03307
947.104	14.03105
947.485	-12.02613
947.866	18.0433
948.247	-27.06498
948.628	-5.0114
949.009	-14.0343
949.39	-70.16325
949.771	0
950.152	1.00233
950.532	75.1781
950.913	5.01118
951.293	48.12444
951.674	-1.00226
952.054	-42.09968
952.434	-13.03028
952.814	-22.04839
953.194	36.08937
953.574	2.00456
953.954	14.03115
954.334	16.03784
954.714	-2.00462
955.093	4.00912
955.473	-37.08742
955.853	18.04439
956.232	16.04192
956.611	-27.05982
956.99	-37.08918
957.37	4.00966
957.749	-35.07806
958.128	19.04576
958.506	48.11869
958.885	15.03555
959.264	-18.0419
959.643	24.05085
960.021	2.00469
960.4	57.12112
960.778	-14.0319
961.156	-3.00712
961.535	-34.0727
961.913	-38.08189
962.291	9.02224
962.669	15.03607
963.047	-46.11073
963.424	33.07984
963.802	-38.08778
964.18	9.02133
964.557	-18.03814
964.935	16.03525
965.312	17.04234
965.69	32.07474
966.067	-33.07549
966.444	-15.03492
966.821	-28.06842
967.198	-4.00897
967.575	-2.00458
967.952	47.10283
968.329	-25.05728
968.705	-4.00778
969.082	23.05625
969.458	19.04341
969.835	7.01598
970.211	-13.03182
970.587	24.05619
970.963	-26.06342
971.339	25.06253
971.715	-64.15013
972.091	33.07585
972.467	-52.12136
972.843	-35.08273
973.219	-3.00665
973.594	-13.03253
973.97	46.10007
974.345	11.02466
974.721	-15.034
975.096	-50.11371
975.471	48.10615
975.846	29.0657
976.221	-10.02418
976.596	-14.03168
976.971	73.16766
977.346	-26.05598
977.72	-6.01447
978.095	-15.03707
978.469	58.12875
978.844	24.05659
979.218	9.02048
979.593	38.08502
979.967	43.09852
980.341	5.01065
980.715	-8.01898
981.089	-33.07764
981.463	16.03469
981.837	-3.00698
982.21	20.04284
982.584	-17.03851
982.957	8.01905
983.331	22.04853
983.704	34.07895
984.078	-5.01156
984.451	-39.08993
984.824	-4.00928
985.197	-8.01824
985.57	-13.03055
985.943	-24.0548
986.316	30.06889
986.688	17.03817
987.061	1.00217
987.434	7.01738
987.806	8.01809
988.179	-59.1311
988.551	21.04977
988.923	-25.05811
989.295	14.03282
989.667	9.02067
990.039	-3.00705
990.411	48.10331
990.783	-9.01926
991.155	41.09364
991.527	-20.04541
991.898	33.07661
992.27	-1.00234
992.641	40.09343
993.012	84.18335
993.384	-4.00897
993.755	-26.06278
994.126	6.01358
994.497	-25.05808
994.868	57.12128
995.239	30.06847
995.61	-20.04763
995.98	25.0576
996.351	20.04705
996.722	1.00219
997.092	17.03815
997.462	-17.0379
997.833	29.06366
998.203	5.0113
998.573	40.09427
998.943	-27.05885
999.313	30.06762
999.683	-57.1286
1000.053	26.05589
1000.423	12.02738
1000.792	-16.03962
1001.162	42.09741
1001.531	27.0629
1001.901	-20.04699
1002.27	10.02089
1002.639	0
1003.009	67.14993
1003.378	5.01215
1003.747	3.00661
1004.116	18.04064
1004.485	-4.00905
1004.853	21.05021
1005.222	40.09588
1005.591	6.01321
1005.959	17.03619
1006.328	-32.06727
1006.696	41.09311
1007.064	2.00476
1007.433	29.06852
1007.801	8.0183
1008.169	-19.04517
1008.537	42.08596
1008.905	-20.04406
1009.273	4.0093
1009.64	-6.01357
1010.008	-23.05151
1010.375	66.14821
1010.743	-10.02102
1011.11	6.01336
1011.478	-38.08914
1011.845	-24.05214
1012.212	-1.00209
1012.579	-1.00232
1012.946	27.05882
1013.313	3.00666
1013.68	-18.03744
1014.047	15.03406
1014.414	49.1087
1014.78	-11.02617
1015.147	-10.02238
1015.513	50.11417
1015.88	-4.00954
1016.246	40.09262
1016.612	-29.06154
1016.978	1.0023
1017.344	34.07979
1017.71	1.00224
1018.076	2.0044
1018.442	-23.05607
1018.808	20.04716
1019.174	-41.09736
1019.539	-9.0187
1019.905	15.03333
1020.27	23.05394
1020.636	6.01345
1021.001	15.03333
1021.366	16.03678
1021.731	35.08529
1022.096	7.01689
1022.461	-31.06828
1022.826	-12.02688
1023.191	-5.01252
1023.556	8.01723
1023.92	-29.06666
1024.285	19.04324
1024.649	-1.00231
1025.014	16.03718
1025.378	27.06468
1025.742	3.00702
1026.107	-20.04169
1026.471	-18.03844
1026.835	-65.15209
1027.199	-20.0458
1027.562	29.0631
1027.926	-9.02065
1028.29	-14.03376
1028.654	-15.03192
1029.017	14.03247
1029.381	-7.01583
1029.744	-29.07106
1030.107	-9.01956
1030.471	12.02677
1030.834	-30.0627
1031.197	-7.01557
1031.56	23.05126
1031.923	1.00245
1032.286	34.07352
1032.648	12.02663
1033.011	27.05775
1033.374	-38.08281
1033.736	15.03744
1034.099	27.06204
1034.461	24.05777
1034.823	-4.00936
1035.185	-37.08719
1035.548	1.00228
1035.91	34.07663
1036.272	9.01908
1036.634	11.02488
1036.995	55.12104
1037.357	-3.0069
1037.719	-17.03895
1038.08	6.01305
1038.442	33.0747
1038.803	-8.01791
1039.165	-19.04564
1039.526	7.0159
1039.887	27.06082
1040.248	59.13892
1040.609	-35.08186
1040.97	7.01606
1041.331	-48.11383
1041.692	12.02645
1042.053	-7.01469
1042.413	-13.02799
1042.774	5.01135
1043.134	-10.02204
1043.495	17.0399
1043.855	-14.03206
1044.215	1.00233
1044.576	-14.03183
1044.936	53.11267
1045.296	1.00234
1045.656	-30.06966
1046.016	-47.10591
1046.375	-13.03004
1046.735	-26.0561
1047.095	18.03936
1047.454	-25.04893
1047.814	-29.06527
1048.173	-60.13313
1048.533	28.05993
1048.892	9.02047
1049.251	46.10808
1049.61	-106.24788
1049.969	31.06863
1050.328	-26.05157
1050.687	-6.01371
1051.046	-7.01621
1051.405	-17.03942
1051.763	26.05589
1052.122	40.09468
1052.48	-26.05989
1052.839	-3.00663
1053.197	12.02644
1053.555	-37.07591
1053.914	-7.01604
1054.272	18.04052
1054.63	-57.1318
1054.988	-40.0896
1055.345	-49.09712
1055.703	19.04225
1056.061	5.01221
1056.419	22.0542
1056.776	12.02711
1057.134	-19.0411
1057.491	-4.00943
1057.848	-27.06325
1058.206	7.01535
1058.563	23.04738
1058.92	-12.02553
1059.277	-46.10567
1059.634	-15.0323
1059.991	3.00677
1060.348	69.1447
1060.704	-35.0791
1061.061	-7.0148
1061.418	50.1138
1061.774	73.17028
1062.131	35.08981
1062.487	-78.17184
1062.843	4.00939
1063.199	1.00236
1063.555	42.09102
1063.911	4.0095
1064.267	1.00186
1064.623	38.08733
1064.979	-18.03886
1065.335	-56.12441
1065.691	62.13917
1066.046	-15.0303
1066.402	-32.06813
1066.757	26.06185
1067.112	-36.08263
1067.468	50.11177
1067.823	15.03387
1068.178	54.12226
1068.533	-5.01129
1068.888	-41.09141
1069.243	54.12504
1069.598	-32.07224
1069.952	21.0448
1070.307	-13.03103
1070.662	3.0067
1071.016	22.04621
1071.371	-9.01901
1071.725	-19.04148
1072.079	-40.09078
1072.434	-3.00685
1072.788	23.05155
1073.142	60.13871
1073.496	-9.02007
1073.85	-12.02597
1074.203	35.07881
1074.557	3.00767
1074.911	-11.02431
1075.265	-26.05593
1075.618	47.10738
1075.971	26.05726
1076.325	10.02404
1076.678	-17.03642
1077.031	-28.05917
1077.385	9.01849
1077.738	-27.05727
1078.091	6.01294
1078.444	-42.09036
1078.796	-21.04914
1079.149	-43.10018
1079.502	-27.06029
1079.855	35.07625
1080.207	-6.01388
1080.56	6.01468
1080.912	0
1081.264	35.07848
1081.617	3.0069
1081.969	55.13272
1082.321	-42.09741
1082.673	-20.04343
1083.025	-27.05972
1083.377	7.01356
1083.728	-27.0578
1084.08	22.05201
1084.432	-55.12277
1084.783	49.10743
1085.135	29.06942
1085.486	-14.0303
1085.838	-1.00232
1086.189	-28.06422
1086.54	39.08655
1086.891	17.04121
1087.242	-63.14475
1087.593	11.02484
1087.944	-40.08461
1088.295	23.04772
1088.646	-10.02288
1088.996	-13.02944
1089.347	4.00916
1089.698	-7.01572
1090.048	-26.06382
1090.398	34.07355
1090.749	30.06715
1091.099	15.03602
1091.449	-40.09394
1091.799	11.02587
1092.149	61.14217
1092.499	37.08467
1092.849	-25.06058
1093.199	-5.01176
1093.548	11.02496
1093.898	-8.01899
1094.248	17.04124
1094.597	-19.04695
1094.947	1.00254
1095.296	-13.03016
1095.645	8.01962
1095.994	24.05418
1096.343	32.07665
1096.692	7.01771
1097.041	-22.05772
1097.39	19.04465
1097.739	-5.01242
1098.088	-2.00504
1098.437	-11.02775
1098.785	7.01789
1099.134	-18.04498
1099.482	-38.0998
1099.83	41.10121
1100.179	16.04027
1100.527	-1.00251
1100.875	-45.1143
1101.223	44.11158
1101.571	-9.02404
1101.919	-22.05557
1102.267	26.0711
1102.615	0
1102.962	2.00642
1103.31	9.02889
1103.658	-8.02567
