Data from N3 R5 sample 2_Subt2__0__14-23-09-550.txt Node

Date: Thu Sep 18 14:23:09 PDT 2025
User: uwsun
Spectrometer: HDX01956
Trigger mode: 0
Integration Time (sec): 5.000000E-1
Scans to average: 1
Nonlinearity correction enabled: true
Boxcar width: 0
Storing dark spectrum: false
XAxis mode: Wavelengths
Number of Pixels in Spectrum: 2068
>>>>>Begin Spectral Data<<<<<
194.03	100.28616
194.578	107.34373
195.127	113.35782
195.676	97.30745
196.225	108.28027
196.773	137.37459
197.321	211.56987
197.87	278.68581
198.418	277.69049
198.966	292.73933
199.513	298.72783
200.061	233.57154
200.609	244.62134
201.156	201.41872
201.704	207.50419
202.251	263.67172
202.798	260.65341
203.345	342.79968
203.892	226.55016
204.438	243.5583
204.985	277.63131
205.532	300.77331
206.078	314.73307
206.624	238.56917
207.17	259.57405
207.716	230.53382
208.262	256.47669
208.808	250.59992
209.354	298.6908
209.899	279.66988
210.445	317.75733
210.99	282.65216
211.535	305.67797
212.08	269.59448
212.625	231.55717
213.17	283.68258
213.715	230.49862
214.259	294.65393
214.804	265.62197
215.348	232.50832
215.892	259.59743
216.436	297.65498
216.98	305.62801
217.524	244.55285
218.068	261.62905
218.612	223.53585
219.155	225.50804
219.698	287.6414
220.242	260.61678
220.785	244.5461
221.328	252.60218
221.871	215.52387
222.414	268.62594
222.956	255.59032
223.499	284.60201
224.041	232.50703
224.583	237.48119
225.126	296.62416
225.668	244.5681
226.21	250.60083
226.751	203.41931
227.293	191.4147
227.835	188.44101
228.376	234.50816
228.918	254.61067
229.459	291.69656
230	225.51177
230.541	243.52804
231.082	250.57817
231.622	239.52399
232.163	243.56834
232.704	247.5829
233.244	251.59348
233.784	213.49545
234.324	275.57848
234.864	207.44637
235.404	219.49207
235.944	227.50774
236.484	245.57571
237.023	283.63429
237.563	247.5413
238.102	255.57107
238.641	267.64764
239.18	244.54745
239.719	268.6453
240.258	215.45745
240.797	301.68212
241.335	219.50538
241.874	266.48227
242.412	230.52515
242.95	251.57691
243.488	242.52486
244.026	274.59882
244.564	248.47926
245.102	265.56235
245.64	255.58117
246.177	216.45787
246.715	232.52395
247.252	258.55311
247.789	171.28818
248.326	207.47198
248.863	233.48128
249.4	334.7151
249.936	283.54099
250.473	265.58686
251.009	306.6645
251.546	236.4959
252.082	243.50892
252.618	286.60413
253.154	244.55824
253.69	200.42933
254.226	224.50857
254.761	224.4711
255.297	249.51779
255.832	199.44915
256.367	220.49178
256.903	267.5473
257.438	242.53314
257.972	263.54641
258.507	250.55122
259.042	185.37544
259.576	264.53784
260.111	236.51534
260.645	298.60462
261.179	216.47806
261.713	237.49591
262.247	292.64031
262.781	254.50593
263.315	251.5859
263.849	230.55046
264.382	252.54422
264.915	260.58191
265.449	250.58391
265.982	243.51634
266.515	240.55857
267.048	311.61614
267.58	306.61035
268.113	308.62605
268.646	308.7233
269.178	305.63791
269.71	295.59785
270.243	288.61662
270.775	288.69529
271.307	221.49982
271.838	260.57927
272.37	280.65525
272.902	317.67798
273.433	284.57727
273.965	346.79696
274.496	263.61342
275.027	282.65838
275.558	297.6777
276.089	283.67457
276.62	245.59161
277.15	267.62275
277.681	241.48417
278.211	305.6968
278.741	297.62035
279.272	297.6374
279.802	291.68938
280.332	285.63536
280.861	294.66666
281.391	248.53053
281.921	232.52481
282.45	354.83778
282.98	306.75819
283.509	289.60926
284.038	264.55742
284.567	285.61297
285.096	339.76759
285.625	333.71558
286.153	268.59239
286.682	261.55991
287.21	278.63218
287.739	287.63399
288.267	313.7168
288.795	277.69124
289.323	333.73897
289.851	333.72359
290.378	319.66955
290.906	290.66933
291.433	305.71891
291.961	319.66955
292.488	344.80278
293.015	351.77793
293.542	327.77644
294.069	329.75887
294.596	381.87459
295.122	338.75521
295.649	350.72278
296.175	372.8243
296.702	304.6857
297.228	298.67024
297.754	304.63765
298.28	342.71956
298.806	359.81023
299.332	323.66657
299.857	324.67959
300.383	335.78807
300.908	367.83942
301.433	383.86967
301.958	343.72246
302.483	384.90629
303.008	336.77177
303.533	319.76938
304.058	361.78676
304.582	367.80831
305.107	377.92841
305.631	320.67506
306.155	391.85141
306.679	368.80218
307.203	382.82316
307.727	395.87288
308.251	366.841
308.775	361.79676
309.298	413.92255
309.822	374.87996
310.345	392.85956
310.868	373.82841
311.391	413.93663
311.914	396.92518
312.437	421.86919
312.96	436.94676
313.482	429.93889
314.005	442.02077
314.527	453.10091
315.049	402.93661
315.571	507.03927
316.093	488.10886
316.615	463.02878
317.137	425.83491
317.659	420.92753
318.18	458.01154
318.702	477.00851
319.223	459.84775
319.744	509.03068
320.265	457.01921
320.786	487.101
321.307	504.14667
321.828	507.04209
322.348	524.1175
322.869	467.98793
323.389	758.16485
323.909	524.08072
324.43	525.12908
324.95	565.15787
325.47	554.23261
325.989	575.23519
326.509	567.11272
327.029	524.06038
327.548	560.1282
328.067	565.21941
328.587	600.3384
329.106	570.14627
329.625	605.39644
330.144	541.1051
330.662	601.23398
331.181	620.28365
331.7	596.23444
332.218	620.18743
332.736	613.2547
333.255	584.20739
333.773	661.37445
334.291	670.45095
334.808	584.13993
335.326	646.27669
335.844	724.47253
336.361	719.58924
336.879	630.29158
337.396	716.47805
337.913	707.39385
338.43	766.48242
338.947	752.54205
339.464	709.29773
339.981	751.54103
340.497	768.63579
341.014	770.59462
341.53	772.49832
342.046	782.6541
342.562	834.76495
343.078	818.61943
343.594	789.61982
344.11	879.73833
344.626	869.86425
345.141	851.63581
345.657	847.57582
346.172	841.69877
346.687	818.58925
347.202	886.64159
347.717	945.86118
348.232	927.93926
348.747	916.73185
349.261	955.72889
349.776	898.73581
350.29	982.00714
350.805	1003.00171
351.319	975.85301
351.833	998.84129
352.347	921.74937
352.861	946.8087
353.374	1034.87842
353.888	973.90653
354.401	1021.87584
354.915	1067.90477
355.428	1039.10712
355.941	1068.98837
356.454	1014.81224
356.967	1086.04549
357.48	1006.84776
357.993	1111.17073
358.505	1094.16709
359.018	1068.06446
359.53	1127.12862
360.042	1077.83305
360.554	1126.13551
361.066	1110.13259
361.578	1114.89778
362.09	1176.17778
362.602	1134.92681
363.113	1164.04262
363.625	1234.121
364.136	1239.03113
364.647	1126.05395
365.158	1231.19385
365.669	1278.37079
366.18	1203.1108
366.691	1255.0632
367.201	1292.30596
367.712	1202.04166
368.222	1338.29946
368.733	1339.13682
369.243	1237.01326
369.753	1352.27209
370.263	1317.31894
370.773	1398.56608
371.282	1402.42406
371.792	1468.37278
372.301	1449.55383
372.811	1519.88798
373.32	1510.18312
373.829	1573.61837
374.338	1596.40275
374.847	1639.52164
375.356	1740.78857
375.865	1724.33921
376.373	1828.64043
376.882	1839.09238
377.39	1944.97939
377.898	1981.13389
378.407	2058.68541
378.915	2216.58677
379.423	2313.06364
379.93	2340.8348
380.438	2429.28332
380.946	2574.07825
381.453	2593.20555
381.96	2693.1604
382.468	2963.19
382.975	3178.36916
383.482	3133.83153
383.989	3300.64202
384.495	3432.90578
385.002	3545.31915
385.509	3705.85055
386.015	4101.8358
386.521	4190.31796
387.028	4291.36322
387.534	4532.89773
388.04	4567.45472
388.546	4783.89103
389.051	4962.7119
389.557	5492.78284
390.063	5859.61495
390.568	6059.66135
391.073	6314.27569
391.578	6443.59737
392.084	6679.11575
392.589	7071.13837
393.093	7439.53758
393.598	8060.90324
394.103	8895.18971
394.607	9777.25779
395.112	10546.71818
395.616	11230.74006
396.12	12164.21311
396.624	13472.38245
397.128	14560.50559
397.632	16203.30718
398.136	17754.23838
398.639	18747.82461
399.143	20870.62257
399.646	23836.61151
400.15	26352.84623
400.653	29292.74462
401.156	32761.93447
401.659	38317.79163
402.162	47130.1392
402.664	59000.21773
403.167	62158.08809
403.67	61009.11914
404.172	55487.84425
404.674	37291.05854
405.176	4428.40989
405.678	533.47942
406.18	0
406.682	0
407.184	6962.89417
407.686	50953.82939
408.187	59237.6763
408.688	61091.12691
409.19	61923.45898
409.691	62441.93235
410.192	62608.13215
410.693	62544.05226
411.194	56967.63828
411.694	53746.47679
412.195	49292.89663
412.696	44822.83996
413.196	41847.69002
413.696	40357.49968
414.196	40465.40165
414.696	39530.48845
415.196	37190.17689
415.696	33689.182
416.196	27585.15368
416.695	21811.27445
417.195	18697.18693
417.694	17642.2032
418.194	16599.2943
418.693	15581.79376
419.192	14919.14453
419.691	14848.43897
420.19	14264.86678
420.688	13918.29159
421.187	13221.17342
421.685	12375.46509
422.184	11313.3108
422.682	9946.95247
423.18	8443.40688
423.678	7489.43162
424.176	6925.23237
424.674	6559.00596
425.172	6288.39076
425.669	5949.85774
426.167	5558.58892
426.664	5010.79398
427.161	4657.00704
427.659	4352.71581
428.156	4089.92722
428.652	3778.21624
429.149	3613.99389
429.646	3381.44261
430.143	3297.03246
430.639	3065.98728
431.135	2874.24647
431.632	2728.80738
432.128	2567.11138
432.624	2375.32463
433.12	2346.79883
433.616	2256.55035
434.111	2153.93686
434.607	2088.9013
435.103	2102.30897
435.598	2043.26965
436.093	1923.67127
436.588	1856.52034
437.083	1756.46047
437.578	1669.43763
438.073	1564.64496
438.568	1460.48649
439.062	1544.13594
439.557	1397.27673
440.051	1398.19706
440.546	1349.17969
441.04	1282.18758
441.534	1279.41654
442.028	1343.30749
442.522	1231.19272
443.015	1227.92471
443.509	1255.28036
444.002	1174.17514
444.496	1108.75659
444.989	1097.07885
445.482	1104.10482
445.975	1147.95787
446.468	1085.73913
446.961	1091.71026
447.454	969.67169
447.947	1080.99985
448.439	1048.00453
448.931	1085.85266
449.424	937.85749
449.916	990.85926
450.408	973.74904
450.9	917.77724
451.392	969.96472
451.884	897.60471
452.375	881.7561
452.867	850.52864
453.358	843.51408
453.849	855.4268
454.341	857.54637
454.832	848.45191
455.323	812.62851
455.814	809.49382
456.304	822.52128
456.795	761.40432
457.285	790.39945
457.776	728.3309
458.266	815.59281
458.756	699.38451
459.247	734.4414
459.737	780.54842
460.226	770.41068
460.716	723.44547
461.206	680.35153
461.695	756.58722
462.185	690.37143
462.674	645.22914
463.163	670.21787
463.653	681.18
464.142	641.30084
464.63	675.3874
465.119	645.27263
465.608	609.18291
466.096	612.12408
466.585	580.12193
467.073	597.2048
467.561	615.28492
468.05	609.18573
468.538	570.2268
469.026	605.24724
469.513	554.99182
470.001	472.93447
470.489	548.11866
470.976	528.05239
471.463	536.17722
471.951	517.13186
472.438	436.91167
472.925	462.94078
473.412	488.03969
473.899	475.96043
474.385	432.94525
474.872	412.85195
475.359	414.90473
475.845	433.78371
476.331	395.75036
476.817	371.80546
477.303	382.79416
477.789	362.78576
478.275	350.79201
478.761	395.84843
479.247	359.71524
479.732	345.78975
480.218	344.81821
480.703	410.92888
481.188	300.57864
481.673	342.71069
482.158	311.60576
482.643	323.75126
483.128	291.60269
483.612	311.65823
484.097	339.75228
484.581	259.54362
485.066	323.71141
485.55	277.54955
486.034	308.61206
486.518	322.69061
487.002	187.43068
487.486	287.64564
487.969	287.65542
488.453	246.57998
488.936	236.48911
489.42	221.45383
489.903	276.6431
490.386	236.4681
490.869	256.50065
491.352	224.50609
491.835	216.4054
492.318	227.47856
492.8	205.38751
493.283	259.61737
493.765	211.48886
494.247	212.45568
494.73	207.42469
495.212	211.47313
495.694	178.39083
496.175	150.33766
496.657	306.67355
497.139	133.20504
497.62	185.41585
498.102	177.41675
498.583	155.36253
499.064	190.40223
499.545	164.35114
500.026	167.35084
500.507	141.30562
500.988	179.41439
501.469	136.32165
501.949	136.31541
502.43	165.36861
502.91	162.31171
503.39	153.36178
503.87	167.37154
504.35	145.31885
504.83	142.29377
505.31	154.35503
505.79	125.28456
506.269	131.2877
506.749	141.30366
507.228	148.32866
507.707	148.30852
508.187	173.38457
508.666	135.31316
509.145	126.27945
509.623	147.32555
510.102	115.26423
510.581	171.38423
511.059	162.38891
511.538	114.28084
512.016	161.36591
512.494	138.31472
512.972	148.3363
513.45	139.30976
513.928	181.41436
514.406	210.48567
514.884	203.49888
515.361	244.54925
515.839	139.29845
516.316	100.22834
516.793	181.4308
517.27	215.49002
517.747	156.38133
518.224	94.20657
518.701	172.36094
519.178	183.43723
519.654	107.23707
520.131	126.29384
520.607	175.40931
521.083	167.36166
521.56	149.33136
522.036	190.39131
522.512	192.44457
522.987	177.40162
523.463	181.40703
523.939	147.34167
524.414	161.34718
524.89	121.2711
525.365	174.37465
525.84	181.41736
526.315	100.22889
526.79	154.3246
527.265	83.17883
527.74	77.18017
528.215	174.388
528.689	164.34719
529.164	72.14648
529.638	204.49531
530.112	116.26476
530.587	130.26666
531.061	144.33198
531.534	102.23469
532.008	110.25431
532.482	78.1678
532.956	131.32456
533.429	46.10482
533.903	90.18811
534.376	118.24675
534.849	111.24665
535.322	123.27649
535.795	149.34536
536.268	116.26839
536.741	109.24974
537.213	108.23913
537.686	79.18391
538.158	96.20635
538.631	46.10728
539.103	93.19943
539.575	122.23961
540.047	83.17406
540.519	81.1841
540.991	94.21827
541.463	89.208
541.934	117.25587
542.406	77.17727
542.877	126.26931
543.348	44.10014
543.82	50.11821
544.291	58.12816
544.762	89.20211
545.233	107.26044
545.703	110.23318
546.174	114.25442
546.645	140.3252
547.115	111.25677
547.585	148.32715
548.056	148.34664
548.526	103.23305
548.996	125.28651
549.466	115.26634
549.935	150.34361
550.405	161.33734
550.875	126.28341
551.344	139.32065
551.814	104.2246
552.283	125.25576
552.752	128.2833
553.221	109.22606
553.69	177.37184
554.159	148.35246
554.628	156.32953
555.096	163.39243
555.565	97.2063
556.033	90.20227
556.502	105.2428
556.97	111.23309
557.438	132.29775
557.906	125.28225
558.374	99.21696
558.842	91.20934
559.31	89.18912
559.777	36.08508
560.245	75.16707
560.712	19.04196
561.18	52.11042
561.647	49.10517
562.114	51.11243
562.581	95.22586
563.048	24.0529
563.514	50.11963
563.981	85.1855
564.448	73.15803
564.914	46.10309
565.381	64.13786
565.847	84.18762
566.313	67.14943
566.779	130.28159
567.245	72.16241
567.711	123.28351
568.176	127.27915
568.642	109.26461
569.108	45.10752
569.573	61.1365
570.038	129.25904
570.504	119.25815
570.969	57.13791
571.434	119.25165
571.899	79.18231
572.363	62.13591
572.828	124.26757
573.293	129.28235
573.757	114.25221
574.222	113.24472
574.686	79.17204
575.15	138.31434
575.614	108.23644
576.078	129.28819
576.542	76.16772
577.006	89.19464
577.469	128.29968
577.933	100.21282
578.396	111.25606
578.86	115.25713
579.323	97.22225
579.786	112.22942
580.249	91.20002
580.712	99.23038
581.175	84.19997
581.637	190.41578
582.1	109.22626
582.563	36.07237
583.025	138.31916
583.487	134.25386
583.95	92.19016
584.412	82.16318
584.874	109.25255
585.336	135.3057
585.797	119.24349
586.259	39.08731
586.721	70.15868
587.182	108.23654
587.643	88.19094
588.105	132.29848
588.566	119.23741
589.027	155.35869
589.488	36.07901
589.949	84.19312
590.41	148.2749
590.87	28.06052
591.331	51.10393
591.791	74.16166
592.252	66.14541
592.712	96.22026
593.172	85.18306
593.632	38.07777
594.092	95.2016
594.552	66.13483
595.011	121.26652
595.471	93.19813
595.931	90.19078
596.39	97.22296
596.849	76.16905
597.308	46.09538
597.768	68.1669
598.227	76.17591
598.685	70.15105
599.144	57.12797
599.603	58.13201
600.062	31.06225
600.52	79.16911
600.978	86.19677
601.437	74.16125
601.895	112.22444
602.353	47.09883
602.811	48.10211
603.269	45.10319
603.727	47.10855
604.184	52.11283
604.642	45.10587
605.099	35.07793
605.557	48.11119
606.014	101.20563
606.471	100.24172
606.928	152.3201
607.385	55.13166
607.842	123.27093
608.299	119.26233
608.755	66.15246
609.212	114.24229
609.668	84.17947
610.125	100.22815
610.581	78.17264
611.037	105.22564
611.493	54.12126
611.949	41.0953
612.405	97.18632
612.861	40.08868
613.316	81.18648
613.772	57.12566
614.227	47.10678
614.683	68.13891
615.138	58.13228
615.593	9.02004
616.048	17.03693
616.503	115.2674
616.958	50.12059
617.412	32.07292
617.867	47.10131
618.321	16.03104
618.776	89.18623
619.23	72.16314
619.684	29.06216
620.138	19.04143
620.592	35.08132
621.046	37.08273
621.5	36.08376
621.954	25.05356
622.407	58.12252
622.861	18.04147
623.314	62.13464
623.768	42.09412
624.221	27.05136
624.674	30.06548
625.127	43.09638
625.58	10.02134
626.033	22.0457
626.485	16.03676
626.938	51.11502
627.39	69.15281
627.843	-7.01548
628.295	34.07538
628.747	32.07292
629.199	36.07921
629.651	9.01977
630.103	50.11016
630.555	4.00805
631.006	1.00226
631.458	-27.06069
631.909	-8.01752
632.361	-20.04454
632.812	-1.00224
633.263	10.0204
633.714	-7.01415
634.165	-44.1014
634.616	-37.08474
635.067	-19.03988
635.518	-12.02712
635.968	43.08096
636.419	-36.07444
636.869	-17.03862
637.319	-34.07604
637.769	36.07735
638.219	-1.00225
638.669	19.04374
639.119	4.00934
639.569	20.04686
640.019	-20.04438
640.468	-75.16069
640.918	-27.06263
641.367	6.01296
641.816	8.01724
642.265	33.07293
642.714	32.07139
643.163	-9.01962
643.612	-21.04964
644.061	-69.14118
644.51	-14.03102
644.958	28.05891
645.406	-27.06308
645.855	-54.1286
646.303	3.0067
646.751	8.01768
647.199	-51.11078
647.647	7.01574
648.095	-18.03971
648.543	-25.04844
648.99	-21.04896
649.438	-1.00227
649.885	9.02169
650.333	-12.02187
650.78	14.03323
651.227	16.03784
651.674	5.01103
652.121	-17.03953
652.568	5.01175
653.015	-16.03844
653.461	-13.02998
653.908	23.05132
654.354	-15.03415
654.801	-22.0503
655.247	-2.0042
655.693	-3.00761
656.139	18.04145
656.585	27.06246
657.031	21.04775
657.477	40.08335
657.922	35.07803
658.368	-9.0214
658.813	-1.00218
659.259	-19.04453
659.704	14.03175
660.149	4.009
660.594	31.07091
661.039	20.04419
661.484	45.10306
661.929	10.02247
662.373	47.11581
662.818	14.03392
663.262	-9.02094
663.707	-32.07875
664.151	57.13525
664.595	7.01639
665.039	-1.0024
665.483	18.04482
665.927	13.02931
666.371	-5.01135
666.814	-1.00231
667.258	35.08084
667.701	43.08675
668.145	-1.0024
668.588	23.05474
669.031	17.03906
669.474	3.00698
669.917	14.0296
670.36	-5.01197
670.803	39.09004
671.245	-7.01411
671.688	8.01877
672.13	-18.03899
672.573	33.08134
673.015	-2.00463
673.457	38.07995
673.899	24.05568
674.341	26.06037
674.783	38.08831
675.225	1.00238
675.666	61.14145
676.108	33.06902
676.549	15.03405
676.991	29.06095
677.432	16.03003
677.873	6.01333
678.314	-16.03699
678.755	27.0638
679.196	32.07094
679.637	-1.00234
680.078	25.05597
680.518	5.011
680.959	9.02079
681.399	-1.00238
681.839	28.0655
682.28	19.04562
682.72	-23.05079
683.16	58.13908
683.6	70.15124
684.039	20.03954
684.479	4.00953
684.919	3.00677
685.358	-16.03924
685.798	-1.00253
686.237	-2.00466
686.676	7.01557
687.115	26.05865
687.554	17.03883
687.993	-7.01465
688.432	49.10811
688.871	-27.0594
689.309	45.10591
689.748	-3.00601
690.186	15.03405
690.625	73.16605
691.063	38.08852
691.501	48.1141
691.939	21.05062
692.377	18.04249
692.815	79.18246
693.253	-18.0414
693.69	10.02106
694.128	63.14793
694.565	51.11671
695.003	7.01728
695.44	-5.01131
695.877	43.09741
696.314	46.0935
696.751	-18.03932
697.188	34.07538
697.625	16.03478
698.061	16.03706
698.498	99.22637
698.934	43.09817
699.371	20.04565
699.807	42.0954
700.243	39.09129
700.679	55.1184
701.115	0
701.551	74.16686
701.987	1.00213
702.422	8.01827
702.858	14.03181
703.294	-21.04554
703.729	39.09219
704.164	48.11154
704.599	45.09458
705.035	12.0259
705.47	39.0924
705.904	24.05336
706.339	9.01976
706.774	20.04464
707.209	-7.01552
707.643	41.09428
708.078	30.06985
708.512	65.15874
708.946	3.00687
709.38	-15.03406
709.814	47.10131
710.248	-4.00928
710.682	72.1644
711.116	21.04877
711.549	9.02229
711.983	5.011
712.416	17.03796
712.85	15.03631
713.283	33.07464
713.716	7.01681
714.149	16.03603
714.582	3.00647
715.015	20.04769
715.448	-52.12565
715.881	37.07474
716.313	38.08561
716.746	22.04997
717.178	-22.05092
717.61	33.08038
718.043	8.01898
718.475	13.03007
718.907	19.04533
719.339	-7.01526
719.77	54.1238
720.202	-33.08074
720.634	51.11948
721.065	23.05194
721.497	32.07527
721.928	16.03802
722.359	11.02595
722.79	52.1185
723.221	16.03821
723.652	55.13372
724.083	-3.00644
724.514	-57.12402
724.945	6.01353
725.375	33.07336
725.806	-13.03063
726.236	28.0685
726.666	7.0157
727.096	37.08583
727.526	-11.02708
727.956	-14.03051
728.386	-7.01626
728.816	-7.01715
729.246	35.08196
729.675	58.13728
730.105	17.03973
730.534	63.13912
730.964	-10.02399
731.393	-10.02332
731.822	62.15133
732.251	34.08305
732.68	-23.05051
733.109	28.06607
733.537	23.05287
733.966	16.03781
734.395	-4.00874
734.823	30.06323
735.251	13.02995
735.68	86.20174
736.108	14.0337
736.536	41.09141
736.964	61.1325
737.392	-6.01428
737.82	33.07467
738.247	12.02708
738.675	80.1764
739.102	36.08689
739.53	23.05663
739.957	12.02943
740.384	17.03936
740.811	58.14035
741.238	-27.06286
741.665	41.09145
742.092	35.07813
742.519	-4.00962
742.945	4.00914
743.372	34.08051
743.798	-7.01728
744.225	-6.01358
744.651	16.03813
745.077	4.00954
745.503	-3.00693
745.929	13.02952
746.355	11.02552
746.781	-14.0332
747.207	12.02725
747.632	0
748.058	-1.00236
748.483	57.12165
748.908	7.01662
749.334	-3.00704
749.759	-48.10845
750.184	-22.05019
750.609	12.0279
751.033	18.03941
751.458	64.13555
751.883	30.07005
752.307	55.12419
752.732	-2.00487
753.156	24.05637
753.58	58.1288
754.005	62.15043
754.429	-45.09991
754.853	14.03328
755.277	48.10805
755.7	37.08688
756.124	63.15013
756.548	48.10832
756.971	58.13286
757.394	4.00988
757.818	41.10147
758.241	-6.01451
758.664	77.18602
759.087	49.1053
759.51	18.04269
759.933	8.01853
760.356	19.04649
760.778	80.18899
761.201	-33.07552
761.623	22.04965
762.046	-24.05285
762.468	51.11483
762.89	67.15579
763.312	34.07798
763.734	40.09167
764.156	44.1035
764.578	66.14015
765	61.14038
765.421	51.1259
765.843	69.17277
766.264	20.04537
766.686	82.19611
767.107	56.13013
767.528	35.0857
767.949	48.11598
768.37	-31.07279
768.791	48.1089
769.212	50.12163
769.632	-25.05569
770.053	18.04565
770.473	44.10164
770.894	36.08432
771.314	55.12171
771.734	9.01976
772.154	29.07119
772.575	36.07828
772.994	17.03669
773.414	4.00891
773.834	33.07912
774.254	9.02087
774.673	4.00922
775.093	24.05707
775.512	0
775.931	82.19873
776.351	-9.02126
776.77	12.02815
777.189	20.04467
777.607	31.07588
778.026	12.02879
778.445	18.04374
778.864	33.08014
779.282	24.05418
779.701	50.11967
780.119	10.02401
780.537	-38.09119
780.955	9.02177
781.373	25.05868
781.791	83.17498
782.209	94.2024
782.627	20.05086
783.045	6.01307
783.462	-5.01216
783.88	27.06724
784.297	10.02405
784.715	10.02505
785.132	-13.03005
785.549	50.12031
785.966	40.09508
786.383	13.03072
786.8	76.16505
787.217	-26.05875
787.633	-38.09171
788.05	0
788.466	46.10083
788.883	35.08602
789.299	-9.02044
789.715	38.08813
790.131	16.03764
790.547	-28.06571
790.963	50.11743
791.379	-3.00729
791.795	17.03642
792.21	14.03079
792.626	23.05147
793.041	27.06273
793.457	-15.03524
793.872	20.04456
794.287	78.17954
794.702	-17.03976
795.117	-61.14525
795.532	46.11085
795.947	14.03149
796.362	55.1216
796.776	4.00853
797.191	20.04616
797.605	75.1688
798.02	15.035
798.434	21.04328
798.848	9.02093
799.262	26.0624
799.676	22.05019
800.09	-16.03736
800.504	0
800.918	-16.03503
801.331	-1.00249
801.745	23.04941
802.158	5.01188
802.572	-4.00915
802.985	14.03152
803.398	30.0674
803.811	-2.00487
804.224	37.08658
804.637	-71.1598
805.05	18.03919
805.462	36.08303
805.875	13.03293
806.288	23.05323
806.7	22.05248
807.112	-13.02853
807.525	64.1492
807.937	-7.01654
808.349	14.03315
808.761	-11.02534
809.173	-59.13551
809.584	48.11084
809.996	-52.12318
810.408	-29.07251
810.819	-4.00895
811.231	26.06593
811.642	73.17054
812.053	55.12536
812.464	63.14179
812.875	46.11178
813.286	7.01713
813.697	-5.0107
814.108	-2.00458
814.519	9.01859
814.929	-12.02886
815.34	22.05023
815.75	2.00485
816.16	-28.06538
816.571	29.07175
816.981	-52.11514
817.391	-22.05032
817.801	53.12605
818.211	20.04513
818.62	2.00455
819.03	-17.03912
819.44	12.02973
819.849	22.05284
820.259	39.09489
820.668	51.1198
821.077	-19.04528
821.486	-6.01349
821.895	-7.01606
822.304	25.06332
822.713	-1.00222
823.122	19.04529
823.531	20.04493
823.939	27.06226
824.348	11.0254
824.756	-1.00237
825.164	-5.01186
825.573	1.00239
825.981	39.09122
826.389	-16.03772
826.797	-17.04074
827.205	31.06653
827.612	-6.01393
828.02	15.03358
828.428	23.05529
828.835	12.0303
829.243	12.0268
829.65	9.02134
830.057	40.09244
830.464	39.09065
830.871	-11.0248
831.278	-29.06602
831.685	-15.03096
832.092	1.00234
832.499	-16.03258
832.905	12.029
833.312	9.01904
833.718	-30.07093
834.124	71.15061
834.531	-42.10076
834.937	-28.06806
835.343	18.04098
835.749	6.013
836.155	-23.05761
836.561	-49.11295
836.966	18.04133
837.372	19.04562
837.777	-30.07087
838.183	-34.06917
838.588	37.08722
838.993	0
839.399	-30.06955
839.804	1.00234
840.209	3.00735
840.613	38.0795
841.018	-44.10547
841.423	-59.14393
841.828	-5.01202
842.232	-62.14419
842.637	9.01959
843.041	65.16004
843.445	-37.0878
843.849	-24.05665
844.253	3.00664
844.657	-32.07796
845.061	28.05936
845.465	45.10455
845.869	12.02597
846.272	-32.07427
846.676	34.07748
847.079	21.05115
847.483	21.04927
847.886	-5.01126
848.289	29.07519
848.692	1.0024
849.095	-26.05843
849.498	7.01641
849.901	-5.01063
850.304	-10.02235
850.707	4.00965
851.109	-25.05896
851.512	23.05382
851.914	11.02695
852.316	22.05292
852.718	20.04985
853.121	8.01855
853.523	-10.02195
853.925	-28.07035
854.326	46.10993
854.728	-7.01718
855.13	24.05939
855.531	21.04813
855.933	56.12472
856.334	3.00715
856.736	-44.09221
857.137	34.07384
857.538	-24.05766
857.939	10.0236
858.34	34.07707
858.741	0
859.142	24.05434
859.542	34.08738
859.943	18.0427
860.343	-16.03803
860.744	64.14649
861.144	19.04364
861.544	-8.01855
861.945	-39.09447
862.345	-61.13976
862.745	19.04462
863.145	-27.05962
863.544	83.19892
863.944	-22.04888
864.344	-45.10505
864.743	50.11628
865.143	38.09227
865.542	-21.04571
865.941	49.1151
866.34	37.08304
866.74	28.07158
867.139	18.04089
867.537	12.02877
867.936	29.06583
868.335	35.0849
868.734	16.0393
869.132	-5.01103
869.531	10.02269
869.929	22.04743
870.327	42.09416
870.726	34.07932
871.124	-7.01521
871.522	-40.0965
871.92	31.07168
872.318	42.09656
872.715	21.04866
873.113	34.07804
873.511	24.05656
873.908	54.1319
874.306	24.05661
874.703	-4.00947
875.1	38.09092
875.497	0
875.894	9.02128
876.291	40.09295
876.688	-1.00245
877.085	-20.0451
877.482	-3.00705
877.878	-13.02974
878.275	-8.01925
878.671	-26.05246
879.068	36.08107
879.464	-41.09462
879.86	22.04957
880.256	-7.0161
880.652	-23.05573
881.048	-15.03474
881.444	-12.02648
881.84	-9.02163
882.236	28.06658
882.631	-1.00233
883.027	-6.01346
883.422	24.05797
883.817	26.06266
884.213	15.03662
884.608	-31.07333
885.003	-1.00229
885.398	-30.07164
885.793	29.06823
886.188	34.08079
886.582	-16.03824
886.977	7.01555
887.371	-25.06017
887.766	-11.02628
888.16	-11.0261
888.554	-37.0859
888.949	-11.02577
889.343	-7.0159
889.737	36.09304
890.131	42.09972
890.525	-16.03885
890.918	-8.01933
891.312	-40.08883
891.706	33.08296
892.099	25.0598
892.492	2.00401
892.886	-19.04374
893.279	15.03625
893.672	12.0291
894.065	7.01649
894.458	-12.0286
894.851	14.03168
895.244	24.05814
895.637	7.01592
896.029	2.00462
896.422	-5.01147
896.814	20.04703
897.206	25.05661
897.599	-3.00683
897.991	42.09544
898.383	-3.00663
898.775	-12.02526
899.167	19.04204
899.559	-30.07194
899.951	-12.02654
900.342	-25.05939
900.734	25.06005
901.125	30.0738
901.517	-5.01169
901.908	-3.00669
902.299	-26.06073
902.69	15.03323
903.082	61.13735
903.473	20.04558
903.863	35.08538
904.254	-13.02821
904.645	5.01155
905.036	45.10389
905.426	-35.07285
905.817	-36.08399
906.207	9.02031
906.597	11.02424
906.987	-9.02188
907.378	-34.08153
907.768	17.04301
908.158	17.03912
908.547	13.03206
908.937	2.00485
909.327	3.00682
909.717	-6.01429
910.106	-32.07292
910.495	41.09676
910.885	3.00706
911.274	19.04508
911.663	60.14432
912.052	31.07103
912.441	4.00976
912.83	-6.01282
913.219	-20.04934
913.608	30.06886
913.997	-28.06689
914.385	-16.03555
914.774	-16.03665
915.162	3.00668
915.55	36.08147
915.939	15.03603
916.327	24.05634
916.715	1.00245
917.103	14.0321
917.491	-16.03687
917.878	-16.03652
918.266	-7.01725
918.654	45.10982
919.041	-28.07017
919.429	30.06651
919.816	10.02383
920.203	-10.02295
920.591	-3.00697
920.978	28.06406
921.365	-3.00747
921.752	2.00451
922.139	69.13804
922.525	-6.01358
922.912	-12.02752
923.299	13.03069
923.685	-9.02243
924.072	23.04862
924.458	1.00235
924.844	-22.05163
925.231	-32.0697
925.617	16.03929
926.003	30.07235
926.389	25.06019
926.774	22.05296
927.16	-9.02103
927.546	7.01705
927.931	65.15138
928.317	-47.10005
928.702	17.03721
929.088	-23.05168
929.473	-1.00242
929.858	24.05573
930.243	-18.04118
930.628	6.01369
931.013	48.11317
931.398	9.01907
931.783	-8.02009
932.167	6.01373
932.552	-58.13686
932.937	-8.01844
933.321	-26.0618
933.705	26.06263
934.09	1.00235
934.474	49.10789
934.858	-3.00745
935.242	37.08123
935.626	-13.03152
936.009	-11.02797
936.393	29.0704
936.777	28.06847
937.16	-75.18562
937.544	-31.06854
937.927	-33.08032
938.311	8.01819
938.694	13.03267
939.077	18.04002
939.46	74.16951
939.843	15.02815
940.226	-16.03885
940.609	-28.06011
940.991	19.04574
941.374	-90.20989
941.757	16.03702
942.139	-19.03955
942.522	-16.035
942.904	28.06321
943.286	-5.01192
943.668	2.00492
944.05	-23.05369
944.432	9.02105
944.814	-25.05774
945.196	-7.01638
945.578	32.07221
945.959	-11.0243
946.341	9.02031
946.722	17.03746
947.104	-13.02899
947.485	-7.01522
947.866	34.08153
948.247	-14.03361
948.628	-13.02969
949.009	-30.07372
949.39	-38.08806
949.771	-19.04111
950.152	46.10631
950.532	40.09563
950.913	-17.0382
951.293	-15.03931
951.674	-67.1532
952.054	36.08415
952.434	-35.08186
952.814	-68.15101
953.194	34.08444
953.574	-7.01601
953.954	-6.01341
954.334	32.07545
954.714	-22.05102
955.093	10.02278
955.473	-9.02115
955.853	10.0247
956.232	-34.08984
956.611	-40.08886
956.99	5.01196
957.37	-41.09987
957.749	-63.14133
958.128	28.06732
958.506	15.03731
958.885	-13.03098
959.264	-7.01626
959.643	51.10743
960.021	2.00469
960.4	49.1043
960.778	-17.03876
961.156	-22.05241
961.535	-59.12685
961.913	-15.03217
962.291	27.0665
962.669	-12.02901
963.047	-43.10345
963.424	7.01702
963.802	-39.09011
964.18	8.01896
964.557	-33.07015
964.935	20.04403
965.312	21.05226
965.69	-1.00235
966.067	-11.02505
966.444	1.00232
966.821	-10.02435
967.198	-25.05631
967.575	-1.00229
967.952	49.10716
968.329	-2.00456
968.705	-25.04888
969.082	-3.00737
969.458	-15.03451
969.835	6.0137
970.211	5.0122
970.587	35.08177
970.963	-2.00486
971.339	31.07745
971.715	-11.02554
972.091	-16.03714
972.467	-35.08141
972.843	-10.02352
973.219	-8.01774
973.594	-10.02501
973.97	12.02629
974.345	-21.04738
974.721	9.0203
975.096	-15.03387
975.471	62.13671
975.846	39.08817
976.221	-7.01692
976.596	4.00902
976.971	25.05797
977.346	-24.05165
977.72	-13.03139
978.095	26.06377
978.469	33.07363
978.844	22.05189
979.218	-5.01141
979.593	-17.03847
979.967	61.13926
980.341	-17.03639
980.715	19.04484
981.089	-28.06581
981.463	28.06055
981.837	-1.00233
982.21	57.12112
982.584	-33.075
982.957	-2.00477
983.331	18.03974
983.704	6.01401
984.078	-50.11661
984.451	-82.1907
984.824	-8.01858
985.197	-28.06409
985.57	-31.07311
985.943	-10.02277
986.316	78.17739
986.688	-16.03617
987.061	10.02162
987.434	-10.0249
987.806	23.05185
988.179	5.01096
988.551	-39.09351
988.923	-26.06044
989.295	57.13248
989.667	25.05723
990.039	-11.02588
990.411	21.04546
990.783	24.05099
991.155	26.05956
991.527	-18.04085
991.898	-13.03045
992.27	25.05827
992.641	9.02115
993.012	45.09904
993.384	21.04686
993.755	-51.12372
994.126	30.06759
994.497	-45.10497
994.868	41.08754
995.239	50.11366
995.61	-31.07398
995.98	48.11009
996.351	-3.00709
996.722	-1.00219
997.092	-5.01127
997.462	23.05085
997.833	35.07674
998.203	-11.02494
998.573	39.09194
998.943	-42.09183
999.313	5.01133
999.683	-59.13317
1000.053	-20.04342
1000.423	4.00914
1000.792	-29.07198
1001.162	-10.02343
1001.531	68.15715
1001.901	13.03035
1002.27	10.02089
1002.639	8.01945
1003.009	31.06989
1003.378	14.03396
1003.747	45.0982
1004.116	14.03163
1004.485	40.08971
1004.853	42.10003
1005.222	25.0601
1005.591	15.03296
1005.959	42.08892
1006.328	15.03121
1006.696	11.02513
1007.064	-12.02867
1007.433	68.15946
1007.801	13.0297
1008.169	-29.06908
1008.537	9.01856
1008.905	9.01971
1009.273	31.07165
1009.64	-2.00452
1010.008	-20.04476
1010.375	55.12379
1010.743	27.0563
1011.11	-28.06277
1011.478	11.02556
1011.845	-50.10923
1012.212	-36.07565
1012.579	-21.04898
1012.946	-4.00877
1013.313	22.04865
1013.68	43.08822
1014.047	-16.03656
1014.414	-14.03146
1014.78	39.0919
1015.147	-29.06516
1015.513	2.00461
1015.88	-36.08639
1016.246	26.06037
1016.612	-8.0169
1016.978	0
1017.344	60.14009
1017.71	-53.11992
1018.076	34.07425
1018.442	30.07241
1018.808	-3.0071
1019.174	-67.1599
1019.539	4.00829
1019.905	2.00446
1020.27	16.03758
1020.636	25.05581
1021.001	-57.12855
1021.366	46.10512
1021.731	15.03669
1022.096	9.02171
1022.461	-35.07716
1022.826	-23.05164
1023.191	26.06474
1023.556	-43.09364
1023.92	-4.00915
1024.285	-10.02289
1024.649	38.08712
1025.014	30.06952
1025.378	26.0623
1025.742	-1.00234
1026.107	13.0269
1026.471	-17.0363
1026.835	-40.09314
1027.199	-17.0389
1027.562	60.12969
1027.926	-5.01147
1028.29	-4.00963
1028.654	-18.03832
1029.017	33.07625
1029.381	46.10287
1029.744	16.03888
1030.107	-14.03046
1030.471	-15.03365
1030.834	-25.0522
1031.197	-52.11672
1031.56	36.08001
1031.923	-2.00491
1032.286	-24.05254
1032.648	13.02884
1033.011	-15.03237
1033.374	-40.0872
1033.736	-23.0578
1034.099	-13.03011
1034.461	-19.04611
1034.823	-14.03283
1035.185	-26.06114
1035.548	-16.03665
1035.91	34.07663
1036.272	-13.0277
1036.634	35.07877
1036.995	28.06197
1037.357	1.0023
1037.719	25.0568
1038.08	-10.02183
1038.442	58.13062
1038.803	12.02675
1039.165	-10.02398
1039.526	-6.01366
1039.887	19.04287
1040.248	77.18067
1040.609	31.07157
1040.97	53.12046
1041.331	-36.08518
1041.692	12.02645
1042.053	10.0209
1042.413	-21.04528
1042.774	-22.05021
1043.134	-13.02867
1043.495	14.03288
1043.855	3.00685
1044.215	9.02095
1044.576	-20.04552
1044.936	80.16907
1045.296	-10.02344
1045.656	35.08022
1046.016	-2.00447
1046.375	27.06189
1046.735	10.02141
1047.095	27.05892
1047.454	8.01553
1047.814	-37.08341
1048.173	-31.06837
1048.533	7.01505
1048.892	-36.08263
1049.251	9.0213
1049.61	-36.08303
1049.969	25.05541
1050.328	1.00197
1050.687	-2.00457
1051.046	32.07354
1051.405	-59.13795
1051.763	-29.06307
1052.122	43.10172
1052.48	-33.07613
1052.839	-20.04436
1053.197	-10.02213
1053.555	-30.06145
1053.914	-3.00687
1054.272	11.0248
1054.63	-25.05744
1054.988	-32.07156
1055.345	-15.02949
1055.703	-30.0674
1056.061	-44.1084
1056.419	-15.03721
1056.776	-15.03408
1057.134	-7.0151
1057.491	-1.00236
1057.848	-20.04679
1058.206	-25.05518
1058.563	10.02066
1058.92	15.03172
1059.277	-16.03653
1059.634	-31.06699
1059.991	27.06064
1060.348	47.09904
1060.704	6.01345
1061.061	-22.04666
1061.418	-25.05776
1061.774	6.01418
1062.131	54.1381
1062.487	-49.1073
1062.843	-7.01646
1063.199	66.15404
1063.555	21.04571
1063.911	8.01898
1064.267	-75.14184
1064.623	23.05302
1064.979	-25.05405
1065.335	10.02191
1065.691	71.15908
1066.046	-41.08332
1066.402	8.01688
1066.757	45.10666
1067.112	-9.02055
1067.468	2.00452
1067.823	20.04511
1068.178	-4.00916
1068.533	21.04717
1068.888	-12.02659
1069.243	-3.00703
1069.598	-56.12704
1069.952	15.03204
1070.307	79.18521
1070.662	15.03344
1071.016	-16.03389
1071.371	16.03361
1071.725	-48.10544
1072.079	-25.05657
1072.434	-28.06422
1072.788	48.10704
1073.142	50.11582
1073.496	-14.03126
1073.85	-19.04118
1074.203	4.00906
1074.557	18.04587
1074.911	-6.01325
1075.265	-3.00642
1075.618	30.06878
1075.971	-12.02664
1076.325	-15.03624
1076.678	20.04251
1077.031	-28.05917
1077.385	17.03486
1077.738	3.00632
1078.091	43.09197
1078.444	-36.07735
1078.796	10.02326
1079.149	-61.14262
1079.502	-4.00889
1079.855	4.00877
1080.207	5.01154
1080.56	-10.02454
1080.912	-75.17115
1081.264	-3.00678
1081.617	-5.01152
1081.969	51.12316
1082.321	25.05721
1082.673	-11.02384
1083.025	-70.15622
1083.377	-12.02336
1083.728	-38.08154
1084.08	19.04495
1084.432	-80.1795
1084.783	80.17425
1085.135	41.09793
1085.486	-21.04552
1085.838	8.01854
1086.189	5.01139
1086.54	38.08435
1086.891	-7.01704
1087.242	-42.0961
1087.593	22.04957
1087.944	0
1088.295	-59.12466
1088.646	-11.02517
1088.996	-46.10487
1089.347	-12.02757
1089.698	35.0779
1090.048	-18.04412
1090.398	42.09071
1090.749	-5.01127
1091.099	-1.00241
1091.449	6.01397
1091.799	1.00236
1092.149	30.07035
1092.499	8.01841
1092.849	14.03367
1093.199	14.0328
1093.548	-20.04567
1093.898	11.02602
1094.248	7.01701
1094.597	12.02949
1094.947	-20.05095
1095.296	-40.09328
1095.645	36.08784
1095.994	57.12782
1096.343	29.0695
1096.692	3.0076
1097.041	3.00784
1097.39	23.05401
1097.739	30.07404
1098.088	-39.09902
1098.437	-12.03028
1098.785	-32.08233
1099.134	-72.18168
1099.482	-10.02614
1099.83	-13.03241
1100.179	51.12756
1100.527	-36.091
1100.875	-38.0964
1101.223	38.09647
1101.571	-5.01335
1101.919	-46.11669
1102.267	39.10644
1102.615	10.03211
1102.962	6.01925
1103.31	12.0385
1103.658	-3.00962
