Data from N3 R5 sample 6_Subt2__5__14-21-20-552.txt Node

Date: Thu Sep 18 14:21:20 PDT 2025
User: uwsun
Spectrometer: HDX01956
Trigger mode: 0
Integration Time (sec): 5.000000E-1
Scans to average: 1
Nonlinearity correction enabled: true
Boxcar width: 0
Storing dark spectrum: false
XAxis mode: Wavelengths
Number of Pixels in Spectrum: 2068
>>>>>Begin Spectral Data<<<<<
194.03	72.20689
194.578	71.22905
195.127	88.27951
195.676	60.19104
196.225	81.21118
196.773	97.26692
197.321	143.3905
197.87	187.46905
198.418	217.54683
198.966	225.5765
199.513	221.54752
200.061	169.41947
200.609	176.45357
201.156	167.35053
201.704	215.52289
202.251	194.50151
202.798	254.63902
203.345	227.54276
203.892	220.53615
204.438	191.4434
204.985	208.48066
205.532	246.64009
206.078	221.52539
206.624	206.49566
207.17	233.51923
207.716	144.33991
208.262	172.32696
208.808	193.46817
209.354	198.46809
209.899	190.46391
210.445	249.60263
210.99	201.47233
211.535	207.4695
212.08	216.48264
212.625	236.56869
213.17	224.54631
213.715	225.4883
214.259	180.40984
214.804	190.45248
215.348	190.41999
215.892	235.54467
216.436	237.52923
216.98	175.37088
217.524	181.41536
218.068	210.51102
218.612	173.41965
219.155	208.47129
219.698	228.51576
220.242	210.50298
220.785	195.44085
221.328	190.45942
221.871	180.44146
222.414	172.4093
222.956	196.45905
223.499	197.42553
224.041	177.39134
224.583	235.47734
225.126	260.55259
225.668	178.41983
226.21	161.39348
226.751	162.3377
227.293	224.48292
227.835	152.35907
228.376	192.42068
228.918	210.50911
229.459	217.52677
230	143.33066
230.541	165.3645
231.082	213.49623
231.622	179.39741
232.163	235.55049
232.704	165.39559
233.244	160.38499
233.784	153.3601
234.324	212.45215
234.864	180.3904
235.404	158.35946
235.944	197.44337
236.484	130.31233
237.023	196.44717
237.563	177.39362
238.102	181.41153
238.641	235.57345
239.18	174.39602
239.719	216.52523
240.258	171.36732
240.797	205.47364
241.335	158.36904
241.874	225.4122
242.412	185.42624
242.95	200.46438
243.488	218.47523
244.026	188.41835
244.564	249.48107
245.102	220.47145
245.64	193.44538
246.177	174.37223
246.715	200.45464
247.252	172.37559
247.789	102.17513
248.326	178.40823
248.863	150.31561
249.4	232.50768
249.936	208.40485
250.473	208.46611
251.009	219.48439
251.546	192.40736
252.082	228.47909
252.618	219.46941
253.154	202.46606
253.69	213.45595
254.226	208.47378
254.761	172.36588
255.297	204.42847
255.832	173.39255
256.367	200.44892
256.903	209.43403
257.438	188.41887
257.972	176.37276
258.507	245.54076
259.042	140.28704
259.576	226.46441
260.111	188.4147
260.645	246.50505
261.179	201.44625
261.713	162.34461
262.247	277.60934
262.781	235.47015
263.315	248.57924
263.849	198.47677
264.382	190.41578
264.915	234.52653
265.449	216.50787
265.982	181.3898
266.515	180.42389
267.048	286.56993
267.58	186.38135
268.113	239.49345
268.646	240.5711
269.178	259.54722
269.71	231.475
270.243	202.44054
270.775	201.49324
271.307	189.43024
271.838	225.50493
272.37	222.52543
272.902	259.56089
273.433	221.45567
273.965	273.63799
274.496	188.44497
275.027	220.51989
275.558	203.472
276.089	267.63839
276.62	160.39256
277.15	222.52238
277.681	202.40947
278.211	206.48001
278.741	268.56338
279.272	242.52553
279.802	277.65799
280.332	204.46241
280.861	228.52394
281.391	213.45911
281.921	216.49021
282.45	298.7129
282.98	257.6425
283.509	286.60334
284.038	233.49531
284.567	217.47355
285.096	243.56098
285.625	297.64317
286.153	195.43761
286.682	214.46374
287.21	217.49957
287.739	218.48852
288.267	229.53329
288.795	271.67701
289.323	271.60915
289.851	249.55074
290.378	280.59276
290.906	256.59486
291.433	255.60691
291.961	247.52667
292.488	260.61678
293.015	255.57648
293.542	231.55865
294.069	266.62127
294.596	253.59567
295.122	266.60318
295.649	335.69413
296.175	271.61314
296.702	228.52227
297.228	206.47207
297.754	273.57655
298.28	225.4856
298.806	260.59867
299.332	248.52042
299.857	266.56509
300.383	270.64322
300.908	292.67797
301.433	320.73591
301.958	214.46354
302.483	261.63071
303.008	304.70275
303.533	259.63177
304.058	299.66022
304.582	287.64273
305.107	286.71615
305.631	272.57985
306.155	326.71968
306.679	290.64262
307.203	302.66196
307.727	328.73498
308.251	268.62791
308.775	277.62212
309.298	297.67934
309.822	324.76976
310.345	295.6601
310.868	268.60821
311.391	338.77823
311.914	322.76324
312.437	283.60238
312.96	312.6954
313.482	323.72274
314.005	299.71161
314.527	347.86179
315.049	347.81725
315.571	382.80655
316.093	394.91401
316.615	387.87518
317.137	328.6591
317.659	325.73201
318.18	370.83385
318.702	372.80609
319.223	345.65537
319.744	451.92695
320.265	365.83116
320.786	387.8944
321.307	412.9565
321.828	469.97393
322.348	381.83914
322.869	353.76541
323.389	676.06357
323.909	430.90708
324.43	392.86861
324.95	411.8729
325.47	432.98705
325.989	494.07937
326.509	456.91969
327.029	403.8395
327.548	455.94022
328.067	465.02468
328.587	432.99856
329.106	460.94992
329.625	435.03734
330.144	435.91139
330.662	462.97971
331.181	487.03778
331.7	492.04233
332.218	582.12473
332.736	441.93906
333.255	518.08651
333.773	501.0783
334.291	509.1396
334.808	516.02318
335.326	544.10043
335.844	536.13621
336.361	560.27837
336.879	556.15865
337.396	559.19407
337.913	472.983
338.43	619.23954
338.947	564.20502
339.464	574.08591
339.981	620.3094
340.497	616.35487
341.014	545.18472
341.53	631.26536
342.046	674.459
342.562	645.4208
343.078	601.24953
343.594	707.47805
344.11	704.4487
344.626	729.61069
345.141	720.42716
345.657	714.37175
346.172	675.41481
346.687	711.41619
347.202	747.43146
347.717	733.51488
348.232	721.57643
348.747	739.45703
349.261	761.445
349.776	732.47058
350.29	752.61761
350.805	754.59205
351.319	737.48098
351.833	737.44764
352.347	725.44211
352.861	811.60069
353.374	784.51369
353.888	778.59398
354.401	814.57246
354.915	879.64437
355.428	891.86883
355.941	872.70156
356.454	910.66941
356.967	893.76193
357.48	845.61413
357.993	866.79043
358.505	878.82739
359.018	882.78126
359.53	854.72072
360.042	830.50556
360.554	908.81374
361.066	907.82804
361.578	904.62598
362.09	923.81695
362.602	947.68916
363.113	888.67064
363.625	1024.85833
364.136	978.71905
364.647	1007.89263
365.158	1029.92933
365.669	1061.07284
366.18	962.79419
366.691	977.72937
367.201	980.88914
367.712	1035.83706
368.222	1135.05432
368.733	1106.88107
369.243	1008.74517
369.753	1092.96403
370.263	1056.98539
370.773	1090.15315
371.282	1120.0789
371.792	1152.02463
372.301	1210.2631
372.811	1219.48391
373.32	1255.95532
373.829	1295.31665
374.338	1386.21426
374.847	1306.20146
375.356	1379.43114
375.865	1458.14469
376.373	1496.37664
376.882	1523.77631
377.39	1543.63644
377.898	1580.77951
378.407	1576.37932
378.915	1708.35155
379.423	1846.80902
379.93	1836.6069
380.438	1970.04362
380.946	2119.92608
381.453	2197.07055
381.96	2180.00923
382.468	2363.09776
382.975	2573.32533
383.482	2559.85197
383.989	2688.60069
384.495	2781.99622
385.002	2903.50326
385.509	2961.02568
386.015	3323.19925
386.521	3366.6734
387.028	3505.7202
387.534	3677.3421
388.04	3756.85497
388.546	3891.37457
389.051	4133.17515
389.557	4394.38553
390.063	4779.16381
390.568	4929.20689
391.073	4973.82268
391.578	5191.10068
392.084	5367.44956
392.589	5648.25526
393.093	6051.46714
393.598	6613.16855
394.103	7249.4773
394.607	7934.85716
395.112	8414.47342
395.616	9020.42277
396.12	9710.14157
396.624	10938.64876
397.128	11957.75676
397.632	13202.55811
398.136	14406.8255
398.639	15276.97686
399.143	16919.56808
399.646	19088.47898
400.15	21317.98466
400.653	23787.41011
401.156	26489.13873
401.659	30780.06961
402.162	38094.16759
402.664	50233.74512
403.167	60850.28129
403.67	61009.11914
404.172	55487.84425
404.674	37291.05854
405.176	4428.40989
405.678	533.47942
406.18	0
406.682	0
407.184	6962.89417
407.686	50953.82939
408.187	59237.6763
408.688	61091.12691
409.19	61923.45898
409.691	62441.93235
410.192	59257.84169
410.693	51421.26673
411.194	46395.08054
411.694	43860.73246
412.195	40703.41014
412.696	36477.01309
413.196	33967.31149
413.696	33150.25181
414.196	33174.03219
414.696	32657.68253
415.196	30749.60971
415.696	28066.02356
416.196	22973.9461
416.695	17766.78906
417.195	15160.82326
417.694	14250.67283
418.194	13443.93998
418.693	12566.1535
419.192	12199.31215
419.691	11924.65983
420.19	11627.94533
420.688	11439.708
421.187	10926.3957
421.685	10274.96013
422.184	9270.96206
422.682	8216.9984
423.18	6881.23295
423.678	6120.24752
424.176	5715.40583
424.674	5417.29457
425.172	5104.87723
425.669	4864.41174
426.167	4558.12669
426.664	4115.29208
427.161	3819.45047
427.659	3562.05893
428.156	3337.27312
428.652	3123.36373
429.149	2941.12382
429.646	2840.56716
430.143	2727.07433
430.639	2500.9686
431.135	2358.14456
431.632	2263.73669
432.128	2149.97045
432.624	1922.06068
433.12	1944.63912
433.616	1807.37292
434.111	1755.69135
434.607	1765.69588
435.103	1672.12893
435.598	1629.08512
436.093	1603.44702
436.588	1495.26175
437.083	1370.14901
437.578	1405.21384
438.073	1265.309
438.568	1188.16853
439.062	1235.87505
439.557	1118.96282
440.051	1096.87101
440.546	1074.86864
441.04	1019.86093
441.534	1032.06587
442.028	1059.9565
442.522	1020.9157
443.015	998.66764
443.509	1026.97228
444.002	968.88558
444.496	892.50055
444.989	954.87145
445.482	914.82321
445.975	879.60717
446.468	913.5339
446.961	860.43713
447.454	783.41689
447.947	869.69289
448.439	887.76316
448.931	844.53334
449.424	771.5871
449.916	744.48098
450.408	839.55937
450.9	789.57541
451.392	755.60495
451.884	731.363
452.375	694.44283
452.867	699.30516
453.358	664.24673
453.849	722.24823
454.341	697.30848
454.832	637.1516
455.323	670.38731
455.814	671.28126
456.304	610.18796
456.795	681.28153
457.285	620.14623
457.776	577.09453
458.266	640.30206
458.756	581.18212
459.247	535.09925
459.737	621.27798
460.226	632.19761
460.716	610.25108
461.206	489.01451
461.695	584.27204
462.185	535.10123
462.674	552.07532
463.163	536.00695
463.653	536.96551
464.142	497.04124
464.63	523.11126
465.119	535.08244
465.608	444.89754
466.096	494.93548
466.585	438.8773
467.073	438.91747
467.561	488.0478
468.05	405.8279
468.538	540.1696
469.026	446.95362
469.513	451.8288
470.001	409.82168
470.489	420.88366
470.976	440.89639
471.463	453.01194
471.951	428.95625
472.438	416.8737
472.925	303.63934
473.412	424.91757
473.899	373.77182
474.385	361.80176
474.872	345.72412
475.359	355.78549
475.845	309.57696
476.331	340.65453
476.817	218.48872
477.303	312.65876
477.789	284.62671
478.275	301.68794
478.761	328.7147
479.247	289.58515
479.732	282.65372
480.218	297.71281
480.703	325.74905
481.188	219.43063
481.673	238.50605
482.158	228.45287
482.643	291.68112
483.128	219.46089
483.612	279.59464
484.097	291.65222
484.581	230.48585
485.066	278.61809
485.55	247.49347
486.034	247.49783
486.518	239.52178
487.002	228.5208
487.486	251.56882
487.969	208.48257
488.453	208.49401
488.936	193.40385
489.42	228.46746
489.903	209.49342
490.386	217.43233
490.869	150.30072
491.352	190.43226
491.835	192.36249
492.318	168.35877
492.8	128.24652
493.283	197.47517
493.765	182.42409
494.247	175.37915
494.73	199.40902
495.212	171.38659
495.694	170.3739
496.175	84.19165
496.657	215.48229
497.139	106.16472
497.62	122.27778
498.102	164.38712
498.583	140.32841
499.064	172.36556
499.545	145.31174
500.026	110.234
500.507	120.26127
500.988	135.31526
501.469	129.30551
501.949	105.24501
502.43	122.27497
502.91	119.23134
503.39	134.31802
503.87	118.2652
504.35	87.19364
504.83	126.26161
505.31	131.3034
505.79	111.2534
506.269	99.21889
506.749	76.16596
507.228	90.20227
507.707	135.28223
508.187	99.22345
508.666	91.21293
509.145	110.24478
509.623	99.22145
510.102	111.25524
510.581	101.2302
511.059	145.34923
511.538	83.20564
512.016	152.34609
512.494	126.28805
512.972	145.32968
513.45	109.24442
513.928	156.35893
514.406	153.35786
514.884	200.49178
515.361	182.41489
515.839	140.30053
516.316	166.37399
516.793	140.33584
517.27	198.45282
517.747	193.46852
518.224	104.22807
518.701	204.42507
519.178	149.35832
519.654	138.30377
520.131	129.30066
520.607	152.35712
521.083	167.36166
521.56	153.33997
522.036	149.30971
522.512	166.38636
522.987	175.39725
523.463	193.43294
523.939	144.33489
524.414	142.30746
524.89	149.33191
525.365	154.33301
525.84	140.32546
526.315	116.26466
526.79	172.3611
527.265	78.16824
527.74	131.30328
528.215	139.3122
528.689	157.33288
529.164	78.15847
529.638	137.33682
530.112	150.34002
530.587	153.3122
531.061	121.28024
531.534	91.20984
532.008	178.40594
532.482	79.16992
532.956	145.35833
533.429	49.11159
533.903	125.25924
534.376	47.09983
534.849	111.24665
535.322	74.16802
535.795	78.18333
536.268	113.26161
536.741	98.22503
537.213	118.26073
537.686	22.05179
538.158	71.15343
538.631	99.22847
539.103	55.11891
539.575	80.15868
540.047	107.2232
540.519	83.18856
540.991	56.13101
541.463	85.19881
541.934	91.20011
542.406	47.10885
542.877	94.20231
543.348	16.03662
543.82	90.21113
544.291	30.06668
544.762	45.1031
545.233	110.26759
545.703	76.1623
546.174	101.22601
546.645	114.26617
547.115	97.22501
547.585	116.25813
548.056	122.2872
548.526	111.25074
548.996	69.15993
549.466	100.23229
549.935	138.31688
550.405	96.20404
550.875	114.25705
551.344	107.2484
551.814	66.1437
552.283	32.06686
552.752	76.17003
553.221	112.23212
553.69	104.222
554.159	122.292
554.628	85.18235
555.096	103.2508
555.565	120.25393
556.033	130.28977
556.502	88.20417
556.97	66.13997
557.438	90.20476
557.906	97.22028
558.374	75.1652
558.842	91.20934
559.31	42.09016
559.777	39.09211
560.245	58.12966
560.712	57.12487
561.18	73.15431
561.647	73.15586
562.114	24.05321
562.581	62.14834
563.048	73.15924
563.514	40.09588
563.981	39.08594
564.448	100.21522
564.914	39.08752
565.381	26.05646
565.847	7.01588
566.313	28.06295
566.779	72.15789
567.245	61.13791
567.711	117.27001
568.176	83.18412
568.642	61.14942
569.108	30.07189
569.573	5.01132
570.038	92.18632
570.504	114.24757
570.969	62.14986
571.434	89.18945
571.899	81.18685
572.363	81.17684
572.828	123.26546
573.293	115.25245
573.757	135.29736
574.222	129.27841
574.686	89.1934
575.15	85.19569
575.614	100.21929
576.078	108.24232
576.542	101.22172
577.006	103.22459
577.469	118.27681
577.933	78.16679
578.396	113.26057
578.86	118.26367
579.323	100.22898
579.786	120.24537
580.249	117.25576
580.712	69.16152
581.175	120.2837
581.637	157.34596
582.1	66.13832
582.563	84.167
583.025	101.23531
583.487	98.18729
583.95	108.22243
584.412	113.22324
584.874	112.25934
585.336	110.25036
585.797	94.19342
586.259	95.21022
586.721	112.25171
587.182	87.19139
587.643	106.22912
588.105	120.27201
588.566	118.23547
589.027	123.28645
589.488	58.12671
589.949	121.27612
590.41	101.18979
590.87	10.0217
591.331	67.13603
591.791	57.12497
592.252	66.14541
592.712	50.11578
593.172	55.11921
593.632	75.15221
594.092	74.15776
594.552	17.03512
595.011	55.12282
595.471	76.16251
595.931	67.14274
596.39	64.14808
596.849	60.13391
597.308	56.11585
597.768	31.07661
598.227	64.14849
598.685	56.1212
599.144	48.10797
599.603	44.10043
600.062	-15.03044
600.52	35.07564
600.978	89.20351
601.437	77.16768
601.895	56.11367
602.353	48.10091
602.811	56.11892
603.269	60.13717
603.727	61.14049
604.184	44.09564
604.642	63.1477
605.099	29.06465
605.557	43.09971
606.014	64.1314
606.471	84.20365
606.928	146.30787
607.385	64.15295
607.842	138.30301
608.299	67.14931
608.755	55.12733
609.212	135.28561
609.668	60.12886
610.125	64.14708
610.581	110.24183
611.037	61.13233
611.493	57.12792
611.949	45.10451
612.405	49.09521
612.861	72.15856
613.316	88.20231
613.772	75.16471
614.227	75.16942
614.683	107.21665
615.138	89.2017
615.593	36.07971
616.048	17.03693
616.503	55.1294
616.958	57.13729
617.412	67.1516
617.867	106.22558
618.321	7.01361
618.776	74.15536
619.23	60.13628
619.684	116.24396
620.138	31.06742
620.592	42.09745
621.046	52.11591
621.5	43.09991
621.954	52.11076
622.407	103.21543
622.861	-16.03711
623.314	104.22383
623.768	24.05398
624.221	99.18503
624.674	-20.04412
625.127	60.13402
625.58	1.00214
626.033	37.0766
626.485	-4.00923
626.938	41.09266
627.39	60.13313
627.843	-22.04879
628.295	62.13665
628.747	31.07066
629.199	40.08794
629.651	-33.07311
630.103	31.06857
630.555	-13.02625
631.006	7.01577
631.458	-28.06295
631.909	52.11245
632.361	17.03757
632.812	1.00224
633.263	6.01225
633.714	-29.05891
634.165	-21.04817
634.616	-24.05482
635.067	8.01669
635.518	1.00225
635.968	12.02277
636.419	-16.03294
636.869	-31.07063
637.319	17.03762
637.769	-8.01735
638.219	21.04713
638.669	-8.01852
639.119	23.05348
639.569	29.06783
640.019	19.04182
640.468	-66.14113
640.918	47.10743
641.367	-11.02385
641.816	-3.00648
642.265	0
642.714	46.10232
643.163	-31.06791
643.612	2.00471
644.061	-73.1495
644.51	41.08982
644.958	24.05054
645.406	33.07619
645.855	16.03759
646.303	26.05779
646.751	-8.01774
647.199	-32.06923
647.647	34.07601
648.095	-12.02644
648.543	-5.00964
648.99	22.05086
649.438	38.08558
649.885	25.06008
650.333	-14.02552
650.78	33.07803
651.227	50.11748
651.674	15.03301
652.121	-42.09814
652.568	0
653.015	-19.04568
653.461	2.0046
653.908	17.03798
654.354	10.02265
654.801	32.07236
655.247	34.07081
655.693	-7.01776
656.139	-18.04175
656.585	-3.00698
657.031	35.07935
657.477	34.07094
657.922	62.13745
658.368	-3.00712
658.813	-44.09698
659.259	0
659.704	25.05657
660.149	77.17067
660.594	55.12521
661.039	14.03097
661.484	41.09398
661.929	63.14005
662.373	27.06677
662.818	7.01698
663.262	-16.03728
663.707	-19.04664
664.151	57.13525
664.595	41.09537
665.039	-6.01441
665.483	40.0992
665.927	20.04502
666.371	-20.04554
666.814	23.05278
667.258	15.03478
667.701	32.06472
668.145	6.01438
668.588	10.02386
669.031	32.0733
669.474	-7.01633
669.917	7.01482
670.36	-10.02396
670.803	37.08546
671.245	-12.02422
671.688	18.04216
672.13	13.02797
672.573	54.13259
673.015	40.09189
673.457	44.09246
673.899	-28.06563
674.341	6.01399
674.783	66.15252
675.225	-38.09116
675.666	6.01406
676.108	2.00421
676.549	20.04535
676.991	-24.05103
677.432	29.05425
677.873	22.04871
678.314	22.05048
678.755	40.09427
679.196	35.07755
679.637	4.00935
680.078	48.10695
680.518	-39.08659
680.959	-21.04879
681.399	35.08286
681.839	-3.00706
682.28	-1.00241
682.72	17.03723
683.16	57.13671
683.6	84.18094
684.039	-2.00397
684.479	-7.01671
684.919	1.00226
685.358	28.06811
685.798	-28.07121
686.237	38.08775
686.676	56.12332
687.115	2.00453
687.554	43.09769
687.993	9.01877
688.432	45.09937
688.871	5.01093
689.309	121.28057
689.748	43.08519
690.186	16.03631
690.625	54.1233
691.063	76.1757
691.501	69.16335
691.939	13.03138
692.377	48.11265
692.815	31.07228
693.253	-13.02987
693.69	16.03365
694.128	47.11071
694.565	58.13254
695.003	41.10058
695.44	33.07406
695.877	72.16215
696.314	55.11157
696.751	46.09913
697.188	55.1214
697.625	32.06932
698.061	30.0693
698.498	44.10172
698.934	-6.01383
699.371	31.0706
699.807	33.07509
700.243	47.10985
700.679	21.04554
701.115	52.11562
701.551	88.19786
701.987	-2.00427
702.422	-2.00458
702.858	13.02955
703.294	13.02799
703.729	64.15055
704.164	34.07923
704.599	7.01484
705.035	24.05168
705.47	71.16717
705.904	5.01116
706.339	21.04598
706.774	-12.02696
707.209	23.05066
707.643	66.15101
708.078	5.0117
708.512	73.17802
708.946	-42.09706
709.38	-1.00226
709.814	47.10131
710.248	-24.05588
710.682	74.1689
711.116	51.11774
711.549	-30.07483
711.983	-29.06425
712.416	15.03351
712.85	51.1226
713.283	25.05664
713.716	40.09548
714.149	-6.01357
714.582	48.10251
715.015	53.12557
715.448	12.02864
715.881	38.07675
716.313	74.16549
716.746	70.15745
717.178	33.07555
717.61	41.09972
718.043	-9.02142
718.475	10.02315
718.907	4.00957
719.339	42.09059
719.77	25.05765
720.202	-5.01217
720.634	40.09391
721.065	50.11228
721.497	25.05889
721.928	7.01666
722.359	53.12401
722.79	9.02069
723.221	-12.02881
723.652	5.01227
724.083	37.07879
724.514	-6.01291
724.945	23.0517
725.375	32.07115
725.806	3.00705
726.236	34.08308
726.666	30.06698
727.096	23.0535
727.526	21.0514
727.956	7.01519
728.386	-16.03723
728.816	-43.10607
729.246	7.01648
729.675	20.04769
730.105	-2.00469
730.534	33.07333
730.964	-23.05531
731.393	-2.00466
731.822	43.10533
732.251	11.02698
732.68	-14.03069
733.109	39.09183
733.537	27.06201
733.966	51.11971
734.395	-19.04164
734.823	29.06114
735.251	-3.00693
735.68	19.04515
736.108	6.01446
736.536	33.07369
736.964	1.0022
737.392	21.04972
737.82	10.02273
738.247	61.13628
738.675	-3.00673
739.102	25.06046
739.53	-2.00495
739.957	9.02209
740.384	-13.03028
740.811	38.0923
741.238	35.08048
741.665	52.11572
742.092	28.06259
742.519	43.10255
742.945	41.09303
743.372	66.15531
743.798	10.02461
744.225	-14.03175
744.651	-28.0673
745.077	16.03808
745.503	9.02075
745.929	-14.03197
746.355	-3.00698
746.781	23.05416
747.207	-25.05719
747.632	13.03053
748.058	-16.0379
748.483	-48.10477
748.908	1.00238
749.334	8.01874
749.759	32.07112
750.184	17.03848
750.609	0
751.033	4.00878
751.458	58.123
751.883	-22.05189
752.307	27.06132
752.732	29.07019
753.156	11.0259
753.58	44.09799
754.005	42.10229
754.429	-14.03088
754.853	28.06638
755.277	28.06329
755.7	22.05181
756.124	33.07909
756.548	21.04765
756.971	24.05535
757.394	-17.04215
757.818	5.01246
758.241	-55.13427
758.664	42.10213
759.087	57.12228
759.51	33.07803
759.933	37.08522
760.356	41.09991
760.778	49.11645
761.201	-30.06861
761.623	-41.09371
762.046	-42.09284
762.468	39.08803
762.89	38.08886
763.312	6.01384
763.734	-19.04406
764.156	32.07545
764.578	-15.03242
765	15.03484
765.421	14.03479
765.843	16.04044
766.264	26.05891
766.686	62.14885
767.107	69.15993
767.528	6.01477
767.949	35.08478
768.37	9.02097
768.791	-7.01606
769.212	7.01717
769.632	-39.08713
770.053	-21.05362
770.473	-10.02335
770.894	-44.10467
771.314	17.03792
771.734	-31.06863
772.154	11.02709
772.575	-38.08393
772.994	-28.06101
773.414	-22.04926
773.834	-15.03629
774.254	-3.00697
774.673	6.01383
775.093	12.0286
775.512	-3.00714
775.931	65.15803
776.351	-41.09744
776.77	5.01175
777.189	-23.05183
777.607	60.14607
778.026	-14.03375
778.445	23.05584
778.864	-7.01713
779.282	-35.07997
779.701	16.03854
780.119	-37.08962
780.537	-35.08395
780.955	18.04346
781.373	-7.01653
781.791	38.08091
782.209	36.07848
782.627	8.02039
783.045	34.07365
783.462	18.04359
783.88	13.03246
784.297	-16.03867
784.715	0
785.132	-13.03005
785.549	23.05563
785.966	8.01913
786.383	52.12194
786.8	39.08536
787.217	-20.04513
787.633	-54.13072
788.05	-5.01093
788.466	36.07908
788.883	63.15403
789.299	-18.04095
789.715	76.17494
790.131	12.02825
790.547	-30.07043
790.963	20.04725
791.379	32.0772
791.795	-6.01292
792.21	2.00441
792.626	34.07591
793.041	4.00934
793.457	-23.05411
793.872	27.06007
794.287	70.16138
794.702	2.00466
795.117	-44.10443
795.532	3.00729
795.947	40.08949
796.362	23.05119
796.776	-20.04288
797.191	-11.02555
797.605	48.10863
798.02	-17.03992
798.434	-23.04787
798.848	8.01861
799.262	56.13362
799.676	24.05474
800.09	-26.06083
800.504	44.10039
800.918	5.0109
801.331	5.01243
801.745	6.01294
802.158	-12.0286
802.572	-7.01603
802.985	-10.02262
803.398	9.02031
803.811	38.09185
804.224	-1.00236
804.637	-62.13928
805.05	3.00655
805.462	-1.00232
805.875	54.13577
806.288	19.044
806.7	11.02629
807.112	-3.00657
807.525	-3.00709
807.937	-4.00945
808.349	-37.08847
808.761	-42.09737
809.173	9.02039
809.584	-8.01868
809.996	-9.02114
810.408	-13.03241
810.819	-27.06067
811.231	59.14874
811.642	89.20727
812.053	46.10504
812.464	8.01821
812.875	15.03666
813.286	38.09244
813.697	-15.03217
814.108	-59.13665
814.519	-25.05203
814.929	-25.06028
815.34	-17.03912
815.75	-5.01214
816.16	-27.06303
816.571	28.06928
816.981	-16.03516
817.391	-2.00456
817.801	26.06216
818.211	-23.05236
818.62	-17.03879
819.03	-8.01838
819.44	5.0124
819.849	22.05284
820.259	54.13102
820.668	4.00948
821.077	-32.07644
821.486	4.00898
821.895	-38.08775
822.304	13.033
822.713	32.07065
823.122	18.04292
823.531	30.06726
823.939	49.11249
824.348	65.14845
824.756	-8.01898
825.164	14.03309
825.573	-28.0673
825.981	60.13976
826.389	-17.04009
826.797	0
827.205	4.00863
827.612	20.0462
828.02	-10.0225
828.428	4.00965
828.835	-11.02789
829.243	-13.02919
829.65	-12.02857
830.057	19.04409
830.464	50.11596
830.871	-12.02706
831.278	-32.07289
831.685	-18.03717
832.092	32.07427
832.499	-52.10676
832.905	13.03141
833.312	-17.03617
833.718	7.01643
834.124	72.15269
834.531	-6.01429
834.937	-13.03151
835.343	-16.03668
835.749	-2.00434
836.155	-40.1005
836.561	-54.12459
836.966	63.14336
837.372	-4.00965
837.777	-38.08991
838.183	-77.15819
838.588	21.04966
838.993	6.01361
839.399	-30.06955
839.804	6.01404
840.209	15.03669
840.613	59.12285
841.018	-38.09099
841.423	-35.085
841.828	-3.00721
842.232	-17.03919
842.637	-22.0482
843.041	54.13323
843.445	-11.02597
843.849	-37.08756
844.253	-14.03109
844.657	13.03141
845.061	28.05936
845.465	80.18458
845.869	5.01084
846.272	-17.03934
846.676	33.07522
847.079	-17.0417
847.483	-24.05681
847.886	12.02694
848.289	21.05453
848.692	-27.06513
849.095	-44.09925
849.498	-22.05187
849.901	12.02543
850.304	17.03779
850.707	24.05771
851.109	-56.13286
851.512	52.12098
851.914	51.12404
852.316	-19.04606
852.718	-30.07546
853.121	-9.02094
853.523	-15.03296
853.925	24.05973
854.326	5.01204
854.728	2.0049
855.13	-5.01244
855.531	45.10265
855.933	-14.03163
856.334	-4.00954
856.736	-15.03123
857.137	-33.07269
857.538	-8.01916
857.939	21.04945
858.34	11.02505
858.741	-3.00748
859.142	0
859.542	60.1535
859.943	67.15745
860.343	-8.01899
860.744	12.02775
861.144	34.07785
861.544	-2.00463
861.945	-26.06282
862.345	-60.13744
862.745	6.01412
863.145	-15.03304
863.544	60.14443
863.944	-18.03996
864.344	6.01387
864.743	23.05378
865.143	-1.00245
865.542	23.0496
865.941	31.07308
866.34	53.11855
866.74	12.03077
867.139	4.00911
867.537	-29.07006
867.936	33.07485
868.335	20.04865
868.734	16.0393
869.132	0
869.531	15.034
869.929	11.02377
870.327	-17.03857
870.726	34.07932
871.124	28.06039
871.522	-39.09407
871.92	0
872.318	-16.03721
872.715	29.06709
873.113	22.05062
873.511	12.02835
873.908	-6.01482
874.306	11.02601
874.703	2.00473
875.1	6.01444
875.497	-15.03375
875.894	60.14048
876.291	34.0791
876.688	-23.05661
877.085	-15.03379
877.482	3.00704
877.878	-13.02974
878.275	-3.00721
878.671	-86.17593
879.068	31.06989
879.464	33.07503
879.86	17.03834
880.256	3.00688
880.652	20.04807
881.048	-22.05102
881.444	14.03073
881.84	5.01198
882.236	33.0784
882.631	10.02322
883.027	-17.03821
883.422	-11.02674
883.817	26.06266
884.213	-14.03436
884.608	-31.07333
885.003	40.09067
885.398	-18.04288
885.793	-7.01658
886.188	-7.01676
886.582	-60.14459
886.977	-30.06717
887.371	1.00239
887.766	6.01429
888.16	28.06594
888.554	-28.06489
888.949	-30.07054
889.343	-11.025
889.737	32.08276
890.131	20.04769
890.525	12.02898
890.918	23.05525
891.312	-38.08435
891.706	43.1079
892.099	18.04312
892.492	-4.00802
892.886	-8.01838
893.279	0
893.672	-4.00973
894.065	-25.05928
894.458	60.14103
894.851	4.00907
895.244	-12.02927
895.637	51.11497
896.029	42.09617
896.422	-13.02988
896.814	6.01415
897.206	-1.00228
897.599	-7.01595
897.991	44.09994
898.383	-12.02658
898.775	1.0021
899.167	-23.05134
899.559	48.11339
899.951	14.03079
900.342	-50.11935
900.734	28.06722
901.125	5.01236
901.517	24.05579
901.908	5.01113
902.299	-29.06778
902.69	-7.01558
903.082	38.08596
903.473	42.09528
903.863	45.10957
904.254	-36.07851
904.645	-14.03247
905.036	2.00466
905.426	-20.04149
905.817	34.07823
906.207	9.02031
906.597	-25.05551
906.987	-32.07814
907.378	-41.09845
907.768	4.01014
908.158	7.01614
908.547	-14.03469
908.937	-8.01942
909.327	-25.05719
909.717	36.08504
910.106	-17.03862
910.495	50.1178
910.885	-26.06154
911.274	24.05689
911.663	34.08218
912.052	6.01382
912.441	35.0849
912.83	-17.03641
913.219	38.09275
913.608	19.04371
913.997	-47.11269
914.385	-14.03109
914.774	-18.04125
915.162	4.00891
915.55	39.08821
915.939	10.02404
916.327	-17.04023
916.715	4.00979
917.103	2.0046
917.491	-40.09262
917.878	-35.08019
918.266	7.01721
918.654	35.08557
919.041	-16.04001
919.429	27.0599
919.816	-23.05517
920.203	25.05698
920.591	-13.03028
920.978	28.06406
921.365	-22.05496
921.752	16.03597
922.139	39.07857
922.525	-11.02493
922.912	19.04331
923.299	-13.03085
923.685	0
924.072	-13.0277
924.458	34.07923
924.844	-29.06815
925.231	-36.07848
925.617	7.01722
926.003	-1.00243
926.389	29.06977
926.774	51.12209
927.16	9.02096
927.546	-16.03914
927.931	2.00472
928.317	34.0711
928.702	-16.03526
929.088	-3.00671
929.473	-8.01939
929.858	47.10864
930.243	13.02956
930.628	-13.02979
931.013	32.07568
931.398	9.01907
931.783	12.03002
932.167	4.00916
932.552	-48.11304
932.937	-14.0323
933.321	-33.07855
933.705	40.0961
934.09	15.03515
934.474	14.03105
934.858	7.01736
935.242	43.09428
935.626	-26.0632
936.009	-39.09965
936.393	38.0921
936.777	32.07819
937.16	-61.15058
937.544	6.01316
937.927	-24.05832
938.311	24.05438
938.694	10.02514
939.077	-20.04482
939.46	87.19877
939.843	-9.01699
940.226	-74.18163
940.609	31.0657
940.991	-26.06313
941.374	-44.10168
941.757	8.01854
942.139	2.00414
942.522	-5.01091
942.904	14.0317
943.286	2.00476
943.668	1.00246
944.05	-10.02328
944.432	-6.01408
944.814	-27.06238
945.196	25.05813
945.578	-6.01365
945.959	-4.00882
946.341	-35.07968
946.722	41.08989
947.104	6.01333
947.485	8.01734
947.866	21.05048
948.247	-44.10624
948.628	-7.01597
949.009	-4.00978
949.39	-34.07873
949.771	15.03222
950.152	31.07185
950.532	23.05517
950.913	3.00671
951.293	16.04171
951.674	-13.0294
952.054	-37.08773
952.434	-18.04196
952.814	-38.08386
953.194	-4.01
953.574	-7.01601
953.954	15.03337
954.334	6.01422
954.714	43.09844
955.093	-10.02287
955.473	-57.1352
955.853	16.03948
956.232	-2.00526
956.611	-9.01987
956.99	-40.09647
957.37	23.05535
957.749	-29.0646
958.128	-9.02179
958.506	7.01744
958.885	-2.00476
959.264	-38.08879
959.643	23.04875
960.021	7.01641
960.4	-4.00861
960.778	-3.00682
961.156	-15.03569
961.535	-43.09213
961.913	-52.1124
962.291	17.04195
962.669	4.00964
963.047	-49.11802
963.424	19.04609
963.802	-66.15331
964.18	18.04259
964.557	-44.09376
964.935	-1.00221
965.312	-4.01
965.69	0
966.067	-12.02733
966.444	28.06463
966.821	10.02426
967.198	12.02683
967.575	-25.05749
967.952	50.10932
968.329	-28.06419
968.705	0
969.082	10.02452
969.458	-5.01148
969.835	20.04554
970.211	-1.00244
970.587	15.03518
970.963	19.04595
971.339	4.01004
971.715	-8.01856
972.091	-33.07685
972.467	-12.02779
972.843	-18.04241
973.219	-62.13906
973.594	-36.09045
973.97	39.08497
974.345	1.00225
974.721	22.04948
975.096	-39.0885
975.471	7.01561
975.846	8.0182
976.221	-12.02903
976.596	-3.00677
976.971	10.02326
977.346	-18.03869
977.72	-22.05322
978.095	26.06377
978.469	44.09795
978.844	30.07065
979.218	-32.07342
979.593	-14.03166
979.967	40.0917
980.341	-1.00213
980.715	-33.07867
981.089	-10.02342
981.463	45.09696
981.837	30.06938
982.21	59.12532
982.584	-43.09793
982.957	3.00715
983.331	16.03534
983.704	10.02333
984.078	-3.00693
984.451	-28.06442
984.824	-20.04657
985.197	14.03177
985.57	-12.02819
985.943	-36.0824
986.316	25.05746
986.688	-36.0817
987.061	-21.04571
987.434	4.00993
987.806	15.03387
988.179	-63.14011
988.551	-12.02862
988.923	-5.01158
989.295	37.08634
989.667	23.05268
990.039	25.05841
990.411	10.0217
990.783	9.01918
991.155	7.0161
991.527	-11.02493
991.898	16.03727
992.27	9.02104
992.641	4.00941
993.012	64.14029
993.384	36.08008
993.755	0
994.126	-18.04095
994.497	-7.01621
994.868	6.01291
995.239	23.05257
995.61	-40.09563
995.98	12.02772
996.351	-12.0284
996.722	12.02625
997.092	-4.00902
997.462	-7.01557
997.833	-30.06668
998.203	26.05851
998.573	42.09895
998.943	-4.00868
999.313	-11.025
999.683	-16.0358
1000.053	19.0409
1000.423	0
1000.792	17.04184
1001.162	34.07898
1001.531	40.09295
1001.901	12.02802
1002.27	45.09329
1002.639	-18.04397
1003.009	48.10783
1003.378	-20.04882
1003.747	5.011
1004.116	-31.07069
1004.485	19.0428
1004.853	-12.02887
1005.222	44.10539
1005.591	3.00661
1005.959	11.02345
1006.328	-51.10766
1006.696	25.05696
1007.064	2.00476
1007.433	50.11766
1007.801	-16.03677
1008.169	-41.09789
1008.537	47.09608
1008.905	-9.01978
1009.273	2.00465
1009.64	3.00677
1010.008	-5.01116
1010.375	62.13934
1010.743	-2.0042
1011.11	-23.05151
1011.478	-8.01866
1011.845	-39.085
1012.212	-41.08625
1012.579	14.03243
1012.946	-12.02636
1013.313	26.05745
1013.68	-5.01037
1014.047	-2.00456
1014.414	37.08228
1014.78	4.00949
1015.147	28.06218
1015.513	29.0665
1015.88	20.04749
1016.246	46.10639
1016.612	-16.03386
1016.978	21.04806
1017.344	39.09144
1017.71	-14.03143
1018.076	22.04816
1018.442	7.01697
1018.808	22.05185
1019.174	-30.07109
1019.539	15.031
1019.905	22.04881
1020.27	-3.00707
1020.636	20.04469
1021.001	9.02002
1021.366	57.12997
1021.731	29.07075
1022.096	-3.00725
1022.461	-38.08382
1022.826	27.06
1023.191	7.01749
1023.556	-23.04987
1023.92	-39.08982
1024.285	-58.13404
1024.649	9.02075
1025.014	17.0395
1025.378	34.08135
1025.742	28.06517
1026.107	-13.02706
1026.471	-68.14679
1026.835	-8.01851
1027.199	-40.09196
1027.562	39.08468
1027.926	16.03653
1028.29	18.04315
1028.654	-28.05974
1029.017	-5.01164
1029.381	-23.05217
1029.744	18.04372
1030.107	-7.01521
1030.471	34.0755
1030.834	3.00622
1031.197	-26.05805
1031.56	52.11519
1031.923	-1.00245
1032.286	20.04338
1032.648	14.03105
1033.011	27.05775
1033.374	-25.05433
1033.736	-21.05275
1034.099	14.03225
1034.461	21.05058
1034.823	-9.02108
1035.185	-37.08719
1035.548	8.01824
1035.91	33.07439
1036.272	37.07797
1036.634	-5.01135
1036.995	30.06637
1037.357	24.05489
1037.719	-8.0183
1038.08	-6.01309
1038.442	16.03634
1038.803	-25.05615
1039.165	12.02866
1039.526	23.05206
1039.887	13.02937
1040.248	45.10624
1040.609	14.03243
1040.97	2.00459
1041.331	-28.06615
1041.692	8.01765
1042.053	13.02715
1042.413	7.015
1042.774	-6.01365
1043.134	-22.04861
1043.495	-22.05203
1043.855	-1.00228
1044.215	-31.07274
1044.576	35.07877
1044.936	22.04708
1045.296	37.08593
1045.656	18.0414
1046.016	17.03781
1046.375	34.07782
1046.735	-14.03013
1047.095	16.035
1047.454	47.09041
1047.814	-22.04944
1048.173	-3.00658
1048.533	11.02363
1048.892	-1.00228
1049.251	2.00474
1049.61	-17.03906
1049.969	37.08181
1050.328	2.00394
1050.687	-25.05735
1051.046	16.03689
1051.405	-35.08145
1051.763	46.09845
1052.122	-12.02869
1052.48	-17.03909
1052.839	33.07238
1053.197	2.00442
1053.555	-42.08627
1053.914	-10.02294
1054.272	5.01129
1054.63	-71.16463
1054.988	-14.03119
1055.345	-37.07313
1055.703	-18.04034
1056.061	-2.00489
1056.419	-12.02975
1056.776	31.06977
1057.134	-29.06286
1057.491	7.01647
1057.848	6.01397
1058.206	9.01972
1058.563	69.14067
1058.92	13.0275
1059.277	-70.16158
1059.634	23.04913
1059.991	53.11841
1060.348	12.02548
1060.704	-1.00224
1061.061	-7.0148
1061.418	-8.01842
1061.774	58.13569
1062.131	49.12543
1062.487	-50.10951
1062.843	1.00235
1063.199	15.03536
1063.555	42.09102
1063.911	0
1064.267	12.02221
1064.623	-10.0232
1064.979	-60.13069
1065.335	14.03065
1065.691	35.079
1066.046	-7.01411
1066.402	-36.07671
1066.757	41.09725
1067.112	-28.06417
1067.468	2.00452
1067.823	25.05634
1068.178	25.05694
1068.533	10.02251
1068.888	-26.05779
1069.243	20.04662
1069.598	-56.12704
1069.952	46.0976
1070.307	9.02139
1070.662	25.05562
1071.016	32.06706
1071.371	-12.02536
1071.725	-64.14106
1072.079	32.07156
1072.434	-34.07807
1072.788	6.0135
1073.142	46.10664
1073.496	2.00445
1073.85	3.00647
1074.203	-16.0364
1074.557	8.02042
1074.911	10.022
1075.265	-23.04945
1075.618	35.08016
1075.971	2.00443
1076.325	-36.08731
1076.678	8.01705
1077.031	-8.01683
1077.385	89.17954
1077.738	21.04408
1078.091	11.02369
1078.444	-28.06006
1078.796	-15.03506
1079.149	-22.05104
1079.502	-24.05356
1079.855	11.02409
1080.207	32.07348
1080.56	-32.07886
1080.912	-13.02929
1081.264	-4.00904
1081.617	-27.06246
1081.969	56.13511
1082.321	8.01837
1082.673	-8.01733
1083.025	-16.03531
1083.377	-254.52289
1083.728	7.01487
1084.08	13.03079
1084.432	-84.18863
1084.783	63.13772
1085.135	24.05751
1085.486	-12.02596
1085.838	-47.1101
1086.189	-9.02056
1086.54	48.10633
1086.891	26.06292
1087.242	-21.04784
1087.593	-21.04773
1087.944	-48.10171
1088.295	-23.04821
1088.646	-6.01372
1088.996	-49.11177
1089.347	-62.14385
1089.698	6.01343
1090.048	-28.06875
1090.398	-20.04377
1090.749	-5.01127
1091.099	42.10033
1091.449	-13.03037
1091.799	11.02587
1092.149	4.00943
1092.499	-3.00692
1092.849	3.00723
1093.199	-24.05665
1093.548	-26.05944
1093.898	18.04252
1094.248	13.03156
1094.597	-30.07429
1094.947	-25.06375
1095.296	-28.06514
1095.645	-8.01968
1095.994	41.09224
1096.343	50.11935
1096.692	8.02024
1097.041	5.01306
1097.39	-53.1263
1097.739	18.04452
1098.088	-23.05823
1098.437	-34.08613
1098.785	22.05607
1099.134	-23.05753
1099.482	-50.13158
1099.83	20.04956
1100.179	10.0252
1100.527	-46.11649
1100.875	-14.03536
1101.223	42.10655
1101.571	-14.03743
1101.919	-8.02016
1102.267	21.05748
1102.615	8.0257
1102.962	4.01283
1103.31	12.0385
1103.658	-3.00962
