Data from N3 R5 sample 3_Subt2__2__14-23-29-050.txt Node

Date: Thu Sep 18 14:23:29 PDT 2025
User: uwsun
Spectrometer: HDX01956
Trigger mode: 0
Integration Time (sec): 5.000000E-1
Scans to average: 1
Nonlinearity correction enabled: true
Boxcar width: 0
Storing dark spectrum: false
XAxis mode: Wavelengths
Number of Pixels in Spectrum: 2068
>>>>>Begin Spectral Data<<<<<
194.03	58.16701
194.578	71.22905
195.127	62.19755
195.676	59.18787
196.225	63.16476
196.773	78.21528
197.321	117.32083
197.87	170.42771
198.418	204.51527
198.966	197.50724
199.513	187.46617
200.061	117.29316
200.609	202.51821
201.156	135.28536
201.704	135.33325
202.251	183.47398
202.798	175.44652
203.345	151.36629
203.892	182.4467
204.438	175.40754
204.985	171.39807
205.532	252.65502
206.078	196.4682
206.624	141.34345
207.17	177.39901
207.716	151.35595
208.262	183.34694
208.808	183.44474
209.354	166.39487
209.899	162.39761
210.445	205.50026
210.99	163.38587
211.535	194.44118
212.08	143.32435
212.625	156.38161
213.17	173.42595
213.715	165.36267
214.259	192.4361
214.804	163.3902
215.348	143.3192
215.892	176.4127
216.436	221.49514
216.98	184.38919
217.524	141.32617
218.068	179.43812
218.612	145.35359
219.155	195.443
219.698	146.33579
220.242	131.31849
220.785	194.43867
221.328	179.43372
221.871	183.44857
222.414	137.32821
222.956	152.35907
223.499	162.35256
224.041	179.39559
224.583	123.25623
225.126	203.4368
225.668	151.35802
226.21	157.38399
226.751	157.32764
227.293	159.34757
227.835	91.21751
228.376	135.29935
228.918	146.35821
229.459	215.52211
230	164.37763
230.541	180.39639
231.082	154.36295
231.622	145.3242
232.163	155.36878
232.704	137.33021
233.244	146.35223
233.784	160.37606
234.324	165.3555
234.864	163.35481
235.404	160.36386
235.944	161.36502
236.484	134.3217
237.023	177.40537
237.563	187.415
238.102	180.40934
238.641	188.46279
239.18	161.36739
239.719	210.51121
240.258	149.32158
240.797	223.51338
241.335	149.34864
241.874	162.3015
242.412	112.26181
242.95	180.4196
243.488	135.29948
244.026	192.42689
244.564	189.37041
245.102	129.28188
245.64	193.44538
246.177	154.33087
246.715	189.43059
247.252	108.23903
247.789	86.14829
248.326	128.29651
248.863	187.39025
249.4	219.48055
249.936	158.31119
250.473	194.43599
251.009	198.43987
251.546	148.31702
252.082	188.39852
252.618	207.44484
253.154	169.39249
253.69	165.35687
254.226	180.41232
254.761	144.30819
255.297	152.32292
255.832	132.30201
256.367	137.31149
256.903	178.37221
257.438	209.46363
257.972	150.3195
258.507	189.42205
259.042	81.16829
259.576	202.41734
260.111	170.37641
260.645	218.4504
261.179	180.40138
261.713	165.35076
262.247	213.47486
262.781	215.43213
263.315	175.4146
263.849	191.46053
264.382	194.42417
264.915	190.43138
265.449	170.4033
265.982	157.33986
266.515	201.47141
267.048	222.44898
267.58	180.36955
268.113	178.37254
268.646	174.41931
269.178	164.35372
269.71	192.39828
270.243	178.39017
270.775	209.5121
271.307	121.27924
271.838	196.44247
272.37	204.48451
272.902	205.44907
273.433	166.3465
273.965	240.56451
274.496	155.3692
275.027	177.42177
275.558	173.40463
276.089	216.52149
276.62	178.43526
277.15	217.51112
277.681	174.35497
278.211	155.36481
278.741	211.44913
279.272	235.51109
279.802	195.47053
280.332	219.4949
280.861	202.46661
281.391	208.44881
281.921	175.40047
282.45	241.58283
282.98	224.56335
283.509	208.44631
284.038	177.38086
284.567	183.40223
285.096	213.49466
285.625	241.52815
286.153	199.44622
286.682	158.34648
287.21	206.47529
287.739	173.39127
288.267	188.44135
288.795	219.55226
289.323	219.49752
289.851	215.47892
290.378	214.45958
290.906	203.47666
291.433	214.51334
291.961	172.37273
292.488	212.50758
293.015	241.54639
293.542	227.54939
294.069	217.51171
294.596	248.58446
295.122	261.59244
295.649	272.57154
296.175	167.38585
296.702	229.52445
297.228	176.40575
297.754	206.44145
298.28	251.53869
298.806	250.57679
299.332	209.44236
299.857	245.52286
300.383	223.53605
300.908	207.4887
301.433	239.55855
301.958	201.43659
302.483	249.60308
303.008	237.55518
303.533	230.56408
304.058	258.57458
304.582	228.51681
305.107	255.64211
305.631	204.44132
306.155	286.63666
306.679	230.51604
307.203	300.65785
307.727	275.62295
308.251	296.6897
308.775	207.4716
309.298	255.58821
309.822	287.68672
310.345	274.61576
310.868	282.63816
311.391	283.65876
311.914	259.62139
312.437	284.60438
312.96	240.5429
313.482	311.69761
314.005	235.56618
314.527	277.69674
315.049	272.64997
315.571	339.72251
316.093	332.77965
316.615	334.7635
317.137	257.52489
317.659	258.58908
318.18	306.69866
318.702	319.69907
319.223	364.68826
319.744	333.70263
320.265	306.70513
320.786	356.82784
321.307	378.88348
321.828	400.84344
322.348	348.77177
322.869	265.58539
323.389	511.84316
323.909	321.69336
324.43	376.83593
324.95	356.76516
325.47	423.96825
325.989	415.92358
326.509	314.65397
327.029	370.77641
327.548	369.77722
328.067	379.85186
328.587	419.97102
329.106	419.87321
329.625	355.86136
330.144	384.81361
330.662	371.80238
331.181	435.93916
331.7	455.97349
332.218	482.95516
332.736	396.85149
333.255	381.8247
333.773	416.91333
334.291	431.98219
334.808	418.84925
335.326	478.9831
335.844	485.03933
336.361	457.06446
336.879	492.0396
337.396	424.93363
337.913	456.95306
338.43	547.11333
338.947	480.04387
339.464	454.88537
339.981	482.04822
340.497	532.19044
341.014	489.07541
341.53	597.20645
342.046	513.1481
342.562	554.2433
343.078	556.16738
343.594	625.33007
344.11	592.24855
344.626	595.35099
345.141	621.25905
345.657	576.14292
346.172	543.17086
346.687	582.19357
347.202	605.19861
347.717	602.28022
348.232	629.40171
348.747	589.20169
349.261	694.33903
349.776	591.22543
350.29	670.46637
350.805	654.41085
351.319	656.34254
351.833	653.30774
352.347	580.19214
352.861	672.36912
353.374	664.31845
353.888	666.39869
354.401	677.35025
354.915	716.39278
355.428	703.5351
355.941	731.47363
356.454	746.42438
356.967	668.38687
357.48	709.39845
357.993	741.57448
358.505	787.67085
359.018	803.65081
359.53	827.67656
360.042	660.24834
360.554	780.60384
361.066	741.54989
361.578	863.56833
362.09	817.64797
362.602	764.42641
363.113	771.49176
363.625	862.62799
364.136	825.50748
364.647	828.62398
365.158	864.68513
365.669	922.86128
366.18	771.50527
366.691	902.62734
367.201	904.77408
367.712	821.53719
368.222	955.80791
368.733	925.64898
369.243	861.54807
369.753	917.72234
370.263	909.77009
370.773	943.9276
371.282	995.90482
371.792	975.79294
372.301	1018.99435
372.811	1018.1678
373.32	1011.68529
373.829	1052.99912
374.338	1123.927
374.847	1135.00033
375.356	1185.19287
375.865	1189.89055
376.373	1268.14282
376.882	1328.53792
377.39	1395.47599
377.898	1362.52962
378.407	1458.27644
378.915	1499.19835
379.423	1565.57389
379.93	1670.49027
380.438	1639.7705
380.946	1791.72338
381.453	1786.81039
381.96	1884.83762
382.468	2086.97496
382.975	2245.20391
383.482	2286.79374
383.989	2288.44376
384.495	2365.93148
385.002	2466.51839
385.509	2561.00515
386.015	2837.32773
386.521	2928.76413
387.028	2961.84435
387.534	3150.52555
388.04	3125.03071
388.546	3294.60776
389.051	3443.48797
389.557	3698.72221
390.063	4102.53365
390.568	4098.66064
391.073	4351.17351
391.578	4436.52416
392.084	4539.89914
392.589	4890.62866
393.093	5111.89006
393.598	5629.39766
394.103	6070.48928
394.607	6793.32313
395.112	7269.57257
395.616	7634.63833
396.12	8399.30292
396.624	9307.05737
397.128	9917.71687
397.632	11123.63048
398.136	12239.88265
398.639	12847.75879
399.143	14505.83502
399.646	16239.21365
400.15	17989.44935
400.653	20092.0328
401.156	22373.22847
401.659	26360.68954
402.162	32456.07799
402.664	43355.11182
403.167	60017.08269
403.67	60400.00408
404.172	55487.84425
404.674	37291.05854
405.176	4428.40989
405.678	533.47942
406.18	0
406.682	0
407.184	6962.89417
407.686	50953.82939
408.187	59237.6763
408.688	61091.12691
409.19	61923.45898
409.691	59922.29647
410.192	50608.83252
410.693	44002.61045
411.194	39735.93115
411.694	37341.84568
412.195	34148.02614
412.696	31032.06183
413.196	28815.19226
413.696	28044.17876
414.196	28111.26539
414.696	27376.72017
415.196	25899.85788
415.696	23371.30798
416.196	19046.5352
416.695	15009.92675
417.195	12807.49325
417.694	12074.21817
418.194	11472.22372
418.693	10726.92196
419.192	10417.46998
419.691	10214.72888
420.19	9928.75992
420.688	9674.95493
421.187	9196.94266
421.685	8551.54645
422.184	7709.59559
422.682	6790.96534
423.18	5781.39015
423.678	5199.62175
424.176	4831.85024
424.674	4566.74762
425.172	4322.31599
425.669	4110.81807
426.167	3778.5296
426.664	3475.57729
427.161	3122.68916
427.659	3049.1614
428.156	2874.39419
428.652	2626.32921
429.149	2477.07417
429.646	2349.55244
430.143	2248.96254
430.639	2151.85773
431.135	1965.9451
431.632	1887.57405
432.128	1767.73046
432.624	1707.88018
433.12	1615.41946
433.616	1546.20157
434.111	1476.44444
434.607	1440.40526
435.103	1342.89797
435.598	1405.93268
436.093	1313.17223
436.588	1312.09047
437.083	1177.94821
437.578	1194.99439
438.073	1069.04627
438.568	1049.98232
439.062	1027.65414
439.557	944.73191
440.051	1008.76085
440.546	916.65939
441.04	870.64794
441.534	881.82593
442.028	888.70991
442.522	818.61189
443.015	845.47037
443.509	877.74569
444.002	821.65454
444.496	767.33362
444.989	778.58896
445.482	721.50203
445.975	762.4339
446.468	733.29118
446.961	713.23885
447.454	687.27321
447.947	758.51519
448.439	684.42328
448.931	720.34876
449.424	662.39577
449.916	624.27638
450.408	705.35345
450.9	652.34277
451.392	692.49099
451.884	599.15294
452.375	583.24164
452.867	585.1227
453.358	570.09465
453.849	567.0201
454.341	576.11311
454.832	573.05256
455.323	537.14452
455.814	576.12482
456.304	507.01116
456.795	511.0012
457.285	511.9717
457.776	491.9523
458.266	525.09564
458.756	484.00613
459.247	489.01496
459.737	512.0791
460.226	506.9896
460.716	506.06176
461.206	440.92451
461.695	449.00546
462.185	473.9888
462.674	449.89746
463.163	395.76902
463.653	479.8754
464.142	372.8023
464.63	410.8941
465.119	439.9092
465.608	381.78132
466.096	454.86813
466.585	356.72659
467.073	369.78474
467.561	427.93057
468.05	337.69952
468.538	431.95679
469.026	402.86774
469.513	361.67841
470.001	323.66178
470.489	349.74576
470.976	344.71612
471.463	394.89264
471.951	348.79037
472.438	326.69828
472.925	255.54373
473.412	312.69137
473.899	318.66613
474.385	319.71467
474.872	314.66357
475.359	319.71114
475.845	327.60785
476.331	271.53036
476.817	269.59671
477.303	253.54111
477.789	259.57453
478.275	226.52433
478.761	243.53904
479.247	255.52033
479.732	284.65809
480.218	278.66963
480.703	273.63574
481.188	200.39503
481.673	243.51612
482.158	212.42266
482.643	231.54705
483.128	199.42064
483.612	216.46667
484.097	243.55002
484.581	162.34731
485.066	197.44537
485.55	156.31825
486.034	226.4577
486.518	160.35516
487.002	181.41736
487.486	150.34692
487.969	185.43117
488.453	177.4229
488.936	162.34131
489.42	211.43427
489.903	164.39057
490.386	198.39622
490.869	121.24421
491.352	131.30159
491.835	172.32633
492.318	157.33608
492.8	129.24839
493.283	163.3957
493.765	123.28995
494.247	159.34566
494.73	176.36362
495.212	144.32734
495.694	131.29048
496.175	121.274
496.657	215.48229
497.139	60.09449
497.62	165.37242
498.102	112.26704
498.583	87.2062
499.064	113.24325
499.545	148.31798
500.026	93.19857
500.507	65.14317
500.988	117.27419
501.469	99.23582
501.949	154.35588
502.43	74.16842
502.91	92.18
503.39	87.20835
503.87	120.26958
504.35	88.19583
504.83	103.21495
505.31	105.24443
505.79	72.16566
506.269	96.21239
506.749	21.04639
507.228	74.16686
507.707	102.2148
508.187	59.13426
508.666	56.13193
509.145	39.08806
509.623	92.20609
510.102	62.14396
510.581	80.18311
511.059	98.23813
511.538	96.23728
512.016	142.32397
512.494	45.10455
512.972	120.27422
513.45	68.15377
513.928	75.17535
514.406	84.19913
514.884	129.32136
515.361	104.24082
515.839	90.19528
516.316	53.12217
516.793	51.12441
517.27	92.21489
517.747	97.23971
518.224	43.09551
518.701	94.20066
519.178	139.3349
519.654	41.09209
520.131	16.03812
520.607	51.12218
521.083	60.13291
521.56	75.16935
522.036	80.16884
522.512	83.19634
522.987	78.18054
523.463	64.14737
523.939	79.18608
524.414	26.05769
524.89	40.09111
525.365	92.20158
525.84	48.11361
526.315	29.06732
526.79	44.09498
527.265	26.0567
527.74	29.0685
528.215	78.17739
528.689	84.18094
529.164	-4.00828
529.638	72.17914
530.112	83.1907
530.587	144.29444
531.061	52.12208
531.534	12.02811
532.008	85.19749
532.482	-4.00876
532.956	42.10575
533.429	1.0023
533.903	51.10752
534.376	47.09983
534.849	98.21835
535.322	31.071
535.795	37.08766
536.268	58.13574
536.741	33.07676
537.213	76.1694
537.686	-18.0427
538.158	37.08054
538.631	8.0188
539.103	20.04356
539.575	15.0302
540.047	37.07838
540.519	54.1234
540.991	11.02596
541.463	101.23549
541.934	55.12186
542.406	79.1818
542.877	-6.01319
543.348	-25.05769
543.82	57.13458
544.291	35.07771
544.762	26.0598
545.233	67.1643
545.703	43.09249
546.174	48.10859
546.645	93.21804
547.115	55.12864
547.585	84.18816
548.056	73.17349
548.526	78.17739
548.996	83.19185
549.466	6.0142
549.935	87.20181
550.405	69.14751
550.875	52.11874
551.344	94.21878
551.814	47.10274
552.283	52.10816
552.752	76.17003
553.221	78.16289
553.69	118.25112
554.159	126.30134
554.628	91.19497
555.096	84.20526
555.565	50.10743
556.033	61.13791
556.502	16.03765
556.97	9.01932
557.438	46.10559
557.906	39.08961
558.374	22.049
558.842	62.14345
559.31	-1.00217
559.777	4.00951
560.245	26.05851
560.712	1.00222
561.18	4.00858
561.647	12.02596
562.114	15.03332
562.581	63.1507
563.048	19.04192
563.514	53.12673
563.981	28.06184
564.448	22.04814
564.914	54.12081
565.381	12.02614
565.847	-10.02277
566.313	40.08971
566.779	87.19018
567.245	-21.04827
567.711	31.07276
568.176	77.17103
568.642	12.02966
569.108	27.06473
569.573	-38.08677
570.038	44.09009
570.504	68.14912
570.969	13.03171
571.434	39.08392
571.899	60.13899
572.363	-4.00889
572.828	37.08133
573.293	2.00449
573.757	63.14086
574.222	67.14653
574.686	35.07693
575.15	37.086
575.614	23.05126
576.078	34.07745
576.542	28.06241
577.006	62.13636
577.469	36.0858
577.933	-8.01743
578.396	37.08661
578.86	41.09307
579.323	69.15898
579.786	46.09564
580.249	45.09987
580.712	19.04491
581.175	53.12693
581.637	89.19891
582.1	36.07595
582.563	-23.04687
583.025	50.11766
583.487	66.12711
583.95	50.10432
584.412	62.12395
584.874	15.0354
585.336	60.13794
585.797	27.0564
586.259	40.08953
586.721	43.09801
587.182	16.03572
587.643	38.08333
588.105	76.17382
588.566	30.06109
589.027	71.16704
589.488	26.05719
589.949	21.04889
590.41	33.06305
590.87	8.01737
591.331	-14.02895
591.791	7.01551
592.252	20.04449
592.712	31.07205
593.172	-1.00219
593.632	21.04314
594.092	6.01298
594.552	27.05565
595.011	15.03377
595.471	-5.01088
595.931	9.01942
596.39	10.02339
596.849	33.07406
597.308	-6.01259
597.768	-2.00497
598.227	39.09093
598.685	2.00438
599.144	4.00908
599.603	66.14997
600.062	-27.05494
600.52	-11.02401
600.978	20.04637
601.437	25.05504
601.895	6.01232
602.353	-24.05125
602.811	9.01931
603.269	27.06214
603.727	19.04413
604.184	10.02189
604.642	-13.03093
605.099	18.04022
605.557	-38.08953
606.014	-2.00417
606.471	24.05884
606.928	103.21925
607.385	10.02414
607.842	52.11624
608.299	63.14051
608.755	8.01869
609.212	28.06063
609.668	56.12037
610.125	-4.00932
610.581	-18.04064
611.037	7.01536
611.493	-15.03416
611.949	-14.03289
612.405	11.02157
612.861	17.03787
613.316	-4.00937
613.772	37.08191
614.227	-21.04837
614.683	18.03719
615.138	64.14578
615.593	-57.12866
616.048	10.02175
616.503	37.08736
616.958	3.0073
617.412	19.04341
617.867	44.0949
618.321	-7.01365
618.776	8.01704
619.23	11.02523
619.684	0
620.138	-41.09054
620.592	-5.01171
621.046	10.02248
621.5	-2.00469
621.954	-4.00862
622.407	33.07009
622.861	-30.06977
623.314	41.08944
623.768	14.03155
624.221	40.07585
624.674	-36.07968
625.127	-2.00452
625.58	-39.0841
626.033	-18.03772
626.485	-27.06256
626.938	-16.03658
627.39	-37.08375
627.843	-14.031
628.295	8.01783
628.747	19.04341
629.199	6.01329
629.651	-40.08875
630.103	20.04434
630.555	-6.0121
631.006	-11.02488
631.458	-58.13121
631.909	8.01746
632.361	-74.16665
632.812	-44.09933
633.263	-66.13697
633.714	-58.11859
634.165	-62.14339
634.616	-21.04794
635.067	-48.1014
635.518	-30.06806
635.968	36.0679
636.419	17.03474
636.869	-57.13055
637.319	-26.05805
637.769	-2.00433
638.219	-33.07488
638.669	15.03456
639.119	-19.04455
639.569	-23.05434
640.019	-25.05553
640.468	-60.12813
640.918	2.00461
641.367	-23.05
641.816	7.01509
642.265	-50.11242
642.714	4.00898
643.163	-57.12555
643.612	-25.05914
644.061	-65.13288
644.51	8.01765
644.958	3.00635
645.406	-23.05369
645.855	-44.10459
646.303	-2.00447
646.751	-18.04001
647.199	-56.12177
647.647	10.02247
648.095	-67.14931
648.543	-24.04649
648.99	-10.02327
649.438	3.0068
649.885	-13.03146
650.333	-29.05307
650.78	41.0968
651.227	-7.01663
651.674	-5.01105
652.121	-40.09343
652.568	-45.10682
653.015	-57.13801
653.461	-35.08106
653.908	3.00672
654.354	-47.10769
654.801	-22.0503
655.247	26.05425
655.693	-36.09181
656.139	-20.0464
656.585	-18.04201
657.031	-11.02517
657.477	17.0356
657.922	3.00673
658.368	-27.06441
658.813	-70.15512
659.259	-31.07282
659.704	-29.06634
660.149	-44.09998
660.594	22.05042
661.039	38.08365
661.484	14.03226
661.929	24.05378
662.373	28.06923
662.818	-6.01459
663.262	-18.04196
663.707	-52.12844
664.151	58.1376
664.595	-49.116
665.039	-6.01441
665.483	39.09673
665.927	-29.06594
666.371	16.03617
666.814	-16.03701
667.258	8.01858
667.701	21.04258
668.145	-4.0096
668.588	25.05948
669.031	3.00691
669.474	-17.03973
669.917	10.02116
670.36	10.02387
670.803	25.05788
671.245	-19.03842
671.688	-5.01176
672.13	-48.10464
672.573	23.0568
673.015	-2.00463
673.457	-3.00637
673.899	12.02791
674.341	15.03491
674.783	-5.01172
675.225	21.04981
675.666	-10.02351
676.108	42.08767
676.549	-5.0114
676.991	-63.1351
677.432	-22.04168
677.873	-23.0514
678.314	-41.09526
678.755	20.04732
679.196	12.02671
679.637	7.01636
680.078	18.04035
680.518	-18.03979
680.959	-17.03947
681.399	0
681.839	20.04686
682.28	27.06473
682.72	-18.03971
683.16	13.03144
683.6	38.08266
684.039	-12.0239
684.479	22.05223
684.919	-12.02718
685.358	-9.02205
685.798	-37.09424
686.237	33.07628
686.676	38.084
687.115	7.01585
687.554	-29.06685
687.993	-25.05252
688.432	50.11029
688.871	-13.02851
689.309	74.17319
689.748	14.02792
690.186	-22.05032
690.625	71.16156
691.063	46.10698
691.501	33.07867
691.939	5.01209
692.377	-10.02373
692.815	38.08848
693.253	-28.06453
693.69	42.08783
694.128	29.06855
694.565	52.11898
695.003	27.06641
695.44	-11.02491
695.877	31.0704
696.314	-8.01646
696.751	6.01304
697.188	80.17566
697.625	6.01307
698.061	6.01393
698.498	13.03024
698.934	1.0023
699.371	14.03199
699.807	-8.01836
700.243	102.23581
700.679	34.07352
701.115	34.07588
701.551	74.16686
701.987	28.05936
702.422	24.05462
702.858	-18.04117
703.294	6.01294
703.729	18.04272
704.164	51.11845
704.599	24.05068
705.035	47.1007
705.47	42.09945
705.904	-1.00223
706.339	37.08075
706.774	2.00448
707.209	17.03749
707.643	34.07829
708.078	9.02104
708.512	31.07619
708.946	27.06154
709.38	17.03836
709.814	45.09704
710.248	35.08055
710.682	10.02312
711.116	40.09255
711.549	-3.00745
711.983	21.04604
712.416	12.02683
712.85	42.10114
713.283	45.10153
713.716	58.13797
714.149	41.09186
714.582	77.1634
715.015	32.07612
715.448	24.05716
715.881	19.03854
716.313	38.08561
716.746	87.19501
717.178	-4.00923
717.61	38.09248
718.043	41.09665
718.475	14.03238
718.907	13.03105
719.339	19.04118
719.77	59.13513
720.202	22.05328
720.634	74.17257
721.065	40.09001
721.497	77.17954
721.928	55.1297
722.359	17.04006
722.79	0
723.221	40.09508
723.652	22.05382
724.083	-4.00859
724.514	1.00215
724.945	56.12503
725.375	31.06894
725.806	0
726.236	74.17948
726.666	53.11777
727.096	31.072
727.526	75.18173
727.956	21.04542
728.386	12.02776
728.816	32.07785
729.246	43.10054
729.675	34.08085
730.105	44.10229
730.534	61.13476
730.964	12.02867
731.393	-8.01865
731.822	105.25423
732.251	67.16265
732.68	9.01963
733.109	34.08013
733.537	37.08481
733.966	47.11041
734.395	31.06722
734.823	46.09662
735.251	26.05975
735.68	96.22476
736.108	78.18548
736.536	15.03362
736.964	36.07861
737.392	20.04736
737.82	65.14611
738.247	71.15829
738.675	61.13504
739.102	41.09886
739.53	43.10548
739.957	39.09518
740.384	44.10132
740.811	92.2212
741.238	55.12597
741.665	111.24398
742.092	37.08256
742.519	64.15201
742.945	24.05465
743.372	35.08286
743.798	15.03688
744.225	87.19324
744.651	37.08783
745.077	46.10884
745.503	25.05744
745.929	58.13051
746.355	30.06933
746.781	58.13563
747.207	43.09702
747.632	73.16941
748.058	14.03297
748.483	47.10052
748.908	12.02847
749.334	66.15283
749.759	39.08655
750.184	33.07445
750.609	46.10622
751.033	31.06768
751.458	105.22039
751.883	60.13926
752.307	105.23467
752.732	63.15151
753.156	47.10989
753.58	96.2115
754.005	106.25506
754.429	23.05034
754.853	80.18774
755.277	96.21398
755.7	72.16791
756.124	96.22731
756.548	24.05443
756.971	81.18469
757.394	62.1515
757.818	57.14066
758.241	52.12441
758.664	94.22636
759.087	92.19588
759.51	58.13649
759.933	46.10576
760.356	35.08538
760.778	98.2307
761.201	29.06554
761.623	-17.03867
762.046	31.06748
762.468	54.12151
762.89	69.16038
763.312	58.13238
763.734	70.15945
764.156	51.1198
764.578	53.11287
765	72.16533
765.421	86.21093
765.843	129.31949
766.264	39.08814
766.686	75.17961
767.107	85.19639
767.528	80.19425
767.949	30.07273
768.37	11.02562
768.791	68.15364
769.212	25.0611
769.632	12.02653
770.053	57.14354
770.473	58.13361
770.894	20.04699
771.314	32.07115
771.734	8.01757
772.154	24.05897
772.575	37.08044
772.994	13.02808
773.414	4.00891
773.834	40.09577
774.254	2.00464
774.673	13.02992
775.093	64.15101
775.512	49.11542
775.931	51.12432
776.351	30.07032
776.77	47.1095
777.189	27.06022
777.607	53.1292
778.026	46.10964
778.445	41.0992
778.864	52.12584
779.282	23.05194
779.701	11.02652
780.119	9.02161
780.537	-24.05744
780.955	26.06268
781.373	21.04933
781.791	42.08934
782.209	97.20872
782.627	22.05593
783.045	38.08224
783.462	15.03635
783.88	33.08209
784.297	20.04802
784.715	27.06743
785.132	22.0505
785.549	44.10599
785.966	17.04059
786.383	34.08001
786.8	45.09837
787.217	22.04922
787.633	-14.03364
788.05	-13.02847
788.466	3.00664
788.883	49.12011
789.299	0
789.715	53.12255
790.131	22.05169
790.547	-16.03746
790.963	11.02603
791.379	14.03389
791.795	-21.04536
792.21	39.08533
792.626	70.15512
793.041	-1.00234
793.457	-5.01172
793.872	11.02455
794.287	75.17274
794.702	17.0395
795.117	-41.09725
795.532	44.10608
795.947	-5.01129
796.362	14.03122
796.776	-22.04719
797.191	-1.00232
797.605	14.0319
798.02	40.09288
798.434	5.01034
798.848	-19.04442
799.262	37.08861
799.676	37.08416
800.09	-31.07259
800.504	49.11168
800.918	-20.04382
801.331	-14.03492
801.745	44.09409
802.158	42.09907
802.572	27.06139
802.985	-13.02943
803.398	18.04054
803.811	1.00243
804.224	47.10976
804.637	-52.11658
805.05	-1.00219
805.462	14.03243
805.875	65.1631
806.288	3.00697
806.7	38.09036
807.112	-11.02413
807.525	19.04468
807.937	-11.02601
808.349	7.0166
808.761	9.02065
809.173	-39.08921
809.584	29.06722
809.996	-10.0235
810.408	-7.01743
810.819	-21.04713
811.231	37.09365
811.642	59.13822
812.053	70.15906
812.464	60.13512
812.875	21.05127
813.286	-33.08134
813.697	30.06371
814.108	18.04105
814.519	44.09017
814.929	7.01678
815.34	-9.02068
815.75	-29.07072
816.16	-42.09833
816.571	1.00249
816.981	-11.02415
817.391	-4.00912
817.801	33.07879
818.211	37.08321
818.62	-29.06634
819.03	-13.02989
819.44	29.07161
819.849	21.05044
820.259	35.08522
820.668	14.03312
821.077	-6.01426
821.486	-37.08372
821.895	-7.01606
822.304	2.00509
822.713	1.00222
823.122	-1.00239
823.531	-21.04757
823.939	9.02083
824.348	5.01156
824.756	0
825.164	11.02601
825.573	-21.05041
825.981	25.05864
826.389	-17.04009
826.797	-1.00239
827.205	10.02156
827.612	10.02315
828.02	6.01346
828.428	-4.00967
828.835	2.00506
829.243	-6.01345
829.65	-8.01903
830.057	21.04871
830.464	35.08141
830.871	19.04257
831.278	-27.06144
831.685	-1.00206
832.092	-13.03044
832.499	29.05845
832.905	24.05786
833.312	22.04641
833.718	-12.02827
834.124	60.12758
834.531	4.00951
834.937	0
835.343	32.07266
835.749	-11.02392
836.155	14.03483
836.561	-68.15733
836.966	8.01841
837.372	-8.01931
837.777	-28.06612
838.183	-67.13734
838.588	32.07551
838.993	4.00907
839.399	-50.11638
839.804	16.03737
840.209	31.0756
840.613	7.01474
841.018	-38.09099
841.423	-27.06547
841.828	-30.07246
842.232	-32.07398
842.637	-61.13476
843.041	4.00996
843.445	-34.08063
843.849	12.02813
844.253	17.03751
844.657	39.09375
845.061	44.09295
845.465	58.13441
845.869	3.00651
846.272	-35.08129
846.676	2.00459
847.079	17.04144
847.483	6.01412
847.886	-26.05882
848.289	54.13941
848.692	-6.01442
849.095	-21.04715
849.498	-3.00705
849.901	-52.11172
850.304	-20.0448
850.707	-2.00483
851.109	-29.06844
851.512	42.09791
851.914	26.06353
852.316	44.10539
852.718	-27.06787
853.121	9.02087
853.523	-4.00877
853.925	-24.06026
854.326	34.08144
854.728	-11.02702
855.13	-16.03988
855.531	4.0092
855.933	13.02921
856.334	26.06168
856.736	-23.04798
857.137	11.02401
857.538	-31.07458
857.939	27.0635
858.34	-10.02287
858.741	-3.00748
859.142	-42.09637
859.542	35.08994
859.943	1.00238
860.343	-15.03565
860.744	37.08515
861.144	18.04135
861.544	-26.06049
861.945	-24.05797
862.345	-53.12124
862.745	-18.04257
863.145	-45.09974
863.544	50.12059
863.944	-15.03328
864.344	-45.10505
864.743	24.0561
865.143	18.04387
865.542	-93.20553
865.941	27.0637
866.34	22.04953
866.74	22.0563
867.139	14.03183
867.537	-11.02648
867.936	-6.01372
868.335	13.03167
868.734	27.06619
869.132	33.0722
869.531	-27.06171
869.929	5.01082
870.327	-23.05225
870.726	15.03513
871.124	14.03029
871.522	-38.09165
871.92	8.01858
872.318	-19.04421
872.715	4.0093
873.113	-8.01852
873.511	-19.04515
873.908	13.032
874.306	-5.01186
874.703	6.01417
875.1	22.0528
875.497	-1.00224
875.894	30.07065
876.291	14.0327
876.688	-52.12867
877.085	-25.05643
877.482	-18.04244
877.878	16.03639
878.275	1.0024
878.671	-41.08302
879.068	25.05643
879.464	16.0365
879.86	19.04283
880.256	3.00688
880.652	-11.02659
881.048	-32.07436
881.444	-33.07315
881.84	-73.17755
882.236	43.10196
882.631	2.00465
883.027	13.02904
883.422	-33.08056
883.817	7.01693
884.213	23.05607
884.608	1.00235
885.003	31.0704
885.398	4.00949
885.793	-40.09537
886.188	-31.07458
886.582	-31.0743
886.977	31.06854
887.371	-22.05292
887.766	-32.07677
888.16	12.02835
888.554	10.023
888.949	-52.12279
889.343	-17.03868
889.737	9.02337
890.131	26.06192
890.525	3.00726
890.918	22.05286
891.312	-36.07988
891.706	35.08795
892.099	-8.01926
892.492	49.09708
892.886	-30.06922
893.279	-15.03646
893.672	-12.02924
894.065	-32.07598
894.458	18.04265
894.851	-2.00454
895.244	-31.07588
895.637	12.02727
896.029	0
896.422	-27.06224
896.814	16.03765
897.206	-20.0457
897.599	-2.00455
897.991	8.0183
898.383	-56.12519
898.775	-9.01893
899.167	45.09904
899.559	9.02142
899.951	19.04175
900.342	1.00236
900.734	-11.0266
901.125	-3.00742
901.517	73.16806
901.908	-7.01562
902.299	-12.02795
902.69	34.07503
903.082	29.06572
903.473	9.02055
903.863	-7.01721
904.254	-21.04565
904.645	-10.02317
905.036	28.06486
905.426	-24.04983
905.817	8.0185
906.207	-19.04311
906.597	14.03083
906.987	-20.04873
907.378	-33.07912
907.768	20.05057
908.158	-28.06502
908.547	30.07374
908.937	-30.07314
909.327	11.02498
909.717	25.05918
910.106	-16.03634
910.495	47.11079
910.885	-72.17193
911.274	-8.01908
911.663	24.05812
912.052	-17.03933
912.441	16.03895
912.83	-12.02567
913.219	-3.00738
913.608	4.00923
913.997	-51.12237
914.385	1.00221
914.774	-16.03665
915.162	-12.02681
915.55	40.09045
915.939	6.01444
916.327	1.00236
916.715	31.07546
917.103	43.09801
917.491	-21.04844
917.878	-23.05257
918.266	-21.0519
918.654	64.15563
919.041	-36.09035
919.429	-5.01117
919.816	1.00239
920.203	22.05017
920.591	-2.00465
920.978	-14.0323
921.365	-14.03492
921.752	44.09836
922.139	53.10643
922.525	-7.01585
922.912	-18.04133
923.299	2.00473
923.685	-16.03992
924.072	-1.00212
924.458	-12.02822
924.844	-24.05634
925.231	-20.04345
925.617	30.07347
926.003	-11.02673
926.389	8.01932
926.774	17.04096
927.16	24.05573
927.546	7.01705
927.931	11.02589
928.317	-69.14758
928.702	13.02848
929.088	3.0067
929.473	-13.03154
929.858	-2.00467
930.243	39.08821
930.628	-37.08518
931.013	12.02849
931.398	19.04016
931.783	-28.07055
932.167	-31.07146
932.552	-52.12256
932.937	-3.00691
933.321	-2.00473
933.705	26.06263
934.09	19.04449
934.474	-5.01113
934.858	8.01983
935.242	22.04845
935.626	-39.09503
936.009	-49.12543
936.393	43.10412
936.777	19.04654
937.16	-25.06131
937.544	8.01754
937.927	5.01208
938.311	41.09258
938.694	21.0527
939.077	-24.05383
939.46	43.09912
939.843	-15.02835
940.226	-16.03885
940.609	-38.08175
940.991	-36.08758
941.374	5.01144
941.757	-1.00232
942.139	-18.03746
942.522	-53.11684
942.904	-7.01592
943.286	0
943.668	23.05636
944.05	31.0716
944.432	5.0117
944.814	-30.06936
945.196	4.00934
945.578	54.12131
945.959	22.04827
946.341	-13.02946
946.722	32.07029
947.104	16.03547
947.485	12.02599
947.866	33.07915
948.247	2.00479
948.628	44.09933
949.009	-14.0343
949.39	-20.04618
949.771	35.07486
950.152	28.06494
950.532	18.04321
950.913	-38.08575
951.293	-2.00523
951.674	-52.11854
952.054	11.02584
952.434	-28.0654
952.814	-39.08608
953.194	61.15075
953.574	20.04548
953.954	28.06213
954.334	33.07779
954.714	-43.10014
955.093	25.05677
955.473	-52.12322
955.853	17.04193
956.232	37.0966
956.611	-57.12708
956.99	-19.04564
957.37	0
957.749	-47.10509
958.128	36.08643
958.506	25.06208
958.885	-20.04772
959.264	10.02315
959.643	11.02337
960.021	-22.05185
960.4	8.01718
960.778	-3.00682
961.156	-1.00237
961.535	-5.01062
961.913	-4.00856
962.291	13.0321
962.669	15.03607
963.047	-46.11073
963.424	15.03641
963.802	-10.02297
964.18	22.05201
964.557	-22.04666
964.935	35.0768
965.312	-2.005
965.69	-32.07568
966.067	-18.04105
966.444	8.01854
966.821	-26.06351
967.198	-10.02246
967.575	19.04331
967.952	38.0833
968.329	4.00911
968.705	46.08842
969.082	10.02452
969.458	16.03658
969.835	3.00685
970.211	-25.06133
970.587	7.01644
970.963	36.08679
971.339	-16.04031
971.715	-31.07225
972.091	-40.09328
972.467	-67.15683
972.843	13.03044
973.219	47.10305
973.594	0
973.97	1.0022
974.345	-5.01124
974.721	21.04724
975.096	-33.07479
975.471	66.14541
975.846	18.04087
976.221	-15.03631
976.596	3.00677
976.971	-16.0374
977.346	-15.03222
977.72	-17.04108
978.095	-27.06687
978.469	19.04252
978.844	-12.02849
979.218	37.08372
979.593	25.05608
979.967	18.04145
980.341	-11.02352
980.715	-7.0166
981.089	-21.04929
981.463	9.01954
981.837	-18.04203
982.21	-15.03237
982.584	-50.11403
982.957	9.02143
983.331	47.10313
983.704	34.07895
984.078	-38.08841
984.451	-50.11555
984.824	1.00232
985.197	-10.02281
985.57	6.01405
985.943	-42.09625
986.316	37.08484
986.688	-14.03163
987.061	-20.04353
987.434	22.05446
987.806	-1.00227
988.179	-33.07293
988.551	-14.03341
988.923	-19.04411
989.295	0
989.667	23.05268
990.039	-20.04714
990.411	26.05622
990.783	-12.02569
991.155	31.07094
991.527	-11.02493
991.898	-31.07288
992.27	-5.01172
992.641	-8.01886
993.012	26.05745
993.384	8.0179
993.755	-24.05792
994.126	48.10774
994.497	-45.10497
994.868	29.06208
995.239	16.03662
995.61	-26.06199
995.98	31.07134
996.351	-17.04028
996.722	23.05019
997.092	33.07382
997.462	-6.01335
997.833	-4.00884
998.203	25.05627
998.573	39.09194
998.943	-7.01519
999.313	34.07657
999.683	-3.00669
1000.053	25.05375
1000.423	30.0682
1000.792	9.02218
1001.162	-19.0446
1001.531	50.11596
1001.901	-15.03521
1002.27	52.10763
1002.639	23.05575
1003.009	18.04069
1003.378	21.05087
1003.747	9.01979
1004.116	20.04513
1004.485	23.05177
1004.853	-2.0048
1005.222	14.03373
1005.591	13.02857
1005.959	61.1286
1006.328	-15.03142
1006.696	22.05015
1007.064	12.02854
1007.433	40.09431
1007.801	-3.00688
1008.169	-22.05233
1008.537	9.01856
1008.905	-2.00439
1009.273	35.08084
1009.64	-14.03171
1010.008	8.0178
1010.375	52.11711
1010.743	15.03136
1011.11	22.04881
1011.478	23.05331
1011.845	-15.03253
1012.212	-3.00626
1012.579	49.11272
1012.946	-11.02416
1013.313	38.08375
1013.68	42.08619
1014.047	34.07691
1014.414	39.0867
1014.78	22.05201
1015.147	-11.02463
1015.513	31.07106
1015.88	-24.05746
1016.246	-8.0187
1016.612	31.06492
1016.978	-16.03689
1017.344	38.08911
1017.71	-19.04269
1018.076	19.04162
1018.442	-8.01945
1018.808	11.02598
1019.174	-44.10455
1019.539	61.12476
1019.905	-9.0201
1020.27	13.03055
1020.636	20.04469
1021.001	-21.04701
1021.366	26.05966
1021.731	10.02448
1022.096	-15.03635
1022.461	6.01311
1022.826	9.02007
1023.191	1.0025
1023.556	-29.06297
1023.92	-34.07823
1024.285	-1.00228
1024.649	-9.02083
1025.014	54.12454
1025.378	83.19672
1025.742	11.02569
1026.107	-17.03541
1026.471	-17.0363
1026.835	-10.02315
1027.199	7.01594
1027.562	57.12328
1027.926	-15.03446
1028.29	8.01921
1028.654	6.01271
1029.017	25.05785
1029.381	16.036
1029.744	22.0534
1030.107	-84.18545
1030.471	8.01786
1030.834	-3.00623
1031.197	-29.06479
1031.56	53.11738
1031.923	-17.04181
1032.286	-16.03497
1032.648	24.05312
1033.011	7.01504
1033.374	-45.0982
1033.736	11.02747
1034.099	12.02765
1034.461	-2.00484
1034.823	-44.10378
1035.185	-33.0777
1035.548	1.00228
1035.91	33.07439
1036.272	24.05072
1036.634	11.02488
1036.995	68.14925
1037.357	-18.04151
1037.719	-8.0183
1038.08	2.00435
1038.442	41.09266
1038.803	8.01785
1039.165	17.04056
1039.526	9.02043
1039.887	9.02035
1040.248	56.13193
1040.609	42.09675
1040.97	20.04576
1041.331	-42.09949
1041.692	12.02645
1042.053	7.01464
1042.413	-9.01936
1042.774	17.0385
1043.134	-43.09543
1043.495	7.01646
1043.855	46.10406
1044.215	1.00233
1044.576	-8.01816
1044.936	40.08527
1045.296	25.0582
1045.656	-17.03937
1046.016	-13.02909
1046.375	-11.02541
1046.735	46.09773
1047.095	-30.06626
1047.454	41.07898
1047.814	-39.08796
1048.173	3.00657
1048.533	19.04074
1048.892	-64.14773
1049.251	-1.00237
1049.61	-76.17668
1049.969	27.05982
1050.328	-28.05556
1050.687	-19.04353
1051.046	-7.01621
1051.405	-11.02548
1051.763	-42.0916
1052.122	21.04989
1052.48	-4.00917
1052.839	-11.02435
1053.197	-15.03323
1053.555	-42.08627
1053.914	56.12673
1054.272	16.03603
1054.63	-68.15758
1054.988	-25.05583
1055.345	-57.11319
1055.703	-20.04484
1056.061	-15.03676
1056.419	-12.02975
1056.776	-6.01361
1057.134	-21.04544
1057.491	21.04927
1057.848	1.00233
1058.206	-16.03525
1058.563	14.0289
1058.92	-24.05119
1059.277	-43.09872
1059.634	-19.04095
1059.991	36.08071
1060.348	30.06346
1060.704	3.00673
1061.061	-32.06801
1061.418	-10.02304
1061.774	34.07992
1062.131	38.09746
1062.487	-51.11172
1062.843	-21.04952
1063.199	-26.06178
1063.555	-22.04833
1063.911	2.00475
1064.267	-1.00186
1064.623	13.03002
1064.979	-36.07801
1065.335	-54.11992
1065.691	20.04528
1066.046	-48.0977
1066.402	11.0232
1066.757	-15.03596
1067.112	-12.02741
1067.468	-6.01357
1067.823	-3.0068
1068.178	43.09757
1068.533	4.00902
1068.888	-19.04217
1069.243	7.01636
1069.598	-51.11558
1069.952	-3.00643
1070.307	-1.00238
1070.662	23.05119
1071.016	-7.0148
1071.371	-22.0466
1071.725	-104.23114
1072.079	-18.04067
1072.434	-45.10356
1072.788	74.16412
1073.142	31.07208
1073.496	-10.02231
1073.85	39.08349
1074.203	-25.05698
1074.557	-11.02818
1074.911	-18.03984
1075.265	-3.00642
1075.618	55.12546
1075.971	27.05945
1076.325	-31.07512
1076.678	-21.04503
1077.031	8.01677
1077.385	40.0816
1077.738	0
1078.091	-50.10909
1078.444	-12.02565
1078.796	-7.01633
1079.149	-39.09079
1079.502	-10.02225
1079.855	57.1236
1080.207	-8.01852
1080.56	14.03421
1080.912	-36.08151
1081.264	-1.00226
1081.617	-11.02537
1081.969	24.05825
1082.321	27.06176
1082.673	24.05163
1083.025	-60.13363
1083.377	-291.60404
1083.728	-16.03417
1084.08	27.06377
1084.432	-73.16356
1084.783	75.16354
1085.135	22.05274
1085.486	21.04511
1085.838	-9.02093
1086.189	-13.02973
1086.54	14.03123
1086.891	6.01457
1087.242	8.01812
1087.593	-9.02041
1087.944	19.03967
1088.295	-40.08416
1088.646	-2.00457
1088.996	-32.07274
1089.347	-21.04833
1089.698	17.03798
1090.048	-18.04412
1090.398	-4.00872
1090.749	-1.00225
1091.099	4.00962
1091.449	-31.07268
1091.799	-3.00707
1092.149	26.06102
1092.499	-5.01154
1092.849	26.0624
1093.199	1.00235
1093.548	17.03853
1093.898	-20.04759
1094.248	10.02429
1094.597	-33.08176
1094.947	10.02534
1095.296	-25.05813
1095.645	-29.07161
1095.994	20.04519
1096.343	61.1453
1096.692	-2.00507
1097.041	-11.02881
1097.39	2.00472
1097.739	25.06176
1098.088	-4.01009
1098.437	-34.08613
1098.785	-26.06682
1099.134	-63.15871
1099.482	-49.12893
1099.83	4.00994
1100.179	8.02016
1100.527	-17.04283
1100.875	-27.06836
1101.223	5.01277
1101.571	-10.02672
1101.919	-33.08352
1102.267	33.09015
1102.615	4.01285
1102.962	13.04166
1103.31	5.01606
1103.658	-1.00321
