Data from N3 R5 sample 10_Subt2__4__13-34-23-614.txt Node

Date: Thu Sep 18 13:34:23 PDT 2025
User: uwsun
Spectrometer: HDX01956
Trigger mode: 0
Integration Time (sec): 5.000000E-1
Scans to average: 1
Nonlinearity correction enabled: true
Boxcar width: 0
Storing dark spectrum: false
XAxis mode: Wavelengths
Number of Pixels in Spectrum: 2068
>>>>>Begin Spectral Data<<<<<
194.03	4.01161
194.578	9.02924
195.127	4.01283
195.676	-10.03211
196.225	11.02902
196.773	30.08343
197.321	43.1193
197.87	47.12086
198.418	58.15031
198.966	56.14772
199.513	48.12267
200.061	-8.0205
200.609	-15.03993
201.156	-24.0525
201.704	-30.07629
202.251	6.01601
202.798	14.03673
203.345	37.09167
203.892	26.06565
204.438	35.08375
204.985	57.13567
205.532	85.22726
206.078	1.00248
206.624	22.05478
207.17	50.11564
207.716	-17.04138
208.262	44.08625
208.808	9.02258
209.354	-4.00983
209.899	13.03279
210.445	64.16028
210.99	-1.00244
211.535	40.0938
212.08	38.08803
212.625	17.04266
213.17	-19.04843
213.715	40.09023
214.259	62.14453
214.804	-3.00741
215.348	-7.01611
215.892	35.08433
216.436	41.09526
216.98	19.04164
217.524	12.02847
218.068	34.08545
218.612	16.03995
219.155	4.00944
219.698	25.05889
220.242	41.10136
220.785	52.12098
221.328	23.05736
221.871	39.09814
222.414	4.00983
222.956	34.08215
223.499	57.12682
224.041	22.05021
224.583	84.17651
225.126	74.16365
225.668	28.06796
226.21	2.00503
226.751	-36.07835
227.293	6.01354
227.835	-13.03169
228.376	23.05219
228.918	36.09012
229.459	26.06537
230	11.0261
230.541	-24.05511
231.082	9.02181
231.622	22.05044
232.163	65.15732
232.704	13.03207
233.244	-12.02981
233.784	30.0723
234.324	42.09288
234.864	-9.02031
235.404	-23.05424
235.944	-29.06828
236.484	28.06857
237.023	30.07073
237.563	43.09828
238.102	6.01412
238.641	23.05834
239.18	18.04226
239.719	35.08798
240.258	-2.00446
240.797	62.14732
241.335	-25.06049
241.874	38.0729
242.412	11.02622
242.95	25.06005
243.488	35.07926
244.026	52.11898
244.564	57.1152
245.102	6.01345
245.64	21.05012
246.177	-23.0513
246.715	5.01181
247.252	4.00905
247.789	10.01759
248.326	-23.05487
248.863	-6.01306
249.4	70.15842
249.936	3.00612
250.473	4.00934
251.009	41.09405
251.546	45.09854
252.082	50.10919
252.618	61.13521
253.154	0
253.69	18.04016
254.226	-4.0095
254.761	48.10486
255.297	16.035
255.832	-19.04479
256.367	4.00934
256.903	5.01086
257.438	38.08729
257.972	5.01099
258.507	48.11031
259.042	-34.07245
259.576	-8.01731
260.111	9.0206
260.645	63.13469
261.179	14.03229
261.713	29.06348
262.247	45.10381
262.781	69.14336
263.315	3.00734
263.849	9.02245
264.382	17.03856
264.915	26.06099
265.449	34.08277
265.982	-14.03141
266.515	24.05823
267.048	20.04232
267.58	-20.04292
268.113	41.08841
268.646	20.0496
269.178	3.00669
269.71	12.02589
270.243	22.04981
270.775	33.08349
271.307	0
271.838	33.07697
272.37	-10.02473
272.902	2.00457
273.433	21.04525
273.965	30.07344
274.496	-23.05665
275.027	-5.01233
275.558	0
276.089	36.08986
276.62	-15.03799
277.15	6.01471
277.681	-17.03619
278.211	27.06513
278.741	48.10579
279.272	27.06132
279.802	4.01
280.332	3.00708
280.861	46.10955
281.391	-12.02711
281.921	-33.07867
282.45	77.19196
282.98	53.13737
283.509	34.07569
284.038	-14.03136
284.567	3.00684
285.096	40.09607
285.625	28.06412
286.153	-10.02339
286.682	2.00453
287.21	27.06451
287.739	26.06056
288.267	16.03882
288.795	45.117
289.323	55.1291
289.851	23.05327
290.378	13.02913
290.906	45.10892
291.433	26.0646
291.961	2.00449
292.488	40.09891
293.015	45.10608
293.542	15.03775
294.069	9.02208
294.596	64.15621
295.122	44.10427
295.649	72.15796
296.175	3.00716
296.702	-1.0024
297.228	-23.05512
297.754	29.06452
298.28	6.01356
298.806	19.04585
299.332	-1.00221
299.857	34.07588
300.383	18.04495
300.908	46.11199
301.433	52.12598
301.958	-13.02952
302.483	63.15791
303.008	6.01469
303.533	-29.07452
304.058	51.11845
304.582	22.05195
305.107	41.10719
305.631	-3.00678
306.155	53.12367
306.679	32.07472
307.203	47.10855
307.727	72.16983
308.251	42.10275
308.775	36.08485
309.298	13.03143
309.822	12.03021
310.345	15.0355
310.868	-7.01677
311.391	33.08059
311.914	40.09996
312.437	19.04276
312.96	51.1198
313.482	54.12752
314.005	10.02512
314.527	40.10487
315.049	32.07997
315.571	84.18894
316.093	68.16789
316.615	24.05827
317.137	-2.00432
317.659	30.07164
318.18	57.13666
318.702	45.1043
319.223	-2.00412
319.744	84.18692
320.265	28.06809
320.786	37.09144
321.307	86.21249
321.828	51.11577
322.348	85.19881
322.869	4.00932
323.389	222.39572
323.909	41.09386
324.43	43.10219
324.95	83.18887
325.47	44.10836
325.989	114.26951
326.509	38.084
327.029	42.09451
327.548	21.04761
328.067	3.00726
328.587	91.22455
329.106	54.12166
329.625	44.11296
330.144	12.02749
330.662	44.1018
331.181	84.19497
331.7	58.13473
332.218	108.23274
332.736	27.06266
333.255	18.04198
333.773	51.12055
334.291	15.03704
334.808	-11.02453
335.326	101.22536
335.844	33.07773
336.361	31.07838
336.879	84.19366
337.396	53.12576
337.913	57.12965
338.43	64.14478
338.947	22.05258
339.464	26.05586
339.981	71.16815
340.497	64.1572
341.014	75.17954
341.53	98.22097
342.046	78.19046
342.562	112.27449
343.078	53.12377
343.594	106.25128
344.11	108.25226
344.626	117.29168
345.141	95.216
345.657	89.19694
346.172	103.24337
346.687	87.19861
347.202	109.2413
347.717	130.3052
348.232	125.30788
348.747	90.20467
349.261	126.27654
349.776	65.15078
350.29	101.24776
350.805	86.20827
351.319	107.24644
351.833	104.23498
352.347	44.10148
352.861	132.30225
353.374	105.23593
353.888	90.21319
354.401	98.22196
354.915	92.20575
355.428	121.29693
355.941	112.25811
356.454	98.21672
356.967	117.27301
357.48	99.22345
357.993	110.26599
358.505	105.25614
359.018	93.22187
359.53	94.22258
360.042	71.15383
360.554	128.30203
361.066	120.28567
361.578	177.37807
362.09	140.32649
362.602	120.26005
363.113	77.17387
363.625	193.42457
364.136	121.2607
364.647	109.25024
365.158	176.3996
365.669	160.37958
366.18	83.18864
366.691	168.36033
367.201	143.33119
367.712	140.30649
368.222	193.43366
368.733	154.32959
369.243	118.25287
369.753	155.34599
370.263	149.34275
370.773	179.42931
371.282	163.37496
371.792	130.29001
372.301	149.35191
372.811	156.39446
373.32	191.39063
373.829	173.39923
374.338	183.39343
374.847	169.37349
375.356	170.39457
375.865	238.48222
376.373	220.47817
376.882	229.55402
377.39	237.54735
377.898	255.60411
378.407	188.40288
378.915	232.47394
379.423	269.60242
379.93	285.60453
380.438	310.71321
380.946	261.57873
381.453	285.64377
381.96	280.62589
382.468	344.76099
382.975	371.84277
383.482	346.71997
383.989	385.91094
384.495	380.80514
385.002	430.81546
385.509	431.90859
386.015	472.84931
386.521	436.87248
387.028	510.01833
387.534	483.918
388.04	510.05887
388.546	514.99335
389.051	562.05694
389.557	595.18041
390.063	728.39869
390.568	681.35132
391.073	716.32475
391.578	730.44162
392.084	712.278
392.589	851.45278
393.093	784.46382
393.598	952.62791
394.103	1004.78419
394.607	1138.92222
395.112	1191.06466
395.616	1281.0946
396.12	1374.04442
396.624	1500.16849
397.128	1613.31472
397.632	1811.30138
398.136	2043.38147
398.639	2110.48486
399.143	2395.7126
399.646	2685.38386
400.15	2986.19405
400.653	3371.93543
401.156	3733.36365
401.659	4348.19056
402.162	5467.24441
402.664	7130.72899
403.167	10300.90106
403.67	20722.41917
404.172	50774.77296
404.674	37291.05854
405.176	4428.40989
405.678	533.47942
406.18	0
406.682	0
407.184	6962.89417
407.686	50953.82939
408.187	30546.8303
408.688	17933.86727
409.19	12373.43335
409.691	9841.87865
410.192	8442.64408
410.693	7239.42737
411.194	6600.91692
411.694	6168.95028
412.195	5712.28097
412.696	5048.38873
413.196	4777.08734
413.696	4593.89234
414.196	4676.34366
414.696	4580.00527
415.196	4247.00367
415.696	3767.2203
416.196	3057.0125
416.695	2438.39486
417.195	2086.46968
417.694	1982.84867
418.194	1906.95867
418.693	1822.24583
419.192	1706.33827
419.691	1675.32081
420.19	1603.2945
420.688	1547.37308
421.187	1459.75326
421.685	1407.09715
422.184	1300.03839
422.682	1122.72215
423.18	936.6253
423.678	849.49682
424.176	754.36881
424.674	722.25883
425.172	695.32203
425.669	637.31095
426.167	628.20162
426.664	559.07271
427.161	474.93184
427.659	513.08808
428.156	465.85239
428.652	392.88523
429.149	393.85031
429.646	336.6596
430.143	426.90771
430.639	309.66544
431.135	309.69541
431.632	292.60788
432.128	263.5868
432.624	254.5979
433.12	303.63485
433.616	237.47811
434.111	244.54227
434.607	207.4632
435.103	176.34191
435.598	241.45802
436.093	174.37915
436.588	171.36209
437.083	211.44307
437.578	187.39909
438.073	90.21319
438.568	150.34595
439.062	149.30017
439.557	134.29621
440.051	147.31536
440.546	152.32925
441.04	84.18979
441.534	149.3594
442.028	185.41671
442.522	154.35107
443.015	81.16964
443.509	152.35377
444.002	113.26492
444.496	96.19683
444.989	119.27954
445.482	52.12451
445.975	99.21687
446.468	69.14285
446.961	81.16453
447.454	33.07122
447.947	124.28451
448.439	88.20756
448.931	76.16519
449.424	60.14333
449.916	60.13855
450.408	91.20078
450.9	31.07282
451.392	59.14447
451.884	10.022
452.375	18.04308
452.867	45.09775
453.358	2.00437
453.849	0
454.341	109.23454
454.832	33.06896
455.323	39.09222
455.814	66.14467
456.304	33.07318
456.795	16.03507
457.285	5.01068
457.776	28.06031
458.266	88.20175
458.756	9.02072
459.247	25.05735
459.737	35.08161
460.226	59.12761
460.716	107.24466
461.206	-16.03699
461.695	63.15254
462.185	52.11883
462.674	41.0897
463.163	5.01064
463.653	35.07116
464.142	-2.00466
464.63	56.13127
465.119	66.14809
465.608	36.07958
466.096	34.07163
466.585	2.00441
467.073	15.03435
467.561	85.19866
468.05	42.09292
468.538	89.21159
469.026	103.23656
469.513	22.0448
470.001	-9.01982
470.489	54.12276
470.976	35.07787
471.463	45.10916
471.951	45.10847
472.438	17.03884
472.925	11.0247
473.412	-11.02601
473.899	62.13722
474.385	30.0712
474.872	-12.02717
475.359	-1.00238
475.845	46.0915
476.331	-6.01251
476.817	11.02571
477.303	33.07394
477.789	31.07202
478.275	32.07709
478.761	-7.01633
479.247	17.03656
479.732	47.11401
480.218	48.12064
480.703	71.17191
481.188	-25.05199
481.673	-25.0562
482.158	-20.04203
482.643	18.04438
483.128	-17.03763
483.612	24.05398
484.097	16.03789
484.581	-30.06698
485.066	45.10488
485.55	-36.07665
486.034	19.0403
486.518	5.01146
487.002	9.02146
487.486	-9.02147
487.969	42.10064
488.453	44.1078
488.936	17.03696
489.42	11.02366
489.903	36.08784
490.386	25.05203
490.869	-15.03122
491.352	14.03298
491.835	-37.07378
492.318	-7.01552
492.8	-1.00199
493.283	30.07464
493.765	5.01206
494.247	24.05367
494.73	-8.01721
495.212	6.01402
495.694	23.05215
496.175	-59.13849
496.657	68.15715
497.139	-92.15128
497.62	-24.05626
498.102	-10.0244
498.583	-10.02414
499.064	32.07009
499.545	-28.06244
500.026	-32.07017
500.507	-55.12419
500.988	-16.03847
501.469	-36.08797
501.949	-29.06945
502.43	-54.12608
502.91	11.02194
503.39	-12.02928
503.87	3.0069
504.35	-19.04322
504.83	-15.03212
505.31	-20.0477
505.79	-42.09883
506.269	-40.091
506.749	-7.01555
507.228	-21.04827
507.707	-29.06283
508.187	-47.10924
508.666	-66.15917
509.145	-31.071
509.623	-32.07351
510.102	-25.05905
510.581	10.02321
511.059	-17.0422
511.538	-58.1474
512.016	-7.01645
512.494	-46.10879
512.972	-13.0305
513.45	-5.01147
513.928	-67.161
514.406	32.07662
514.884	15.03814
515.361	-12.02843
515.839	-41.09145
516.316	-57.13426
516.793	-14.03457
517.27	-10.02382
517.747	-40.10133
518.224	-80.18223
518.701	-12.0262
519.178	36.08843
519.654	-93.21462
520.131	-87.21136
520.607	3.00725
521.083	-28.06316
521.56	-86.20056
522.036	-29.06267
522.512	-6.01444
522.987	17.03983
523.463	-21.04918
523.939	-12.02877
524.414	-25.05606
524.89	-79.18427
525.365	-16.03586
525.84	2.00478
526.315	-60.14174
526.79	-37.08126
527.265	-103.23077
527.74	-42.10056
528.215	-36.08376
528.689	-25.05511
529.164	-76.15984
529.638	-5.01261
530.112	-30.07049
530.587	-47.10026
531.061	-41.098
531.534	-50.11853
532.008	-38.09043
532.482	-55.12171
532.956	-26.06626
533.429	-120.2826
533.903	-73.15809
534.376	-65.14143
534.849	-38.08705
535.322	-68.15883
535.795	-39.09375
536.268	-17.04037
536.741	-43.10152
537.213	22.04959
537.686	-68.16288
538.158	-9.01978
538.631	-93.2228
539.103	-60.13291
539.575	-46.09393
540.047	-58.12542
540.519	-74.17346
540.991	-43.10255
541.463	-30.07175
541.934	-37.08355
542.406	-44.10374
542.877	-28.06184
543.348	-82.19138
543.82	-51.12293
544.291	-51.11525
544.762	-74.17359
545.233	-13.03235
545.703	-102.22623
546.174	-36.08283
546.645	-62.14975
547.115	-54.129
547.585	19.04313
548.056	-30.07271
548.526	-29.06738
548.996	-38.08994
549.466	-40.09548
549.935	-69.16499
550.405	-72.15862
550.875	-106.24973
551.344	-29.06913
551.814	-71.15908
552.283	-42.08919
552.752	-43.09856
553.221	-129.28176
553.69	-39.08583
554.159	-26.06398
554.628	-61.13498
555.096	-48.12016
555.565	-53.1164
556.033	-56.12962
556.502	-72.17233
556.97	-56.12193
557.438	-60.14064
557.906	-44.10277
558.374	-41.0925
558.842	-54.12781
559.31	-67.14721
559.777	-87.21049
560.245	-60.13739
560.712	-86.19407
561.18	-62.13493
561.647	-118.26236
562.114	-56.12622
562.581	-40.09756
563.048	-76.17102
563.514	-76.1862
563.981	-93.2106
564.448	-81.18111
564.914	-94.21671
565.381	-96.21389
565.847	-20.04563
566.313	-112.25903
566.779	-23.05145
567.245	-70.16248
567.711	-51.12162
568.176	-22.04987
568.642	-75.18833
569.108	-74.18082
569.573	-75.17253
570.038	2.00413
570.504	-37.08293
570.969	-79.19602
571.434	-64.14076
571.899	-76.18079
572.363	-47.10539
572.828	-26.05791
573.293	-60.13656
573.757	-68.15615
574.222	-14.03114
574.686	-70.15726
575.15	-49.11582
575.614	-71.1613
576.078	-89.20776
576.542	-25.05634
577.006	-34.07629
577.469	-81.19738
577.933	-132.29508
578.396	-71.16971
578.86	-84.19551
579.323	-57.13463
579.786	-80.17099
580.249	-89.20302
580.712	-79.19027
581.175	-79.19394
581.637	-8.01824
582.1	-82.17747
582.563	-90.1862
583.025	-87.21017
583.487	-46.09098
583.95	-96.20679
584.412	-35.07155
584.874	-99.2388
585.336	-48.11273
585.797	-94.20161
586.259	-103.23732
586.721	-74.17264
587.182	-40.09034
587.643	-35.07793
588.105	-39.09126
588.566	-64.13312
589.027	-22.0527
589.488	-39.08695
589.949	-45.10612
590.41	6.01154
590.87	-65.14329
591.331	-33.06853
591.791	-77.17359
592.252	-26.05839
592.712	4.00935
593.172	-8.01757
593.632	0
594.092	-35.07638
594.552	4.00829
595.011	-13.02944
595.471	56.12027
595.931	16.03447
596.39	58.13436
596.849	46.10296
597.308	80.16462
597.768	29.07169
598.227	68.15765
598.685	55.11906
599.144	111.24644
599.603	160.35663
600.062	122.23983
600.52	183.38292
600.978	141.31903
601.437	190.40382
601.895	173.34178
602.353	153.31419
602.811	218.44655
603.269	229.50566
603.727	254.56239
604.184	281.5799
604.642	270.60727
605.099	314.65862
605.557	305.67036
606.014	354.67919
606.471	394.89917
606.928	448.88197
607.385	469.03135
607.842	468.95603
608.299	451.92486
608.755	477.00939
609.212	560.07282
609.668	540.03792
610.125	562.16027
610.581	549.09356
611.037	602.15344
611.493	636.25513
611.949	627.28571
612.405	639.06665
612.861	677.29961
613.316	682.37882
613.772	687.3125
614.227	696.37052
614.683	746.28915
615.138	718.41656
615.593	695.32524
616.048	710.31297
616.503	692.4227
616.958	695.46768
617.412	664.31723
617.867	718.32316
618.321	625.03579
618.776	618.14025
619.23	717.40896
619.684	630.17347
620.138	686.28242
620.592	580.19964
621.046	625.22559
621.5	613.26092
621.954	671.23546
622.407	644.18416
622.861	513.0625
623.314	630.2008
623.768	571.13799
624.221	597.97918
624.674	488.96162
625.127	510.03106
625.58	469.90094
626.033	496.92138
626.485	512.05688
626.938	465.95959
627.39	494.99679
627.843	468.93175
628.295	463.93445
628.747	426.89312
629.199	425.85855
629.651	383.77477
630.103	442.8935
630.555	342.63431
631.006	393.81539
631.458	285.59951
631.909	352.71222
632.361	307.63725
632.812	325.67823
633.263	279.53438
633.714	265.50216
634.165	236.51338
634.616	304.64835
635.067	260.51209
635.518	276.5871
635.968	329.57601
636.419	242.46923
636.869	267.57154
637.319	266.55794
637.769	324.65287
638.219	245.52445
638.669	249.54683
639.119	232.51711
639.569	240.53804
640.019	233.4897
640.468	210.42218
640.918	247.54175
641.367	242.49639
641.816	233.47782
642.265	213.453
642.714	224.47981
643.163	200.41673
643.612	211.47624
644.061	172.3327
644.51	229.48172
644.958	203.41065
645.406	177.39689
645.855	182.41372
646.303	214.457
646.751	200.42433
647.199	172.35584
647.647	235.50348
648.095	189.3988
648.543	172.31756
648.99	198.44169
649.438	229.4955
649.885	211.48905
650.333	154.26882
650.78	264.59621
651.227	229.51918
651.674	250.523
652.121	141.3176
652.568	142.32489
653.015	169.39171
653.461	178.39478
653.908	207.44426
654.354	142.31297
654.801	187.40947
655.247	165.33363
655.693	166.40818
656.139	136.30577
656.585	205.4574
657.031	175.38546
657.477	177.35756
657.922	235.50218
658.368	152.35014
658.813	155.32735
659.259	147.33328
659.704	174.38173
660.149	187.40497
660.594	145.32407
661.039	189.40283
661.484	182.40533
661.929	132.28922
662.373	158.38133
662.818	157.37009
663.262	128.28979
663.707	139.33122
664.151	179.41472
664.595	109.25014
665.039	138.32233
665.483	211.50682
665.927	172.37511
666.371	136.29987
666.814	153.34195
667.258	143.32316
667.701	152.29895
668.145	141.32914
668.588	155.35955
669.031	169.37646
669.474	117.26624
669.917	142.2918
670.36	112.26212
670.803	160.36047
671.245	90.17743
671.688	160.3643
672.13	127.26657
672.573	202.48235
673.015	143.32171
673.457	168.34336
673.899	127.28864
674.341	126.28677
674.783	141.32098
675.225	164.37824
675.666	147.33504
676.108	188.3797
676.549	159.35037
676.991	141.28902
677.432	144.26174
677.873	108.23484
678.314	109.24572
678.755	187.4281
679.196	150.32436
679.637	87.20013
680.078	117.25695
680.518	115.24713
680.959	143.32145
681.399	103.24063
681.839	128.29357
682.28	135.317
682.72	120.25705
683.16	171.40121
683.6	154.32674
684.039	140.26899
684.479	133.309
684.919	167.36444
685.358	111.26582
685.798	130.32132
686.237	98.22359
686.676	156.33632
687.115	147.32338
687.554	171.37839
687.993	133.26966
688.432	151.32603
688.871	165.34832
689.309	245.5541
689.748	164.31571
690.186	143.31617
690.625	154.34454
691.063	182.41188
691.501	228.52311
691.939	162.38002
692.377	180.41149
692.815	184.41606
693.253	158.35057
693.69	118.24259
694.128	202.46141
694.565	203.45032
695.003	217.51489
695.44	124.27307
695.877	195.42807
696.314	189.37164
696.751	184.38476
697.188	152.32869
697.625	181.37957
698.061	152.34259
698.498	203.45444
698.934	150.33504
699.371	180.39755
699.807	187.41223
700.243	234.52674
700.679	207.43103
701.115	168.36453
701.551	186.40977
701.987	185.3787
702.422	176.38823
702.858	134.29707
703.294	152.31742
703.729	218.49736
704.164	186.42041
704.599	153.31391
705.035	147.30814
705.47	220.50293
705.904	149.32268
706.339	118.25309
706.774	181.39047
707.209	146.31328
707.643	173.38728
708.078	152.34539
708.512	219.51943
708.946	161.357
709.38	174.37996
709.814	141.29778
710.248	109.24713
710.682	190.4235
711.116	153.34604
711.549	138.33369
711.983	155.33022
712.416	172.37177
712.85	204.4761
713.283	213.46404
713.716	215.49595
714.149	151.33064
714.582	198.40908
715.015	202.46476
715.448	144.33502
715.881	202.39261
716.313	220.47715
716.746	249.53946
717.178	204.45093
717.61	206.48549
718.043	195.44587
718.475	211.46884
718.907	195.44946
719.339	195.40676
719.77	258.56719
720.202	170.40019
720.634	260.58407
721.065	237.51171
721.497	243.54801
721.928	194.4451
722.359	246.55375
722.79	227.49894
723.221	201.46292
723.652	238.55872
724.083	226.46147
724.514	228.46598
724.945	191.41452
725.375	234.49841
725.806	189.4278
726.236	231.54366
726.666	261.55483
727.096	254.56379
727.526	269.62791
727.956	307.62331
728.386	218.48369
728.816	237.55431
729.246	301.66797
729.675	224.5131
730.105	247.55111
730.534	281.59214
730.964	264.6001
731.393	271.59689
731.822	325.75413
732.251	319.73757
732.68	271.55826
733.109	281.63033
733.537	293.63695
733.966	265.59591
734.395	225.46767
734.823	296.58739
735.251	282.61474
735.68	295.66363
736.108	287.65489
736.536	305.64271
736.964	239.49943
737.392	271.6104
737.82	303.64776
738.247	262.56096
738.675	311.65247
739.102	268.61832
739.53	289.67644
739.957	261.61043
740.384	317.69
740.811	297.68617
741.238	270.59157
741.665	292.61735
742.092	279.59129
742.519	265.60494
742.945	282.60848
743.372	312.69885
743.798	291.67872
744.225	273.58287
744.651	248.56465
745.077	269.60887
745.503	262.57332
745.929	242.52396
746.355	258.5691
746.781	244.5497
747.207	242.52374
747.632	233.52353
748.058	204.4626
748.483	219.45094
748.908	190.43523
749.334	213.47879
749.759	217.46371
750.184	198.43163
750.609	210.46904
751.033	198.41697
751.458	296.59507
751.883	197.44482
752.307	267.57673
752.732	244.56654
753.156	197.447
753.58	207.44541
754.005	261.60947
754.429	133.28434
754.853	189.43407
755.277	222.4819
755.7	171.391
756.124	219.50618
756.548	153.33785
756.971	164.36767
757.394	181.43245
757.818	155.37557
758.241	156.3658
758.664	198.46736
759.087	208.43166
759.51	158.36455
759.933	156.35074
760.356	130.3115
760.778	239.54713
761.201	112.24882
761.623	146.32111
762.046	108.23124
762.468	119.2642
762.89	155.35413
763.312	98.22187
763.734	102.23084
764.156	169.38783
764.578	88.18597
765	128.29062
765.421	135.3281
765.843	144.35566
766.264	136.30126
766.686	141.33341
767.107	122.2798
767.528	130.31269
767.949	110.26267
768.37	87.19957
768.791	110.24641
769.212	76.18398
769.632	97.21061
770.053	106.26459
770.473	124.28188
770.894	69.16057
771.314	122.26619
771.734	58.12601
772.154	71.17294
772.575	90.19345
772.994	110.23267
773.414	38.08403
773.834	95.22507
774.254	84.19188
774.673	65.14803
775.093	120.28007
775.512	69.1619
775.931	114.27462
776.351	64.14902
776.77	65.1509
777.189	42.09338
777.607	47.1147
778.026	84.19874
778.445	55.13272
778.864	56.13541
779.282	76.16975
779.701	43.10306
780.119	34.08125
780.537	23.05456
780.955	63.15082
781.373	33.07734
781.791	46.09777
782.209	103.22135
782.627	30.07616
783.045	64.13774
783.462	57.13703
783.88	41.10184
784.297	37.08854
784.715	45.11202
785.132	52.11864
785.549	85.20317
785.966	5.01197
786.383	7.01656
786.8	94.20335
787.217	29.06479
787.633	12.02869
788.05	26.05646
788.466	84.18265
788.883	46.11282
789.299	17.0384
789.715	53.12255
790.131	20.04701
790.547	-24.05628
790.963	24.05665
791.379	34.082
791.795	18.03856
792.21	37.08099
792.626	20.04478
793.041	8.01866
793.457	51.11826
793.872	55.12165
794.287	44.10197
794.702	44.10168
795.117	-25.05912
795.532	79.18919
795.947	-2.00451
796.362	10.02232
796.776	43.09093
797.191	-24.05588
797.605	44.09966
798.02	32.07442
798.434	10.02066
798.848	-27.06323
799.262	52.12417
799.676	12.02743
800.09	-7.01632
800.504	55.12521
800.918	-8.01748
801.331	1.00249
801.745	-17.03683
802.158	-9.02144
802.572	22.05007
802.985	10.02253
803.398	50.11186
803.811	48.11581
804.224	23.05397
804.637	-22.04902
805.05	-14.03069
805.462	-28.0654
805.875	50.1258
806.288	29.06703
806.7	19.04535
807.112	36.07818
807.525	33.0774
807.937	-9.02127
808.349	-5.01188
808.761	-1.0023
809.173	11.02491
809.584	1.00233
809.996	-2.00469
810.408	3.00746
810.819	-27.06067
811.231	13.03304
811.642	55.12895
812.053	19.04362
812.464	32.07248
812.875	31.07554
813.286	16.03908
813.697	-41.08841
814.108	-30.06908
814.519	-11.02282
814.929	1.0024
815.34	8.01832
815.75	35.08433
816.16	-49.11488
816.571	-23.05744
816.981	-15.03296
817.391	15.03405
817.801	34.08116
818.211	16.03614
818.62	4.00909
819.03	-18.04143
819.44	11.02725
819.849	15.03607
820.259	43.10455
820.668	35.08247
821.077	-3.00713
821.486	18.04027
821.895	3.00687
822.304	24.0608
822.713	-18.04016
823.122	62.14658
823.531	24.05387
823.939	-1.00232
824.348	21.04839
824.756	-11.02611
825.164	-6.01423
825.573	-24.05764
825.981	37.08658
826.389	-3.00706
826.797	10.02384
827.205	13.02801
827.612	-41.09586
828.02	4.00898
828.428	-22.05334
828.835	-10.02535
829.243	-4.00896
829.65	44.10362
830.057	20.0464
830.464	50.11596
830.871	56.12451
831.278	4.00905
831.685	-15.03096
832.092	27.06273
832.499	-29.05923
832.905	41.09852
833.312	-55.11799
833.718	35.0817
834.124	41.08754
834.531	13.03086
834.937	-43.10482
835.343	49.11087
835.749	-68.14969
836.155	-42.10556
836.561	-77.17848
836.966	-17.03931
837.372	12.02885
837.777	-28.06612
838.183	-43.08766
838.588	45.10591
838.993	-42.09617
839.399	-35.08122
839.804	-22.05177
840.209	31.0756
840.613	21.0441
841.018	-28.06691
841.423	-27.06547
841.828	-4.00961
842.232	-26.06004
842.637	-35.0769
843.041	47.11611
843.445	-23.05443
843.849	-14.03298
844.253	12.0265
844.657	15.03622
845.061	34.07198
845.465	62.14357
845.869	-27.05892
846.272	-15.0347
846.676	17.03887
847.079	27.06569
847.483	28.06561
847.886	1.00225
848.289	33.08551
848.692	-36.08699
849.095	0
849.498	-8.01881
849.901	3.00637
850.304	-11.0246
850.707	-19.04606
851.109	-44.10415
851.512	60.13938
851.914	1.00245
852.316	-22.05336
852.718	23.0573
853.121	15.03474
853.523	-17.03737
853.925	-16.04011
854.326	5.01204
854.728	-20.04922
855.13	14.03471
855.531	50.11394
855.933	-21.04752
856.334	40.09464
856.736	-61.12832
857.137	-47.10383
857.538	-7.01676
857.939	-1.00236
858.34	-13.02975
858.741	5.01244
859.142	16.03628
859.542	49.1256
859.943	48.11322
860.343	-9.02136
860.744	52.11931
861.144	-2.00461
861.544	30.06903
861.945	-63.15329
862.345	-55.12586
862.745	40.09354
863.145	-15.03304
863.544	41.09905
863.944	4.00884
864.344	-34.0792
864.743	53.12319
865.143	24.05843
865.542	-30.06543
865.941	23.0543
866.34	38.08526
866.74	1.00257
867.139	40.09045
867.537	-20.04823
867.936	17.03868
868.335	-13.03182
868.734	41.10024
869.132	-4.00882
869.531	-6.01366
869.929	26.05601
870.327	-27.06139
870.726	21.04912
871.124	13.02813
871.522	-30.07224
871.92	59.13567
872.318	19.04388
872.715	-16.03734
873.113	4.00924
873.511	6.01419
873.908	-2.00494
874.306	-2.00474
874.703	0
875.1	12.02885
875.497	-27.06089
875.894	42.09868
876.291	25.05827
876.688	-8.01964
877.085	19.0425
877.482	5.01174
877.878	-12.02744
878.275	-36.08708
878.671	-42.08506
879.068	13.02941
879.464	30.06825
879.86	31.06971
880.256	-5.01149
880.652	-3.00724
881.048	-7.01619
881.444	-21.04643
881.84	-6.01441
882.236	41.09725
882.631	25.05788
883.027	3.00672
883.422	-14.03406
883.817	29.06985
884.213	40.0972
884.608	47.1095
885.003	-11.02519
885.398	-25.05964
885.793	-17.04035
886.188	36.08551
886.582	-10.02387
886.977	5.01111
887.371	8.01913
887.766	4.00953
888.16	38.08932
888.554	2.00461
888.949	-7.01639
889.343	-22.05011
889.737	15.03891
890.131	26.06192
890.525	-27.06569
890.918	14.03369
891.312	-26.05757
891.706	38.09544
892.099	36.08593
892.492	45.08924
892.886	-20.04605
893.279	-54.1322
893.672	-36.0881
894.065	31.07271
894.458	0
894.851	10.02265
895.244	-22.05376
895.637	36.08141
896.029	-5.01156
896.422	10.02288
896.814	-4.00945
897.206	52.11711
897.599	8.01818
897.991	34.07738
898.383	-13.0288
898.775	7.01467
899.167	0
899.559	-25.05989
899.951	-33.0733
900.342	-35.08331
900.734	13.0313
901.125	17.04192
901.517	12.02796
901.908	20.04438
902.299	33.07619
902.69	41.09035
903.082	29.06572
903.473	30.06823
903.863	6.01472
904.254	-38.08291
904.645	34.0781
905.036	27.06256
905.426	4.00825
905.817	14.03234
906.207	-34.07738
906.597	-28.0622
906.987	4.0097
907.378	7.01666
907.768	27.06819
908.158	24.05515
908.547	28.06885
908.937	1.00242
909.327	0
909.717	-24.05736
910.106	-4.00906
910.495	28.06625
910.885	-23.05441
911.274	-11.02625
911.663	47.11333
912.052	13.02989
912.441	47.11376
912.83	0
913.219	-36.08908
913.608	30.06886
913.997	-14.03335
914.385	12.0265
914.774	-46.10601
915.162	-2.00446
915.55	49.1106
915.939	-73.17828
916.327	-11.026
916.715	8.01956
917.103	31.07083
917.491	-21.04844
917.878	-35.08019
918.266	7.01721
918.654	22.05392
919.041	-35.08783
919.429	-6.0134
919.816	-41.09867
920.203	12.02742
920.591	11.0255
920.978	-1.0023
921.365	-7.01744
921.752	36.08061
922.139	57.11435
922.525	-2.00452
922.912	-17.03903
923.299	6.01419
923.685	19.04711
924.072	27.05702
924.458	-22.05183
924.844	-17.03986
925.231	-8.01734
925.617	48.11716
926.003	5.01212
926.389	13.03137
926.774	42.10072
927.16	-7.01635
927.546	5.01218
927.931	7.01649
928.317	-33.07003
928.702	-19.0419
929.088	0
929.473	12.02897
929.858	-9.02103
930.243	-32.07342
930.628	-39.08982
931.013	70.16434
931.398	-14.02981
931.783	9.02253
932.167	-10.02295
932.552	-62.14641
932.937	-12.02768
933.321	-52.12422
933.705	28.06743
934.09	-5.01176
934.474	33.0729
934.858	-8.01989
935.242	21.04626
935.626	-33.08032
936.009	-12.03052
936.393	37.08969
936.777	36.0879
937.16	-40.09836
937.544	-6.0132
937.927	0
938.311	9.02046
938.694	38.09506
939.077	-38.08547
939.46	25.05783
939.843	-3.00565
940.226	-37.09019
940.609	-32.06875
940.991	15.03614
941.374	-8.01836
941.757	22.05084
942.139	-39.08153
942.522	-23.05038
942.904	10.02266
943.286	0
943.668	-4.00985
944.05	23.05321
944.432	58.13436
944.814	-3.0069
945.196	-8.01872
945.578	-8.0182
945.959	-14.03095
946.341	-1.00226
946.722	22.04843
947.104	-16.03571
947.485	-8.0174
947.866	28.06722
948.247	-29.06982
948.628	18.04085
949.009	-8.01958
949.39	-44.10209
949.771	35.07486
950.152	25.05802
950.532	4.00963
950.913	-25.05627
951.293	10.02609
951.674	-3.00677
952.054	-4.00942
952.434	20.04627
952.814	-70.15551
953.194	8.01996
953.574	-53.12231
953.954	38.08414
954.334	-1.00237
954.714	-27.06268
955.093	-12.02746
955.473	-60.1424
955.853	1.00247
956.232	-17.04479
956.611	-12.0265
956.99	7.01673
957.37	-2.00484
957.749	-27.06012
958.128	0
958.506	-4.00998
958.885	-40.09581
959.264	-62.14556
959.643	27.05717
960.021	-21.04948
960.4	21.04497
960.778	-4.0091
961.156	-55.13187
961.535	-71.15304
961.913	-56.12115
962.291	-4.00991
962.669	-20.04842
963.047	-68.16437
963.424	-15.03662
963.802	-45.1041
964.18	74.17319
964.557	-53.11316
964.935	-8.01771
965.312	-7.01751
965.69	39.09097
966.067	-51.11709
966.444	16.03702
966.821	-21.05125
967.198	-30.06764
967.575	-35.08064
967.952	53.11581
968.329	-44.1012
968.705	-32.06267
969.082	0
969.458	33.07518
969.835	-19.0436
970.211	-2.00489
970.587	18.04219
970.963	38.09158
971.339	26.06502
971.715	-85.20022
972.091	-7.01622
972.467	1.00231
972.843	-12.02824
973.219	30.06601
973.594	-16.04005
973.97	-6.0132
974.345	-1.00225
974.721	38.08519
975.096	-41.09307
975.471	45.09958
975.846	-1.00228
976.221	-22.05332
976.596	-26.05898
976.971	18.0418
977.346	-10.02146
977.72	13.03124
978.095	5.01231
978.469	23.05143
978.844	8.01892
979.218	1.00228
979.593	-11.02486
979.967	46.10533
980.341	-1.00213
980.715	18.04249
981.089	-33.07764
981.463	54.11612
981.837	1.00233
982.21	4.0086
982.584	-6.01356
982.957	-3.00716
983.331	19.04194
983.704	25.05815
984.078	-32.07436
984.451	-45.10389
984.824	-32.07469
985.197	22.04985
985.57	-24.05652
985.943	-52.11941
986.316	50.11435
986.688	-4.00902
987.061	-25.05447
987.434	8.01985
987.806	-17.03864
988.179	-38.08407
988.551	29.06863
988.923	-29.06746
989.295	-5.01176
989.667	23.05268
990.039	19.04444
990.411	16.03467
990.783	46.09726
991.155	-3.00691
991.527	-38.08659
991.898	-12.02811
992.27	0
992.641	-3.00707
993.012	17.03763
993.384	54.11967
993.755	-31.07492
994.126	38.08547
994.497	0
994.868	17.03649
995.239	-11.02531
995.61	-49.11735
995.98	26.05989
996.351	13.03062
996.722	-2.00439
997.092	-12.02709
997.462	1.00222
997.833	-8.0177
998.203	11.02483
998.573	15.03552
998.943	-39.08522
999.313	10.02263
999.683	-33.07409
1000.053	17.03661
1000.423	-20.04593
1000.792	6.0148
1001.162	35.08129
1001.531	27.0629
1001.901	-2.00468
1002.27	58.11988
1002.639	15.03641
1003.009	15.03393
1003.378	2.00486
1003.747	7.0154
1004.116	16.03614
1004.485	20.04504
1004.853	-17.04094
1005.222	30.07205
1005.591	21.04608
1005.959	50.10567
1006.328	-32.06727
1006.696	15.03424
1007.064	17.04039
1007.433	22.05205
1007.801	-3.00688
1008.169	-17.0404
1008.537	19.03909
1008.905	-3.00659
1009.273	4.0093
1009.64	6.01353
1010.008	-24.05376
1010.375	62.13934
1010.743	-12.02524
1011.11	32.07085
1011.478	28.06484
1011.845	2.00432
1012.212	-33.0693
1012.579	12.02781
1012.946	-15.03297
1013.313	11.02438
1013.68	24.04945
1014.047	45.10157
1014.414	70.15461
1014.78	27.06377
1015.147	-30.06742
1015.513	64.14572
1015.88	15.03565
1016.246	48.11097
1016.612	4.00843
1016.978	-15.03458
1017.344	23.05409
1017.71	-24.05398
1018.076	17.03726
1018.442	12.02906
1018.808	-4.00948
1019.174	-29.06871
1019.539	-4.0083
1019.905	20.0444
1020.27	11.02586
1020.636	19.04246
1021.001	5.01113
1021.366	33.07561
1021.731	39.09496
1022.096	-26.06313
1022.461	-42.09273
1022.826	30.06662
1023.191	22.05482
1023.556	-13.02813
1023.92	13.02963
1024.285	-15.03437
1024.649	11.02536
1025.014	20.04644
1025.378	-12.02896
1025.742	30.0698
1026.107	11.02277
1026.471	-33.0707
1026.835	-2.00462
1027.199	15.03411
1027.562	30.06526
1027.926	-33.0761
1028.29	7.01681
1028.654	41.08617
1029.017	53.12197
1029.381	-10.02262
1029.744	37.08955
1030.107	16.03458
1030.471	53.11723
1030.834	-28.0585
1031.197	-21.04684
1031.56	41.09103
1031.923	-19.04675
1032.286	12.02607
1032.648	-17.03795
1033.011	-1.00215
1033.374	-29.06307
1033.736	-28.07042
1034.099	18.04143
1034.461	-3.00726
1034.823	-58.13718
1035.185	-50.11812
1035.548	12.02733
1035.91	0
1036.272	11.02331
1036.634	10.02262
1036.995	17.03771
1037.357	-9.02072
1037.719	3.00685
1038.08	-61.13459
1038.442	72.16168
1038.803	2.00447
1039.165	8.01912
1039.526	-7.01594
1039.887	24.05409
1040.248	41.09688
1040.609	-15.03495
1040.97	-26.06004
1041.331	-62.14743
1041.692	54.11797
1042.053	-39.0824
1042.413	-49.1063
1042.774	20.04526
1043.134	-27.05972
1043.495	14.03288
1043.855	-14.03206
1044.215	-48.113
1044.576	-2.00454
1044.936	51.10847
1045.296	-19.04462
1045.656	15.03452
1046.016	-48.10819
1046.375	19.04362
1046.735	52.11033
1047.095	41.08921
1047.454	37.07135
1047.814	-14.03141
1048.173	-40.08838
1048.533	1.00215
1048.892	11.02501
1049.251	46.10808
1049.61	-50.11564
1049.969	6.01335
1050.328	-42.08362
1050.687	7.01595
1051.046	60.13711
1051.405	-36.08379
1051.763	-12.026
1052.122	-9.0215
1052.48	-15.03448
1052.839	4.00883
1053.197	26.05711
1053.555	-81.16784
1053.914	31.07051
1054.272	15.03379
1054.63	-39.08986
1054.988	-3.00667
1055.345	-52.10314
1055.703	21.04668
1056.061	21.05111
1056.419	26.06401
1056.776	-19.0432
1057.134	-32.06941
1057.491	18.04226
1057.848	-19.04444
1058.206	-45.09974
1058.563	29.05966
1058.92	-7.01487
1059.277	-25.05719
1059.634	-58.12606
1059.991	64.14266
1060.348	24.05083
1060.704	6.01345
1061.061	-13.02752
1061.418	38.0867
1061.774	26.06121
1062.131	13.03349
1062.487	-44.09625
1062.843	12.02812
1063.199	22.05179
1063.555	-31.06823
1063.911	-29.06929
1064.267	16.02958
1064.623	11.02542
1064.979	-9.01939
1065.335	-56.12441
1065.691	45.10136
1066.046	-32.0649
1066.402	-21.0446
1066.757	37.08783
1067.112	13.02955
1067.468	19.04275
1067.823	23.05185
1068.178	61.13791
1068.533	6.01352
1068.888	-23.05109
1069.243	56.12962
1069.598	-50.11329
1069.952	-14.03009
1070.307	33.07806
1070.662	-9.02016
1071.016	26.05456
1071.371	-4.00844
1071.725	-20.04367
1072.079	3.00675
1072.434	-41.09428
1072.788	30.06715
1073.142	37.08593
1073.496	4.0089
1073.85	1.00216
1074.203	-6.01362
1074.557	32.08135
1074.911	35.07661
1075.265	-24.05161
1075.618	21.04823
1075.971	14.03091
1076.325	2.00482
1076.678	-61.13194
1077.031	-43.09117
1077.385	69.13984
1077.738	12.02524
1078.091	31.06648
1078.444	-45.09687
1078.796	27.06258
1079.149	-28.06504
1079.502	-44.0986
1079.855	19.04153
1080.207	-9.02084
1080.56	-40.09872
1080.912	-3.00675
1081.264	7.01579
1081.617	-15.03462
1081.969	72.17318
1082.321	8.01837
1082.673	2.00432
1083.025	-42.09319
1083.377	-13.02531
1083.728	-34.07289
1084.08	14.03315
1084.432	-43.09575
1084.783	61.1334
1085.135	-3.00723
1085.486	-34.0739
1085.838	13.0301
1086.189	-18.0412
1086.54	-33.07433
1086.891	3.00729
1087.242	-29.06618
1087.593	-1.00226
1087.944	-17.03578
1088.295	-1.00209
1088.646	23.05227
1088.996	-45.10257
1089.347	-24.05527
1089.698	3.00672
1090.048	-20.04904
1090.398	37.07999
1090.749	28.0627
1091.099	11.02643
1091.449	-32.07504
1091.799	11.02587
1092.149	-1.00236
1092.499	-12.02773
1092.849	-5.01207
1093.199	-20.04717
1093.548	0
1093.898	-28.06674
1094.248	1.00243
1094.597	0
1094.947	7.01775
1095.296	-28.06514
1095.645	-25.06169
1095.994	22.04969
1096.343	-6.01448
1096.692	-5.01268
1097.041	0
1097.39	-10.02363
1097.739	35.0863
1098.088	-11.02779
1098.437	-23.05815
1098.785	-32.08233
1099.134	-30.07513
1099.482	-34.08923
1099.83	11.0273
1100.179	14.03525
1100.527	-14.03525
1100.875	-37.09385
1101.223	0
1101.571	-40.10739
1101.919	-22.05557
1102.267	20.05475
1102.615	-1.00322
1102.962	4.01283
1103.31	9.02889
1103.658	1.0032
