Data from N3 R5 sample 7_Subt2__2__13-32-17-618.txt Node

Date: Thu Sep 18 13:32:17 PDT 2025
User: uwsun
Spectrometer: HDX01956
Trigger mode: 0
Integration Time (sec): 5.000000E-1
Scans to average: 1
Nonlinearity correction enabled: true
Boxcar width: 0
Storing dark spectrum: false
XAxis mode: Wavelengths
Number of Pixels in Spectrum: 2068
>>>>>Begin Spectral Data<<<<<
194.03	6.01741
194.578	14.04546
195.127	9.02886
195.676	-1.00321
196.225	15.03955
196.773	35.09726
197.321	23.06401
197.87	45.11575
198.418	59.15287
198.966	50.13203
199.513	45.11507
200.061	-16.04105
200.609	18.04766
201.156	-16.03494
201.704	1.00253
202.251	22.05856
202.798	19.04981
203.345	43.10642
203.892	44.11075
204.438	34.08138
204.985	74.17556
205.532	44.11844
206.078	15.03707
206.624	33.082
207.17	51.11793
207.716	-33.08056
208.262	11.02173
208.808	-17.04286
209.354	16.03916
209.899	2.00505
210.445	25.06305
210.99	13.03167
211.535	30.07049
212.08	0
212.625	19.04766
213.17	18.04558
213.715	31.07006
214.259	39.09133
214.804	2.00493
215.348	36.08214
215.892	40.09629
216.436	22.05131
216.98	25.05472
217.524	6.01425
218.068	72.17972
218.612	0
219.155	30.07043
219.698	-14.03323
220.242	33.0817
220.785	47.10946
221.328	49.12163
221.871	33.08313
222.414	26.0636
222.956	47.11329
223.499	12.02695
224.041	18.04112
224.583	19.0405
225.126	82.18103
225.668	20.04862
226.21	27.06763
226.751	4.00863
227.293	27.06067
227.835	26.06292
228.376	42.09493
228.918	27.0677
229.459	49.12269
230	7.01662
230.541	20.04552
231.082	11.02664
231.622	43.09817
232.163	83.20021
232.704	0
233.244	-6.01489
233.784	17.04107
234.324	32.07091
234.864	-5.01127
235.404	26.06073
235.944	-4.00937
236.484	9.02212
237.023	24.05665
237.563	28.06419
238.102	-5.0118
238.641	61.15367
239.18	45.10509
239.719	47.11789
240.258	35.07738
240.797	49.11672
241.335	0
241.874	36.0691
242.412	-17.04074
242.95	49.11717
243.488	47.10617
244.026	61.13931
244.564	41.08317
245.102	37.08242
245.64	35.08331
246.177	30.06618
246.715	33.07755
247.252	11.02484
247.789	-25.04439
248.326	-15.03573
248.863	8.01736
249.4	98.22052
249.936	-16.0328
250.473	5.01167
251.009	28.0644
251.546	14.03086
252.082	47.1027
252.618	77.1701
253.154	25.05971
253.69	-2.00448
254.226	24.0567
254.761	-20.04432
255.297	53.11503
255.832	3.00704
256.367	-1.00234
256.903	12.02602
257.438	2.00463
257.972	-18.03974
258.507	44.1012
259.042	-12.02545
259.576	-6.01297
260.111	1.00229
260.645	99.21
261.179	-5.01158
261.713	1.0022
262.247	39.09007
262.781	59.12285
263.315	5.01223
263.849	42.10412
264.382	29.06562
264.915	31.07265
265.449	12.02933
265.982	-15.03366
266.515	31.07512
267.048	16.03389
267.58	-21.04507
268.113	18.03901
268.646	51.12576
269.178	28.06215
269.71	49.10489
270.243	32.0723
270.775	38.09606
271.307	17.04004
271.838	67.15524
272.37	59.14404
272.902	55.12429
273.433	13.02806
273.965	35.08561
274.496	3.00735
275.027	51.12446
275.558	32.07691
276.089	38.09482
276.62	18.04532
277.15	16.03916
277.681	-5.01062
278.211	26.06273
278.741	26.05757
279.272	37.08385
279.802	51.12641
280.332	47.10993
280.861	65.15424
281.391	47.10491
281.921	-5.01186
282.45	105.26043
282.98	24.06252
283.509	30.06684
284.038	-17.0381
284.567	3.00684
285.096	18.04341
285.625	49.11173
286.153	-5.01168
286.682	17.03839
287.21	11.02636
287.739	23.05361
288.267	22.05332
288.795	8.02093
289.323	43.10117
289.851	54.1243
290.378	13.02913
290.906	27.06557
291.433	43.1065
291.961	54.11997
292.488	34.08416
293.015	16.03793
293.542	27.0678
294.069	21.0514
294.596	58.14173
295.122	113.2642
295.649	61.13414
296.175	20.04756
296.702	-5.01199
297.228	22.05227
297.754	24.05345
298.28	44.09864
298.806	22.05306
299.332	30.06598
299.857	7.01571
300.383	7.01751
300.908	5.01227
301.433	57.13796
301.958	5.01131
302.483	63.15791
303.008	15.03666
303.533	-49.12635
304.058	24.05604
304.582	30.07073
305.107	42.10978
305.631	37.0829
306.155	53.12367
306.679	37.0863
307.203	27.06261
307.727	71.1675
308.251	54.13181
308.775	34.08016
309.298	43.10337
309.822	24.0603
310.345	0
310.868	4.00956
311.391	91.21984
311.914	32.08008
312.437	39.08742
312.96	-1.00237
313.482	54.12752
314.005	21.05264
314.527	53.13865
315.049	60.14917
315.571	117.26138
316.093	85.20921
316.615	88.2111
317.137	15.03232
317.659	34.08113
318.18	35.08427
318.702	34.07898
319.223	19.03896
319.744	112.24778
320.265	51.12349
320.786	10.02484
321.307	69.17102
321.828	58.13147
322.348	81.18961
322.869	21.04875
323.389	39.07282
323.909	12.02763
324.43	58.13744
324.95	65.14845
325.47	54.13274
325.989	115.27183
326.509	33.07302
327.029	55.12343
327.548	55.12384
328.067	43.10329
328.587	48.11938
329.106	71.1594
329.625	40.10277
330.144	40.09111
330.662	78.17925
331.181	62.14453
331.7	66.15307
332.218	128.27466
332.736	40.09259
333.255	78.17975
333.773	43.1018
334.291	21.0518
334.808	-16.03572
335.326	92.20566
335.844	119.2756
336.361	107.26685
336.879	42.09764
337.396	20.04776
337.913	59.13415
338.43	78.17595
338.947	37.08817
339.464	33.0708
339.981	146.34075
340.497	100.24399
341.014	29.07003
341.53	112.25182
342.046	82.20007
342.562	56.13867
343.078	85.19725
343.594	125.29523
344.11	47.1111
344.626	98.24516
345.141	129.29129
345.657	93.20562
346.172	61.1453
346.687	112.2544
347.202	66.14742
347.717	85.2013
348.232	110.27169
348.747	125.28225
349.261	146.31909
349.776	131.2999
350.29	96.23572
350.805	62.15082
351.319	117.26893
351.833	99.22391
352.347	91.20791
352.861	140.32006
353.374	102.22933
353.888	89.21086
354.401	90.20418
354.915	139.30784
355.428	116.28493
355.941	103.23779
356.454	157.34291
356.967	159.36795
357.48	146.32637
357.993	116.28018
358.505	140.33929
359.018	120.2848
359.53	112.26427
360.042	113.24263
360.554	125.29512
361.066	95.22725
361.578	174.37191
362.09	122.28552
362.602	145.31254
363.113	89.20047
363.625	156.34584
364.136	176.37472
364.647	117.26818
365.158	195.44103
365.669	193.45494
366.18	97.21983
366.691	167.35826
367.201	136.31541
367.712	176.38237
368.222	195.43797
368.733	153.32752
369.243	100.21513
369.753	169.37615
370.263	148.34052
370.773	158.38046
371.282	184.42149
371.792	192.42281
372.301	131.31048
372.811	211.52828
373.32	162.3335
373.829	205.47006
374.338	199.42635
374.847	159.35213
375.356	243.55584
375.865	227.46109
376.373	237.51325
376.882	244.58864
377.39	230.53192
377.898	256.60636
378.407	184.39464
378.915	238.48554
379.423	349.76867
379.93	266.56657
380.438	282.65242
380.946	369.79976
381.453	354.78834
381.96	376.82379
382.468	414.90244
382.975	477.05819
383.482	390.80357
383.989	435.01711
384.495	438.91625
385.002	467.87765
385.509	464.97106
386.015	614.06336
386.521	527.03066
387.028	592.15995
387.534	627.14851
388.04	582.18927
388.546	625.17423
389.051	635.17314
389.557	744.42536
390.063	831.55748
390.568	755.4726
391.073	790.43503
391.578	844.62272
392.084	898.53612
392.589	935.56074
393.093	995.76223
393.598	1060.76101
394.103	1151.96892
394.607	1210.00363
395.112	1377.27256
395.616	1407.22209
396.12	1569.20217
396.624	1718.3234
397.128	1929.51023
397.632	2113.42522
398.136	2344.45491
398.639	2462.56022
399.143	2627.74114
399.646	3113.30819
400.15	3452.03695
400.653	3863.7026
401.156	4296.04994
401.659	5049.81286
402.162	6056.15076
402.664	8102.7642
403.167	11908.78248
403.67	23602.53374
404.172	51095.904
404.674	37291.05854
405.176	4428.40989
405.678	533.47942
406.18	0
406.682	0
407.184	6962.89417
407.686	50953.82939
408.187	35081.76282
408.688	20482.77756
409.19	13966.81454
409.691	11269.66435
410.192	9389.55907
410.693	8267.29261
411.194	7423.66682
411.694	7003.31278
412.195	6377.25567
412.696	5821.1588
413.196	5417.86493
413.696	5214.58466
414.196	5327.07499
414.696	5229.67789
415.196	4931.63447
415.696	4425.85011
416.196	3652.77087
416.695	2829.37905
417.195	2460.55197
417.694	2313.87472
418.194	2186.01175
418.693	2044.33522
419.192	2010.49999
419.691	1968.48508
420.19	1794.42192
420.688	1834.58627
421.187	1733.88828
421.685	1605.25485
422.184	1511.2296
422.682	1271.86745
423.18	1057.77768
423.678	1000.69472
424.176	865.52668
424.674	800.36658
425.172	827.52332
425.669	756.51467
426.167	701.31795
426.664	632.19178
427.161	592.12987
427.659	552.16101
428.156	549.98514
428.652	481.06443
429.149	439.94048
429.646	423.81335
430.143	451.95576
430.639	393.83104
431.135	301.67851
431.632	342.70404
432.128	379.82528
432.624	279.65355
433.12	326.67956
433.616	281.56114
434.111	300.65896
434.607	253.56076
435.103	214.41196
435.598	248.47052
436.093	213.46029
436.588	232.4847
437.083	230.48094
437.578	174.37239
438.073	165.38517
438.568	173.39716
439.062	223.44159
439.557	158.3475
440.051	170.36289
440.546	116.2532
441.04	130.29097
441.534	147.35471
442.028	177.39934
442.522	100.23045
443.015	127.26327
443.509	189.43667
444.002	144.33555
444.496	94.19281
444.989	121.28412
445.482	99.23491
445.975	117.25533
446.468	96.19754
446.961	77.15655
447.454	54.11602
447.947	119.27331
448.439	112.26294
448.931	69.1502
449.424	64.15277
449.916	79.18173
450.408	79.17474
450.9	29.06815
451.392	95.23106
451.884	67.14566
452.375	14.03353
452.867	83.17883
453.358	31.06737
453.849	68.13822
454.341	119.25551
454.832	58.12053
455.323	82.19228
455.814	55.12084
456.304	34.07538
456.795	58.12601
457.285	25.05317
457.776	41.08807
458.266	110.25107
458.756	35.08016
459.247	77.17479
459.737	115.26391
460.226	31.06745
460.716	85.19522
461.206	60.13662
461.695	77.18595
462.185	67.15265
462.674	22.04833
463.163	-27.05785
463.653	69.1392
464.142	-1.00233
464.63	59.13822
465.119	56.12591
465.608	15.0333
466.096	48.10082
466.585	-7.01546
467.073	2.00459
467.561	105.24443
468.05	11.02449
468.538	50.11976
469.026	77.17777
469.513	22.0448
470.001	-23.05081
470.489	54.12276
470.976	72.15896
471.463	67.16186
471.951	71.17029
472.438	45.10223
472.925	23.05151
473.412	35.08203
473.899	69.15249
474.385	62.14624
474.872	18.0405
475.359	30.07087
475.845	4.00803
476.331	24.04972
476.817	-16.03759
477.303	0
477.789	2.00467
478.275	35.08427
478.761	67.15407
479.247	23.04941
479.732	24.05847
480.218	6.01519
480.703	6.01471
481.188	-7.0145
481.673	8.01786
482.158	-22.04625
482.643	2.00495
483.128	-39.08673
483.612	-3.00679
484.097	21.04968
484.581	-19.04232
485.066	11.02581
485.55	-35.0745
486.034	27.05717
486.518	33.07518
487.002	-7.01674
487.486	7.01665
487.969	21.05052
488.453	32.07857
488.936	40.08653
489.42	20.04293
489.903	-15.03695
490.386	1.00209
490.869	-27.05635
491.352	-16.03791
491.835	7.01382
492.318	33.07254
492.8	-5.00994
493.283	7.01749
493.765	-15.03631
494.247	-7.01575
494.73	-14.03016
495.212	34.07901
495.694	-32.07336
496.175	3.00696
496.657	51.11826
497.139	-83.13614
497.62	-11.02572
498.102	16.03885
498.583	-59.14377
499.064	15.03297
499.545	5.01107
500.026	-56.12343
500.507	-49.11051
500.988	-6.0144
501.469	-42.10275
501.949	-33.07909
502.43	-65.15209
502.91	-47.09499
503.39	5.01216
503.87	-3.00691
504.35	-16.03637
504.83	-4.00855
505.31	-20.0477
505.79	-24.05628
506.269	-52.11859
506.749	-73.16443
507.228	-26.05982
507.707	3.00646
508.187	17.03901
508.666	-61.14697
509.145	-36.08253
509.623	-30.06889
510.102	-3.00706
510.581	-15.03499
511.059	-22.05466
511.538	-49.12433
512.016	-2.0047
512.494	-43.10164
512.972	-14.03285
513.45	-48.1111
513.928	-10.02377
514.406	3.00722
514.884	12.03053
515.361	16.0377
515.839	-36.08021
516.316	-58.13664
516.793	-48.11925
517.27	-29.06934
517.747	-15.03783
518.224	-69.15682
518.701	2.00435
519.178	-5.01237
519.654	-111.25708
520.131	-37.08905
520.607	-3.00726
521.083	-19.04278
521.56	-57.13217
522.036	-10.02152
522.512	-57.13848
522.987	2.0047
523.463	-47.11062
523.939	-7.01676
524.414	-38.08544
524.89	-44.10193
525.365	-54.12196
525.84	-8.01914
526.315	-60.14174
526.79	-12.02622
527.265	-63.13999
527.74	-69.16606
528.215	-28.06504
528.689	24.05236
529.164	-44.09189
529.638	-62.15801
530.112	-21.04925
530.587	-16.0339
531.061	-28.06676
531.534	-28.06609
532.008	-40.09523
532.482	-120.26914
532.956	8.02027
533.429	-93.21787
533.903	10.02127
534.376	-87.19018
534.849	-66.15204
535.322	-6.01384
535.795	-60.14481
536.268	-18.04275
536.741	-45.10629
537.213	16.03611
537.686	-79.18962
538.158	-63.14005
538.631	-38.09008
539.103	-93.20742
539.575	-7.01417
540.047	-22.04721
540.519	-31.07205
540.991	-10.0237
541.463	-40.09585
541.934	-62.14071
542.406	-72.17068
542.877	-72.16049
543.348	-96.22467
543.82	-61.14731
544.291	-51.11525
544.762	-62.1451
545.233	5.0124
545.703	-32.06994
546.174	-36.08283
546.645	-57.13755
547.115	-59.14108
547.585	20.04539
548.056	7.01685
548.526	-57.13317
548.996	-27.06377
549.466	-67.16076
549.935	-2.00472
550.405	-69.15192
550.875	-63.14718
551.344	-39.09315
551.814	-99.22309
552.283	-38.08062
552.752	-31.07088
553.221	-69.14879
553.69	-18.03944
554.159	-18.04423
554.628	-93.20717
555.096	-52.13027
555.565	-66.14535
556.033	-49.11326
556.502	-54.1288
556.97	-45.09775
557.438	-47.10989
557.906	-9.02088
558.374	-44.09933
558.842	-49.11587
559.31	-60.13163
559.777	-56.1347
560.245	-56.12813
560.712	-74.16658
561.18	-15.03232
561.647	-73.16079
562.114	-76.172
562.581	-26.06325
563.048	-68.15276
563.514	-94.23106
563.981	-92.20829
564.448	-104.23364
564.914	-102.23553
565.381	-113.25266
565.847	-43.09856
566.313	-107.24722
566.779	-56.12612
567.245	-93.21684
567.711	-81.19428
568.176	-30.06811
568.642	-29.07222
569.108	-59.14377
569.573	-119.27615
570.038	-47.09822
570.504	-71.16026
570.969	-97.24147
571.434	-62.13631
571.899	-81.19287
572.363	-73.16457
572.828	-25.05567
573.293	-43.09753
573.757	-93.21462
574.222	-30.06695
574.686	-51.11413
575.15	-55.13016
575.614	-111.25422
576.078	-101.23633
576.542	-72.16381
577.006	-34.07629
577.469	-53.12847
577.933	-122.27216
578.396	-38.09026
578.86	-96.22397
579.323	-66.15616
579.786	-47.09974
580.249	-67.15215
580.712	-90.21722
581.175	-98.24143
581.637	-21.048
582.1	-54.11617
582.563	-137.28641
583.025	-110.26689
583.487	-93.18597
583.95	-88.18923
584.412	-33.06743
584.874	-67.16064
585.336	-57.13411
585.797	-56.11913
586.259	-144.33449
586.721	-69.16082
587.182	-66.14985
587.643	-27.06002
588.105	-70.16479
588.566	-34.07025
589.027	-57.13744
589.488	-87.19589
589.949	-72.17068
590.41	34.06495
590.87	-68.15
591.331	-30.06226
591.791	-60.13479
592.252	-22.04936
592.712	-4.00936
593.172	-29.06398
593.632	-8.01654
594.092	-41.08959
594.552	-24.05003
595.011	33.07403
595.471	-33.07223
595.931	-6.01299
596.39	11.02572
596.849	71.15809
597.308	-19.03997
597.768	51.12557
598.227	100.23036
598.685	74.15954
599.144	61.13684
599.603	158.35232
600.062	63.12557
600.52	132.27933
600.978	201.44922
601.437	191.40585
601.895	156.30942
602.353	176.35954
602.811	211.4329
603.269	193.42938
603.727	214.47778
604.184	229.47811
604.642	279.62636
605.099	317.66447
605.557	330.72149
606.014	360.6897
606.471	394.89917
606.928	470.92049
607.385	404.90227
607.842	467.9542
608.299	463.94689
608.755	485.02456
609.212	555.06451
609.668	585.11244
610.125	608.24248
610.581	618.21156
611.037	626.19258
611.493	635.25345
611.949	696.40523
612.405	706.1572
612.861	770.44544
613.316	783.5468
613.772	746.40512
614.227	778.50281
614.683	860.44184
615.138	835.6027
615.593	764.43274
616.048	790.43213
616.503	829.65233
616.958	813.67289
617.412	814.55895
617.867	828.48442
618.321	777.23467
618.776	808.42102
619.23	802.5448
619.684	827.46629
620.138	793.44378
620.592	781.54356
621.046	757.43879
621.5	772.53181
621.954	675.24159
622.407	771.37315
622.861	756.48188
623.314	737.36877
623.768	702.35708
624.221	702.11673
624.674	597.14467
625.127	660.28916
625.58	601.1163
626.033	657.17031
626.485	598.21096
626.938	591.18339
627.39	644.2531
627.843	572.1096
628.295	515.02524
628.747	576.16581
629.199	623.1998
629.651	553.07344
630.103	530.04805
630.555	483.86443
631.006	505.01976
631.458	495.99307
631.909	538.04053
632.361	443.89162
632.812	471.95103
633.263	433.79852
633.714	426.77557
634.165	372.78578
634.616	445.91997
635.067	428.80969
635.518	397.82222
635.968	458.77477
636.419	421.78145
636.869	377.78779
637.319	439.88561
637.769	446.87349
638.219	451.92235
638.669	441.92926
639.119	438.93449
639.569	465.99402
640.019	474.94326
640.468	372.71993
640.918	428.90286
641.367	462.90054
641.816	504.97028
642.265	467.9382
642.714	524.04779
643.163	437.86254
643.612	488.03699
644.061	473.84915
644.51	484.96091
644.958	515.9674
645.406	504.05197
645.855	531.11946
646.303	584.14533
646.751	578.12339
647.199	515.9836
647.647	568.12754
648.095	576.11045
648.543	609.00086
648.99	561.15536
649.438	690.34404
649.885	567.21902
650.333	553.86457
650.78	623.30166
651.227	625.30065
651.674	582.12634
652.121	551.13473
652.568	559.1693
653.015	525.12859
653.461	581.17836
653.908	547.08603
654.354	519.05145
654.801	566.13821
655.247	482.90384
655.693	504.15914
656.139	505.0473
656.585	519.0807
657.031	495.01509
657.477	486.91224
657.922	502.00882
658.368	438.9511
658.813	452.89236
659.259	451.9591
659.704	475.97583
660.149	450.91968
660.594	442.92707
661.039	456.91546
661.484	419.88718
661.929	388.80412
662.373	444.01116
662.818	443.98587
663.262	403.86114
663.707	383.86967
664.151	416.91832
664.595	419.90152
665.039	401.88799
665.483	421.97063
665.927	394.81874
666.371	371.77765
666.814	360.7701
667.258	397.85052
667.701	358.66996
668.145	410.90621
668.588	326.7305
669.031	366.78191
669.474	390.83823
669.917	379.73717
670.36	316.70985
670.803	378.81349
671.245	317.59161
671.688	338.74179
672.13	331.66344
672.573	351.81412
673.015	348.7499
673.457	397.76924
673.899	377.81326
674.341	358.77642
674.783	385.83301
675.225	378.83445
675.666	337.73851
676.108	326.63755
676.549	291.62345
676.991	386.74739
677.432	328.56837
677.873	352.7256
678.314	405.85754
678.755	368.8117
679.196	370.76236
679.637	318.69761
680.078	332.69607
680.518	287.59388
680.959	309.67087
681.399	324.72393
681.839	311.687
682.28	346.77882
682.72	312.64055
683.16	361.8154
683.6	392.78843
684.039	314.57802
684.479	340.75748
684.919	354.74186
685.358	344.78698
685.798	317.75646
686.237	360.77776
686.676	386.79103
687.115	354.74481
687.554	353.75137
687.993	347.66913
688.432	383.78577
688.871	341.69202
689.309	413.90197
689.748	384.70015
690.186	353.74614
690.625	411.87062
691.063	420.90425
691.501	404.89407
691.939	395.88418
692.377	397.86777
692.815	451.9641
693.253	383.8099
693.69	381.73682
694.128	433.94284
694.565	418.88564
695.003	417.95107
695.44	361.75536
695.877	431.89902
696.314	460.84683
696.751	456.89603
697.188	455.91999
697.625	455.89638
698.061	477.00146
698.498	477.00543
698.934	468.9764
699.371	474.98233
699.807	501.02973
700.243	528.11483
700.679	551.05784
701.115	542.08035
701.551	544.10646
701.987	538.01171
702.422	462.9579
702.858	499.02008
703.294	562.06524
703.729	568.20205
704.164	616.26796
704.599	559.0402
705.035	556.05847
705.47	634.32614
705.904	580.13854
706.339	567.09647
706.774	581.144
707.209	604.16621
707.643	692.38117
708.078	640.30797
708.512	688.4811
708.946	647.28734
709.38	647.26941
709.814	654.2243
710.248	684.36707
710.682	733.44789
711.116	741.47261
711.549	696.50218
711.983	719.34257
712.416	741.40491
712.85	822.68195
713.283	767.47268
713.716	820.66046
714.149	791.49623
714.582	815.4502
715.015	797.61273
715.448	820.64987
715.881	869.4217
716.313	885.64584
716.746	852.60672
717.178	834.59885
717.61	937.89029
718.043	909.77679
718.475	936.76456
718.907	987.91219
719.339	1066.7953
719.77	1054.92838
720.202	1041.02889
720.634	1090.02805
721.065	1050.87193
721.497	1089.02768
721.928	1113.07862
722.359	1125.07325
722.79	1176.06806
723.221	1181.18328
723.652	1203.2858
724.083	1216.93097
724.514	1195.91203
724.945	1239.08961
725.375	1301.13222
725.806	1253.21949
726.236	1409.54972
726.666	1263.10163
727.096	1354.31849
727.526	1381.51397
727.956	1380.12513
728.386	1410.35483
728.816	1404.5272
729.246	1385.3813
729.675	1561.61657
730.105	1464.44694
730.534	1515.33842
730.964	1530.58708
731.393	1552.50689
731.822	1592.76611
732.251	1618.77496
732.68	1569.30644
733.109	1688.69985
733.537	1610.53057
733.966	1677.68735
734.395	1674.38061
734.823	1739.32422
735.251	1757.65068
735.68	1774.79287
736.108	1741.81438
736.536	1790.56884
736.964	1737.4525
737.392	1698.71601
737.82	1717.56664
738.247	1687.5182
738.675	1733.51867
739.102	1754.8537
739.53	1791.96031
739.957	1762.90955
740.384	1801.7052
740.811	1816.93447
741.238	1769.66903
741.665	1785.56706
742.092	1723.52223
742.519	1778.82944
742.945	1729.5925
743.372	1705.73267
743.798	1777.93535
744.225	1666.50053
744.651	1725.76196
745.077	1707.7405
745.503	1649.56373
745.929	1695.54839
746.355	1673.60893
746.781	1648.653
747.207	1670.52743
747.632	1586.57941
748.058	1603.60658
748.483	1646.32567
748.908	1610.63907
749.334	1603.58206
749.759	1522.34456
750.184	1552.42183
750.609	1560.51851
751.033	1527.29023
751.458	1595.26878
751.883	1540.52759
752.307	1569.45495
752.732	1484.59763
753.156	1457.46089
753.58	1455.29853
754.005	1477.62088
754.429	1333.11515
754.853	1396.42886
755.277	1397.27799
755.7	1361.36457
756.124	1337.39941
756.548	1356.24321
756.971	1303.23605
757.394	1321.45987
757.818	1323.49143
758.241	1257.30699
758.664	1303.40957
759.087	1196.9391
759.51	1248.24991
759.933	1223.14604
760.356	1162.22848
760.778	1226.24598
761.201	1107.95003
761.623	1144.98875
762.046	1071.81694
762.468	1156.01163
762.89	1142.08637
763.312	1077.95031
763.734	1012.86345
764.156	1081.02266
764.578	1005.69817
765	1062.95182
765.421	986.00626
765.843	995.06439
766.264	944.73712
766.686	997.96188
767.107	1005.89349
767.528	958.93667
767.949	902.82253
768.37	877.6899
768.791	850.61156
769.212	898.83182
769.632	747.39564
770.053	781.70555
770.473	846.63905
770.894	761.52576
771.314	739.39975
771.734	755.39531
772.154	788.65737
772.575	740.36651
772.994	692.27579
773.414	673.28881
773.834	717.49104
774.254	674.3539
774.673	684.36012
775.093	622.3056
775.512	612.28062
775.931	650.4034
776.351	588.2249
776.77	594.23193
777.189	556.10214
777.607	608.32494
778.026	545.17166
778.445	527.15524
778.864	543.18937
779.282	524.0599
779.701	512.11452
780.119	455.99914
780.537	489.05288
780.955	456.00712
781.373	457.98157
781.791	467.90142
782.209	467.92478
782.627	444.04123
783.045	454.89504
783.462	399.89644
783.88	368.85911
784.297	349.78509
784.715	444.02215
785.132	364.77798
785.549	372.84007
785.966	354.7903
786.383	431.9353
786.8	381.77355
787.217	360.7491
787.633	313.70498
788.05	290.59431
788.466	408.82591
788.883	332.77082
789.299	286.61049
789.715	344.74924
790.131	275.61408
790.547	236.52515
790.963	275.61738
791.379	297.68043
791.795	245.49902
792.21	279.57939
792.626	251.5352
793.041	289.63654
793.457	285.6301
793.872	234.4982
794.287	235.5239
794.702	189.42415
795.117	161.36695
795.532	191.44761
795.947	213.4595
796.362	192.41234
796.776	179.36725
797.191	208.46208
797.605	205.44907
798.02	181.40853
798.434	178.35389
798.848	143.32369
799.262	190.44169
799.676	135.30097
800.09	144.32562
800.504	174.38655
800.918	147.31073
801.331	123.29916
801.745	160.33353
802.158	117.27194
802.572	105.23496
802.985	130.28568
803.398	141.30953
803.811	148.3503
804.224	146.33431
804.637	90.19587
805.05	105.22438
805.462	97.221
805.875	96.23954
806.288	148.33398
806.7	91.21418
807.112	166.3505
807.525	130.29911
807.937	113.26077
808.349	73.17088
808.761	62.14077
809.173	86.19177
809.584	61.14049
809.996	73.16873
810.408	48.11834
810.819	65.14329
811.231	43.10871
811.642	82.19123
812.053	79.17919
812.464	66.14845
812.875	76.18364
813.286	52.12617
813.697	59.1245
814.108	32.07277
814.519	59.1205
814.929	45.10707
815.34	55.12475
815.75	4.00969
816.16	14.03242
816.571	53.13055
816.981	-18.03957
817.391	20.04535
817.801	104.24492
818.211	76.16954
818.62	10.0227
819.03	40.091
819.44	58.14247
819.849	40.09574
820.259	60.14541
820.668	47.11049
821.077	27.06377
821.486	-6.01349
821.895	22.05019
822.304	39.09853
822.713	29.06406
823.122	66.15592
823.531	57.12708
823.939	72.16454
824.348	60.13717
824.756	19.04484
825.164	3.0071
825.573	33.0784
825.981	60.13976
826.389	11.0258
826.797	50.1183
827.205	31.06653
827.612	14.03238
828.02	9.02017
828.428	18.04331
828.835	36.09051
829.243	26.05791
829.65	7.0166
830.057	50.11532
830.464	33.07679
830.871	28.06262
831.278	-31.0706
831.685	-1.00206
832.092	59.13621
832.499	-6.01219
832.905	46.11043
833.312	2.00424
833.718	24.05615
834.124	-30.06504
834.531	24.05685
834.937	21.05058
835.343	41.09292
835.749	31.06682
836.155	22.05466
836.561	-23.05274
836.966	-1.00231
837.372	-17.0411
837.777	-1.00235
838.183	-59.12072
838.588	50.11757
838.993	23.05198
839.399	-33.07655
839.804	25.05829
840.209	27.06589
840.613	70.1454
841.018	-7.01666
841.423	-45.10949
841.828	-20.04822
842.232	4.00918
842.637	-18.03941
843.041	42.10385
843.445	1.00236
843.849	12.02813
844.253	-21.0467
844.657	28.06745
845.061	35.07408
845.465	82.18912
845.869	20.04321
846.272	-44.10237
846.676	27.06161
847.079	-10.0245
847.483	-16.03781
847.886	26.05819
848.289	15.03899
848.692	-9.02164
849.095	-46.10381
849.498	-17.04004
849.901	6.01273
850.304	2.00446
850.707	-11.02662
851.109	-54.12806
851.512	7.01643
851.914	48.11681
852.316	-20.04849
852.718	-17.04266
853.121	13.03012
853.523	-22.04841
853.925	-3.0075
854.326	12.02886
854.728	3.00735
855.13	14.03471
855.531	29.06637
855.933	-3.00676
856.334	4.00953
856.736	-34.0711
857.137	-13.02851
857.538	-15.03598
857.939	16.03771
858.34	4.00912
858.741	4.00996
859.142	-26.05946
859.542	71.18129
859.943	88.20595
860.343	20.04721
860.744	23.05308
861.144	24.05507
861.544	5.01156
861.945	-17.04101
862.345	-27.06144
862.745	9.02117
863.145	-3.00659
863.544	105.25059
863.944	-20.04441
864.344	-7.01622
864.743	39.0909
865.143	24.05843
865.542	-23.05009
865.941	25.059
866.34	-7.01585
866.74	22.0563
867.139	1.00228
867.537	5.012
867.936	43.09733
868.335	8.01951
868.734	-9.02221
869.132	15.03294
869.531	15.034
869.929	0
870.327	23.05177
870.726	4.00939
871.124	24.05181
871.522	-11.02639
871.92	6.01394
872.318	34.07829
872.715	5.01162
873.113	1.00231
873.511	-6.01422
873.908	12.02954
874.306	-6.01423
874.703	-4.00947
875.1	18.04323
875.497	-9.02022
875.894	42.09868
876.291	39.09065
876.688	-1.00245
877.085	-23.05189
877.482	-32.07565
877.878	-19.04352
878.275	-26.06278
878.671	-31.06262
879.068	-8.01818
879.464	1.00229
879.86	-2.00453
880.256	4.00918
880.652	1.00241
881.048	5.01153
881.444	-6.01322
881.84	20.0478
882.236	54.12776
882.631	23.05327
883.027	-28.06308
883.422	-23.05605
883.817	43.10329
884.213	60.14525
884.608	24.05617
885.003	21.04779
885.398	-47.1126
885.793	-16.03797
886.188	-19.04561
886.582	-8.01909
886.977	11.02442
887.371	4.00957
887.766	-18.04307
888.16	19.04482
888.554	-21.0486
888.949	-13.03047
889.343	-21.04783
889.737	36.09304
890.131	3.00718
890.525	-34.08283
890.918	35.08388
891.312	-4.00882
891.706	49.12282
892.099	16.03834
892.492	12.02398
892.886	-6.01378
893.279	-3.00727
893.672	6.01457
894.065	-23.05451
894.458	-28.06694
894.851	-13.02958
895.244	-22.05376
895.637	13.02953
896.029	20.046
896.422	-13.02988
896.814	-21.04977
897.206	14.03177
897.599	-27.06179
897.991	-12.02757
898.383	-15.03325
898.775	10.02095
899.167	31.06843
899.559	1.00238
899.951	-27.0599
900.342	2.00473
900.734	22.05288
901.125	-8.01982
901.517	-1.00234
901.908	10.02223
902.299	-35.0819
902.69	-23.05136
903.082	34.07698
903.473	0
903.863	57.13848
904.254	0
904.645	-29.06746
905.036	18.04178
905.426	-32.06656
905.817	-8.01856
906.207	-30.06823
906.597	27.0593
906.987	-12.02919
907.378	-5.01192
907.768	19.04805
908.158	-14.03242
908.547	-11.02724
908.937	26.06273
909.327	-26.05949
909.717	13.03085
910.106	32.07198
910.495	71.16659
910.885	-32.07583
911.274	6.01427
911.663	34.08218
912.052	1.00231
912.441	34.08249
912.83	-7.01496
913.219	5.01228
913.608	-7.01619
913.997	-51.12237
914.385	14.03091
914.774	28.06357
915.162	-56.12627
915.55	-6.01369
915.939	-16.03866
916.327	-24.05687
916.715	13.03175
917.103	39.08896
917.491	-30.06933
917.878	-46.10563
918.266	23.05638
918.654	52.12674
919.041	-47.11819
919.429	12.0267
919.816	15.03572
920.203	-6.01376
920.591	-11.02561
920.978	15.03441
921.365	-59.14837
921.752	21.04717
922.139	81.1616
922.525	-21.04769
922.912	-17.03903
923.299	-28.06663
923.685	12.02979
924.072	18.03809
924.458	-35.08267
924.844	-14.0328
925.231	-38.08288
925.617	20.04907
926.003	0
926.389	59.14113
926.774	28.06732
927.16	-6.01401
927.546	13.03163
927.931	27.06335
928.317	-57.1216
928.702	39.08497
929.088	-14.0314
929.473	11.02656
929.858	10.02328
930.243	21.04767
930.628	-37.08518
931.013	24.05685
931.398	-2.00425
931.783	-8.02009
932.167	-35.08074
932.552	-32.07513
932.937	-17.03925
933.321	-35.08334
933.705	37.08895
934.09	-5.01176
934.474	36.07948
934.858	10.02478
935.242	52.11379
935.626	-42.1024
936.009	-24.06116
936.393	25.06074
936.777	24.05873
937.16	-63.15558
937.544	19.04157
937.927	3.00725
938.311	21.04761
938.694	29.07266
939.077	-19.04257
939.46	47.10825
939.843	51.09484
940.226	-17.04129
940.609	-20.04286
940.991	-14.03392
941.374	-16.03677
941.757	-19.04427
942.139	-39.08153
942.522	-6.0131
942.904	8.01813
943.286	13.0309
943.668	22.05392
944.05	19.04399
944.432	2.00468
944.814	-22.05078
945.196	9.02099
945.578	23.052
945.959	4.00881
946.341	22.0495
946.722	27.05937
947.104	12.02663
947.485	-12.02613
947.866	-5.01208
948.247	-19.04566
948.628	-9.02054
949.009	9.02196
949.39	-77.17982
949.771	39.08334
950.152	24.05571
950.532	42.10037
950.913	-32.07212
951.293	2.00523
951.674	0
952.054	3.00706
952.434	-7.01628
952.814	-4.00876
953.194	1.0025
953.574	-47.10834
953.954	-16.03583
954.334	-19.04524
954.714	15.03453
955.093	2.00456
955.473	-88.20998
955.853	26.06403
956.232	4.0105
956.611	-59.13159
956.99	-30.07221
957.37	12.02894
957.749	-27.06012
958.128	40.09596
958.506	15.03731
958.885	-23.05491
959.264	-15.03489
959.643	12.02549
960.021	-15.0353
960.4	6.01289
960.778	-30.06858
961.156	12.0284
961.535	-50.10729
961.913	-64.13869
962.291	10.02471
962.669	-2.00483
963.047	-34.08166
963.424	-7.01706
963.802	-31.07151
964.18	17.04023
964.557	11.02316
964.935	4.00883
965.312	10.02493
965.69	8.01877
966.067	5.01135
966.444	28.06463
966.821	-36.0881
967.198	7.01566
967.575	-1.00229
967.952	39.08547
968.329	12.02729
968.705	5.00971
969.082	-4.00983
969.458	-13.02989
969.835	12.02737
970.211	-21.05148
970.587	10.02348
970.963	-8.01945
971.339	29.07248
971.715	2.00463
972.091	8.01848
972.467	-16.03708
972.843	-41.09703
973.219	25.05507
973.594	-32.08034
973.97	26.0568
974.345	6.01346
974.721	-16.03627
975.096	-14.03161
975.471	20.04449
975.846	55.12394
976.221	-34.08259
976.596	-19.04304
976.971	30.06949
977.346	-41.08856
977.72	27.06471
978.095	-12.02964
978.469	46.10236
978.844	-15.03563
979.218	35.07923
979.593	30.06723
979.967	35.08032
980.341	6.01278
980.715	-29.06908
981.089	-7.01639
981.463	60.12886
981.837	6.01394
982.21	24.05137
982.584	4.00902
982.957	58.1368
983.331	9.01991
983.704	54.12489
984.078	-22.05102
984.451	-42.09691
984.824	-5.01161
985.197	-11.02509
985.57	-20.04706
985.943	-35.0801
986.316	18.04143
986.688	46.10266
987.061	-35.07641
987.434	-5.01244
987.806	11.02486
988.179	-26.05738
988.551	-9.02145
988.923	10.02308
989.295	-2.0047
989.667	33.07543
990.039	-15.03532
990.411	28.06052
990.783	3.0064
991.155	33.07549
991.527	5.01129
991.898	-6.01404
992.27	-21.04939
992.641	21.04923
993.012	22.04865
993.384	-16.03597
993.755	-13.03131
994.126	47.10552
994.497	-29.06743
994.868	33.07058
995.239	13.02977
995.61	-1.00237
995.98	-4.00927
996.351	-41.09759
996.722	6.01314
997.092	-8.01805
997.462	-27.06032
997.833	-10.02213
998.203	-16.03631
998.573	40.09427
998.943	8.01731
999.313	-9.02045
999.683	19.0422
1000.053	5.0108
1000.423	27.06142
1000.792	-2.00494
1001.162	-3.00702
1001.531	31.07217
1001.901	-27.06352
1002.27	67.13821
1002.639	21.05092
1003.009	36.08107
1003.378	42.10133
1003.747	5.011
1004.116	16.03614
1004.485	57.12739
1004.853	44.10475
1005.222	53.12673
1005.591	-10.02209
1005.959	19.04043
1006.328	-42.08849
1006.696	-22.0506
1007.064	21.04985
1007.433	3.00712
1007.801	12.02742
1008.169	28.06597
1008.537	20.04114
1008.905	25.05456
1009.273	-3.00698
1009.64	0
1010.008	-20.04476
1010.375	49.11042
1010.743	9.01884
1011.11	13.0289
1011.478	-21.0491
1011.845	-38.08281
1012.212	-7.01461
1012.579	37.08532
1012.946	-27.0595
1013.313	9.01996
1013.68	7.01448
1014.047	5.01138
1014.414	15.03351
1014.78	11.02606
1015.147	-28.0629
1015.513	16.03678
1015.88	-28.06709
1016.246	36.08343
1016.612	-1.00211
1016.978	13.0298
1017.344	62.1447
1017.71	-8.01794
1018.076	36.07858
1018.442	4.0097
1018.808	-9.02134
1019.174	0
1019.539	22.04539
1019.905	-7.01563
1020.27	7.01647
1020.636	-9.02023
1021.001	-2.00446
1021.366	31.07106
1021.731	8.01959
1022.096	-7.01694
1022.461	-28.06164
1022.826	3.0067
1023.191	12.02995
1023.556	-43.09364
1023.92	-9.0206
1024.285	-18.04127
1024.649	8.01845
1025.014	-4.00933
1025.378	32.07659
1025.742	10.02336
1026.107	-26.05427
1026.471	-29.06208
1026.835	-33.07673
1027.199	-15.03431
1027.562	18.03926
1027.926	4.00916
1028.29	-16.0386
1028.654	-49.10503
1029.017	35.08084
1029.381	8.01803
1029.744	-10.02442
1030.107	-8.01738
1030.471	-10.02241
1030.834	-48.10073
1031.197	-19.04236
1031.56	15.03348
1031.923	1.00245
1032.286	-29.06356
1032.648	5.01111
1033.011	15.03217
1033.374	15.03232
1033.736	-25.06285
1034.099	-19.04406
1034.461	-17.04124
1034.823	-1.00234
1035.185	-18.04226
1035.548	-14.03206
1035.91	-3.00681
1036.272	4.00849
1036.634	22.04965
1036.995	69.15141
1037.357	-19.04383
1037.719	26.05906
1038.08	-17.03716
1038.442	45.10161
1038.803	-14.03137
1039.165	26.06192
1039.526	11.02496
1039.887	30.06753
1040.248	22.05217
1040.609	20.04627
1040.97	-1.0023
1041.331	-36.08518
1041.692	-7.01549
1042.053	-7.01469
1042.413	-15.0323
1042.774	35.07897
1043.134	18.03944
1043.495	-14.03306
1043.855	24.05454
1044.215	18.04183
1044.576	7.01585
1044.936	13.02788
1045.296	25.0582
1045.656	-12.02776
1046.016	-39.08774
1046.375	25.05733
1046.735	-6.01289
1047.095	11.02409
1047.454	59.11317
1047.814	-38.08568
1048.173	-5.01097
1048.533	-3.00646
1048.892	-16.03658
1049.251	11.02602
1049.61	-46.10631
1049.969	16.03553
1050.328	-52.10377
1050.687	-47.10829
1051.046	27.06211
1051.405	-2.00462
1051.763	-15.03253
1052.122	30.07115
1052.48	-55.12743
1052.839	-3.00663
1053.197	4.00883
1053.555	-70.14469
1053.914	17.03878
1054.272	-5.01131
1054.63	-45.10381
1054.988	-25.05583
1055.345	-25.04927
1055.703	10.02228
1056.061	-17.04167
1056.419	20.04929
1056.776	21.04736
1057.134	-16.03458
1057.491	3.00706
1057.848	-4.00933
1058.206	-6.01319
1058.563	16.03301
1058.92	-13.02766
1059.277	-50.11495
1059.634	-70.15254
1059.991	93.20605
1060.348	35.07395
1060.704	-45.1019
1061.061	0
1061.418	4.00919
1061.774	-5.01184
1062.131	24.0617
1062.487	-9.01954
1062.843	-7.01646
1063.199	-8.01894
1063.555	-12.0263
1063.911	-15.03574
1064.267	52.09528
1064.623	-13.03018
1064.979	-62.1351
1065.335	-47.10422
1065.691	24.05429
1066.046	-45.09153
1066.402	-24.05101
1066.757	24.05711
1067.112	-13.0297
1067.468	12.02704
1067.823	4.00905
1068.178	4.00915
1068.533	-7.01581
1068.888	-31.06897
1069.243	-10.02345
1069.598	-48.10872
1069.952	-14.03009
1070.307	28.0663
1070.662	-14.0314
1071.016	-46.09807
1071.371	7.01473
1071.725	-94.20848
1072.079	-10.02256
1072.434	-24.055
1072.788	52.11586
1073.142	59.13643
1073.496	-25.05594
1073.85	15.03228
1074.203	-33.07534
1074.557	21.05349
1074.911	34.07443
1075.265	-53.11468
1075.618	40.09152
1075.971	-26.05788
1076.325	21.05039
1076.678	-28.06013
1077.031	2.0042
1077.385	48.09775
1077.738	-36.07651
1078.091	4.00863
1078.444	-5.01067
1078.796	36.08329
1079.149	-33.07673
1079.502	-32.07153
1079.855	-9.01979
1080.207	18.04145
1080.56	13.03177
1080.912	-14.03155
1081.264	17.03826
1081.617	14.03212
1081.969	35.08478
1082.321	-10.02305
1082.673	0
1083.025	-16.03531
1083.377	-275.56879
1083.728	-75.16222
1084.08	5.01186
1084.432	-37.08228
1084.783	40.08787
1085.135	47.11213
1085.486	14.03012
1085.838	1.00232
1086.189	-37.08501
1086.54	-6.01344
1086.891	6.01457
1087.242	-38.08687
1087.593	-7.01586
1087.944	32.06662
1088.295	-10.0209
1088.646	30.06809
1088.996	-41.09337
1089.347	-31.07148
1089.698	9.02014
1090.048	-1.00244
1090.398	44.09498
1090.749	29.06492
1091.099	-9.02171
1091.449	-16.0374
1091.799	-18.04257
1092.149	2.00472
1092.499	10.02301
1092.849	-32.07764
1093.199	14.0328
1093.548	-10.02279
1093.898	25.05898
1094.248	-44.10796
1094.597	-1.00246
1094.947	-21.05351
1095.296	-34.0792
1095.645	-35.08653
1095.994	4.00907
1096.343	28.06712
1096.692	-30.0764
1097.041	-16.04194
1097.39	-3.00708
1097.739	5.0124
1098.088	14.03521
1098.437	-8.02017
1098.785	-10.02563
1099.134	-22.05502
1099.482	-70.18484
1099.83	-12.02991
1100.179	-6.01516
1100.527	-48.12159
1100.875	4.01007
1101.223	36.09142
1101.571	-14.03743
1101.919	-51.12949
1102.267	29.07927
1102.615	10.03211
1102.962	6.01925
1103.31	1.00321
1103.658	-14.04495
