Data from N3 R5 sample 2_Subt2__2__14-23-11-550.txt Node

Date: Thu Sep 18 14:23:11 PDT 2025
User: uwsun
Spectrometer: HDX01956
Trigger mode: 0
Integration Time (sec): 5.000000E-1
Scans to average: 1
Nonlinearity correction enabled: true
Boxcar width: 0
Storing dark spectrum: false
XAxis mode: Wavelengths
Number of Pixels in Spectrum: 2068
>>>>>Begin Spectral Data<<<<<
194.03	100.28616
194.578	100.32151
195.127	105.33281
195.676	106.33561
196.225	89.23172
196.773	125.34244
197.321	183.49651
197.87	219.54613
198.418	274.68339
198.966	246.62797
199.513	255.62781
200.061	209.51495
200.609	234.59693
201.156	227.47015
201.704	242.58558
202.251	246.63018
202.798	249.627
203.345	262.62225
203.892	249.60353
204.438	261.59749
204.985	232.53356
205.532	292.75374
206.078	278.65362
206.624	265.63046
207.17	239.53194
207.716	226.52495
208.262	263.48887
208.808	279.6658
209.354	244.57168
209.899	274.6585
210.445	293.70322
210.99	254.59068
211.535	253.56846
212.08	254.56309
212.625	214.51783
213.17	244.59286
213.715	262.56411
214.259	310.68722
214.804	249.58625
215.348	268.58273
215.892	315.71848
216.436	289.6384
216.98	246.51326
217.524	245.555
218.068	277.66558
218.612	254.60673
219.155	292.65029
219.698	204.46373
220.242	292.68841
220.785	283.62829
221.328	283.67224
221.871	280.67394
222.414	230.5412
222.956	215.50167
223.499	250.53388
224.041	174.38494
224.583	254.5137
225.126	229.48999
225.668	214.50121
226.21	224.54101
226.751	149.3115
227.293	229.49317
227.835	230.53509
228.376	208.4542
228.918	262.62895
229.459	270.64889
230	195.44623
230.541	190.41753
231.082	261.60229
231.622	250.54683
232.163	282.6545
232.704	255.60084
233.244	213.50735
233.784	248.57286
234.324	247.52278
234.864	205.44225
235.404	201.4533
235.944	207.46492
236.484	234.55104
237.023	253.57056
237.563	242.5309
238.102	259.57955
238.641	211.5172
239.18	228.51324
239.719	260.62699
240.258	246.51987
240.797	271.61788
241.335	209.48326
241.874	295.5309
242.412	231.52733
242.95	257.58999
243.488	243.52692
244.026	236.51992
244.564	303.57782
245.102	215.46123
245.64	241.55082
246.177	185.39482
246.715	215.48725
247.252	204.44245
247.789	158.26722
248.326	172.39495
248.863	206.42809
249.4	298.643
249.936	225.43616
250.473	253.56169
251.009	280.61141
251.546	245.51378
252.082	289.59909
252.618	301.63372
253.154	266.60587
253.69	252.53488
254.226	238.53882
254.761	254.53066
255.297	204.42847
255.832	229.51369
256.367	272.60148
256.903	237.4891
257.438	231.51008
257.972	221.46346
258.507	294.64225
259.042	200.40449
259.576	238.48774
260.111	236.51534
260.645	344.69061
261.179	238.52433
261.713	237.49591
262.247	333.7239
262.781	290.57279
263.315	289.66954
263.849	255.60737
264.382	295.6312
264.915	315.69699
265.449	281.6523
265.982	221.47185
266.515	312.7158
267.048	271.54192
267.58	239.48414
268.113	298.60711
268.646	282.66561
269.178	227.48298
269.71	250.51187
270.243	252.54375
270.775	283.68386
271.307	204.46298
271.838	282.62542
272.37	271.63531
272.902	303.65
273.433	255.52175
273.965	287.66886
274.496	249.58237
275.027	282.65838
275.558	287.65621
276.089	257.61566
276.62	274.658
277.15	255.59617
277.681	205.41527
278.211	279.64074
278.741	336.69573
279.272	276.59502
279.802	283.67147
280.332	264.5911
280.861	293.66453
281.391	274.58285
281.921	241.54417
282.45	356.84218
282.98	329.81174
283.509	259.54962
284.038	201.43027
284.567	263.56833
285.096	297.67825
285.625	317.68355
286.153	284.62566
286.682	312.66194
287.21	256.58475
287.739	299.65884
288.267	262.60616
288.795	280.69835
289.323	334.74103
289.851	307.67079
290.378	300.63231
290.906	304.69968
291.433	301.71003
291.961	300.63231
292.488	273.64599
293.015	340.75528
293.542	308.73401
294.069	337.77608
294.596	325.75442
295.122	324.72602
295.649	303.63232
296.175	329.73556
296.702	295.66662
297.228	275.62143
297.754	335.69785
298.28	359.7525
298.806	340.77033
299.332	272.56776
299.857	330.69126
300.383	313.73948
300.908	361.8267
301.433	340.77877
301.958	369.77278
302.483	384.90629
303.008	364.83139
303.533	272.66187
304.058	365.7948
304.582	366.80627
305.107	368.90776
305.631	352.73734
306.155	371.81129
306.679	389.84418
307.203	348.75537
307.727	414.91123
308.251	375.86013
308.775	382.8394
309.298	410.91642
309.822	368.86686
310.345	366.80695
310.868	404.89146
311.391	372.85068
311.914	397.92733
312.437	389.80889
312.96	384.84308
313.482	444.96864
314.005	403.93987
314.527	403.99059
315.049	411.95588
315.571	455.94528
316.093	478.0883
316.615	436.97613
317.137	447.87358
317.659	397.88096
318.18	502.09873
318.702	457.97228
319.223	431.8016
319.744	429.8861
320.265	435.97649
320.786	470.06617
321.307	507.1528
321.828	531.08562
322.348	505.08134
322.869	429.9151
323.389	697.09007
323.909	529.08983
324.43	520.11951
324.95	440.92858
325.47	520.16498
325.989	560.20679
326.509	586.14493
327.029	537.08351
327.548	533.08036
328.067	527.1465
328.587	575.28917
329.106	577.1585
329.625	588.36174
330.144	554.12837
330.662	570.1784
331.181	634.30858
331.7	599.23983
332.218	656.2456
332.736	552.1452
333.255	568.17845
333.773	609.2808
334.291	627.37015
334.808	633.22143
335.326	661.3018
335.844	694.42105
336.361	674.50364
336.879	707.42453
337.396	739.51774
337.913	703.38725
338.43	791.52176
338.947	718.48351
339.464	681.25516
339.981	759.55466
340.497	742.58925
341.014	711.49166
341.53	753.46799
342.046	795.67686
342.562	746.60882
343.078	816.61622
343.594	825.68011
344.11	812.63076
344.626	805.75058
345.141	921.74089
345.657	887.63406
346.172	836.69058
346.687	833.61267
347.202	865.61097
347.717	913.81154
348.232	906.90406
348.747	851.63424
349.261	926.68861
349.776	843.65072
350.29	899.8732
350.805	886.81712
351.319	935.79409
351.833	947.76921
352.347	884.69405
352.861	966.8381
353.374	994.82384
353.888	917.82033
354.401	1032.89088
354.915	982.79096
355.428	1005.05376
355.941	975.8566
356.454	1069.88388
356.967	1000.92407
357.48	982.81441
357.993	1042.06868
358.505	1060.11618
359.018	1112.12726
359.53	1080.06292
360.042	1041.78868
360.554	1105.10623
361.066	1091.10552
361.578	1138.92637
362.09	1121.10389
362.602	1144.93865
363.113	1106.97104
363.625	1183.06044
364.136	1144.9251
364.647	1144.07747
365.158	1245.21094
365.669	1251.336
366.18	1136.02755
366.691	1273.08259
367.201	1197.18775
367.712	1198.03701
368.222	1283.2366
368.733	1310.10737
369.243	1286.06502
369.753	1312.22831
370.263	1341.34674
370.773	1377.54059
371.282	1415.43831
371.792	1418.32337
372.301	1418.51893
372.811	1472.82996
373.32	1472.15241
373.829	1515.56086
374.338	1600.40598
374.847	1605.49316
375.356	1703.75693
375.865	1781.37371
376.373	1720.56431
376.882	1835.08889
377.39	1870.9259
377.898	1963.12074
378.407	1970.64268
378.915	2019.51759
379.423	2176.00545
379.93	2279.81676
380.438	2387.26775
380.946	2422.0429
381.453	2632.21317
381.96	2678.15842
382.468	2904.19054
382.975	3060.3771
383.482	3119.83406
383.989	3204.64965
384.495	3355.9268
385.002	3535.32319
385.509	3573.89818
386.015	3923.93036
386.521	4128.3504
387.028	4216.40314
387.534	4396.97446
388.04	4600.43627
388.546	4678.95061
389.051	4898.74745
389.557	5306.87731
390.063	5782.64587
390.568	5908.71605
391.073	6103.32231
391.578	6365.61273
392.084	6532.11361
392.589	6779.07088
393.093	7191.43707
393.598	7954.79207
394.103	8835.08163
394.607	9636.86636
395.112	10403.19448
395.616	10890.20711
396.12	11917.73413
396.624	13120.67123
397.128	14321.31236
397.632	15991.92942
398.136	17237.72418
398.639	18374.83138
399.143	20432.33815
399.646	23287.74828
400.15	25570.47881
400.653	28551.42402
401.156	32106.12506
401.659	37268.15002
402.162	45877.49192
402.664	58846.90628
403.167	61953.50472
403.67	61009.11914
404.172	55487.84425
404.674	37291.05854
405.176	4428.40989
405.678	533.47942
406.18	0
406.682	0
407.184	6962.89417
407.686	50953.82939
408.187	59237.6763
408.688	61091.12691
409.19	61923.45898
409.691	62441.93235
410.192	62608.13215
410.693	61826.64789
411.194	55817.11613
411.694	52385.827
412.195	48046.74516
412.696	43422.83971
413.196	40177.46345
413.696	39130.24349
414.196	39542.64968
414.696	38527.71976
415.196	36697.21124
415.696	33119.38999
416.196	26854.0798
416.695	21113.13851
417.195	18287.72342
417.694	17215.73826
418.194	16157.08018
418.693	15160.3795
419.192	14547.58652
419.691	14438.56146
420.19	14048.96408
420.688	13597.67313
421.187	13089.12717
421.685	12137.9755
422.184	11006.8635
422.682	9710.20566
423.18	8182.06302
423.678	7270.319
424.176	6823.21693
424.674	6420.00906
425.172	6012.46419
425.669	5715.95801
426.167	5405.66206
426.664	4810.90591
427.161	4509.09084
427.659	4208.78986
428.156	3997.9761
428.652	3757.22371
429.149	3561.01124
429.646	3366.44769
430.143	3264.03933
430.639	3046.98951
431.135	2849.24534
431.632	2717.80721
432.128	2593.11632
432.624	2326.30344
433.12	2378.80677
433.616	2233.54464
434.111	2185.95145
434.607	2068.89089
435.103	1971.26792
435.598	1986.25144
436.093	1887.65001
436.588	1846.51454
437.083	1681.40928
437.578	1613.39489
438.073	1488.56685
438.568	1440.46529
439.062	1354.98503
439.557	1371.25019
440.051	1339.13924
440.546	1399.22951
441.04	1250.15091
441.534	1226.3459
442.028	1217.15991
442.522	1212.16927
443.015	1124.81468
443.509	1212.22579
444.002	1107.08465
444.496	1082.72792
444.989	1072.04366
445.482	1070.05654
445.975	1069.86236
446.468	1069.72112
446.961	1010.61977
447.454	1013.72746
447.947	1035.93775
448.439	1007.94636
448.931	1011.76009
449.424	983.92796
449.916	997.86922
450.408	979.75716
450.9	916.77572
451.392	857.78168
451.884	873.5713
452.375	838.6869
452.867	860.54271
453.358	827.49136
453.849	866.44086
454.341	860.55061
454.832	830.42785
455.323	833.66261
455.814	810.4953
456.304	768.44026
456.795	755.39531
457.285	748.33932
457.776	735.34135
458.266	748.48481
458.756	741.45346
459.247	698.3822
459.737	760.51568
460.226	699.30322
460.716	709.42202
461.206	713.40635
461.695	677.44585
462.185	661.32256
462.674	648.23397
463.163	644.17823
463.653	661.15133
464.142	573.18064
464.63	611.27373
465.119	622.23378
465.608	578.13087
466.096	602.10845
466.585	537.04927
467.073	544.11099
467.561	606.26861
468.05	543.07356
468.538	595.27382
469.026	601.24009
469.513	506.91705
470.001	518.01279
470.489	534.09349
470.976	487.98153
471.463	520.14586
471.951	524.14552
472.438	463.96233
472.925	430.88199
473.412	455.97812
473.899	532.05988
474.385	474.02599
474.872	433.89116
475.359	430.93651
475.845	431.78049
476.331	442.83004
476.817	362.78743
477.303	340.71347
477.789	369.79976
478.275	391.87739
478.761	359.77709
479.247	339.67853
479.732	399.90342
480.218	361.85582
480.703	329.75766
481.188	342.653
481.673	357.73938
482.158	302.58949
482.643	367.84617
483.128	257.53633
483.612	243.52197
484.097	311.69417
484.581	256.53768
485.066	270.6013
485.55	244.48782
486.034	299.59542
486.518	285.61614
487.002	258.58575
487.486	274.61804
487.969	301.68544
488.453	249.58671
488.936	311.63374
489.42	223.45773
489.903	227.53404
490.386	303.59159
490.869	210.41517
491.352	196.44536
491.835	211.39651
492.318	252.52835
492.8	183.34779
493.283	279.66249
493.765	170.39707
494.247	189.40825
494.73	166.34373
495.212	181.40836
495.694	214.46631
496.175	169.37895
496.657	291.64255
497.139	129.19911
497.62	146.33081
498.102	194.45526
498.583	123.2895
499.064	226.47467
499.545	180.38407
500.026	153.32242
500.507	125.27186
500.988	158.3673
501.469	131.31012
501.949	143.33119
502.43	94.21308
502.91	143.27641
503.39	176.41431
503.87	203.44825
504.35	99.2198
504.83	150.30977
505.31	172.39511
505.79	117.26678
506.269	141.30901
506.749	131.28273
507.228	136.30276
507.707	133.27818
508.187	128.2872
508.666	79.18529
509.145	128.28377
509.623	101.22583
510.102	117.26871
510.581	128.29015
511.059	163.39124
511.538	134.32889
512.016	187.42276
512.494	156.35448
512.972	147.3341
513.45	152.33782
513.928	96.22353
514.406	180.41877
514.884	207.50833
515.361	167.38185
515.839	121.26081
516.316	105.23951
516.793	143.34284
517.27	208.47474
517.747	204.49419
518.224	138.30046
518.701	145.3061
519.178	181.43262
519.654	115.25437
520.131	104.24359
520.607	149.35028
521.083	155.33654
521.56	105.23564
522.036	169.34971
522.512	183.42449
522.987	218.49053
523.463	143.32408
523.939	174.40226
524.414	151.32631
524.89	102.22943
525.365	161.34763
525.84	148.34351
526.315	145.32888
526.79	129.2734
527.265	106.22725
527.74	100.23293
528.215	120.27058
528.689	191.40196
529.164	99.20018
529.638	166.40592
530.112	137.31137
530.587	181.36699
531.061	145.33422
531.534	107.24594
532.008	83.19292
532.482	86.18469
532.956	103.2565
533.429	41.09352
533.903	129.2673
534.376	91.19143
534.849	126.2791
535.322	109.24572
535.795	107.25007
536.268	82.19101
536.741	130.2966
537.213	107.23697
537.686	59.13789
538.158	63.13638
538.631	75.17391
539.103	95.20363
539.575	81.16062
540.047	63.1327
540.519	83.18856
540.991	91.21143
541.463	137.31717
541.934	81.17849
542.406	112.25605
542.877	77.16633
543.348	14.03206
543.82	136.31616
544.291	65.14341
544.762	80.18201
545.233	112.27235
545.703	113.23938
546.174	81.18201
546.645	135.3139
547.115	124.2861
547.585	137.30353
548.056	111.26186
548.526	130.29252
548.996	153.34872
549.466	104.24139
549.935	151.34583
550.405	164.34339
550.875	105.23719
551.344	140.32289
551.814	87.18857
552.283	101.20778
552.752	135.29835
553.221	112.23212
553.69	126.26768
554.159	137.32696
554.628	151.31932
555.096	156.37607
555.565	123.26011
556.033	123.27456
556.502	109.25184
556.97	94.19813
557.438	141.31747
557.906	121.27344
558.374	123.2682
558.842	83.19124
559.31	65.13884
559.777	70.16434
560.245	35.07861
560.712	5.01107
561.18	69.14598
561.647	39.08388
562.114	63.13853
562.581	85.20247
563.048	22.04851
563.514	40.09588
563.981	65.14245
564.448	44.09584
564.914	67.1495
565.381	60.12936
565.847	37.08345
566.313	33.07412
566.779	88.19233
567.245	46.10432
567.711	99.22929
568.176	126.27701
568.642	109.26461
569.108	64.15236
569.573	42.09435
570.038	54.11031
570.504	92.20073
570.969	71.17133
571.434	103.21858
571.899	99.22756
572.363	101.21957
572.828	105.22749
573.293	107.23529
573.757	110.24356
574.222	127.27422
574.686	60.13119
575.15	73.16847
575.614	116.25352
576.078	119.2664
576.542	93.2045
577.006	152.32798
577.469	120.28139
577.933	105.22321
578.396	148.33889
578.86	109.24401
579.323	95.21775
579.786	115.23541
580.249	102.22368
580.712	84.19605
581.175	105.24896
581.637	149.32888
582.1	93.19374
582.563	43.08631
583.025	74.17332
583.487	85.16296
583.95	83.17191
584.412	116.22901
584.874	121.27968
585.336	86.19669
585.797	108.22153
586.259	65.14473
586.721	93.20983
587.182	91.20002
587.643	68.14818
588.105	94.2142
588.566	103.20626
589.027	116.27052
589.488	78.16968
589.949	127.28946
590.41	101.18979
590.87	72.15416
591.331	75.152
591.791	38.08365
592.252	70.15409
592.712	71.16372
593.172	69.14911
593.632	34.06965
594.092	90.1912
594.552	48.09846
595.011	79.17554
595.471	65.13932
595.931	62.13223
596.39	97.22296
596.849	57.12729
597.308	147.29791
597.768	38.09379
598.227	50.11633
598.685	41.08902
599.144	37.08341
599.603	78.17681
600.062	23.04627
600.52	41.08849
600.978	96.2192
601.437	58.12682
601.895	51.10364
602.353	9.01908
602.811	69.14611
603.269	66.1507
603.727	48.11084
604.184	42.09133
604.642	54.12682
605.099	27.06022
605.557	43.09971
606.014	39.08052
606.471	85.20604
606.928	136.28741
607.385	71.16945
607.842	93.20614
608.299	101.22349
608.755	54.12504
609.212	89.19019
609.668	102.21707
610.125	72.1652
610.581	61.13549
611.037	115.2466
611.493	36.08114
611.949	84.19358
612.405	40.07789
612.861	-16.03589
613.316	64.14784
613.772	75.16471
614.227	54.12251
614.683	46.09444
615.138	70.15926
615.593	18.04001
616.048	79.16933
616.503	58.13638
616.958	47.11341
617.412	31.07066
617.867	52.11196
618.321	3.00584
618.776	39.08251
619.23	37.08443
619.684	22.04723
620.138	-11.02414
620.592	4.00935
621.046	46.10266
621.5	26.06061
621.954	71.15061
622.407	40.08483
622.861	-21.04875
623.314	64.13893
623.768	28.06293
624.221	27.05136
624.674	5.01097
625.127	7.01581
625.58	-24.05159
626.033	6.01251
626.485	-23.05325
626.938	24.05443
627.39	66.14626
627.843	-23.05102
628.295	-26.05836
628.747	40.091
629.199	40.08794
629.651	2.0044
630.103	22.04875
630.555	-16.03233
631.006	52.1161
631.458	-11.02465
631.909	2.00437
632.361	-48.10752
632.812	-39.08796
633.263	-2.00409
633.714	-37.07529
634.165	-26.0597
634.616	-38.08705
635.067	-34.0716
635.518	-19.04301
635.968	-11.02099
636.419	9.01842
636.869	-4.00906
637.319	20.04423
637.769	-20.04349
638.219	-26.05891
638.669	-19.04407
639.119	20.04653
639.569	41.09567
640.019	2.00442
640.468	-60.12813
640.918	20.04596
641.367	7.01512
641.816	-34.07393
642.265	-6.01337
642.714	22.04918
643.163	-53.11664
643.612	-29.06865
644.061	-13.02626
644.51	-31.06894
644.958	32.06727
645.406	-8.01862
645.855	-30.07112
646.303	-14.03137
646.751	-26.05788
647.199	-24.05183
647.647	48.10699
648.095	-25.05523
648.543	3.00577
648.99	20.04626
649.438	-7.01591
649.885	44.10535
650.333	-46.08455
650.78	-1.00238
651.227	-16.03808
651.674	13.02862
652.121	-51.11938
652.568	-26.06149
653.015	-25.06017
653.461	-19.04387
653.908	-22.04955
654.354	-14.03186
654.801	-10.02281
655.247	15.03137
655.693	12.03034
656.139	7.01615
656.585	38.08771
657.031	-58.13398
657.477	22.04602
657.922	38.08467
658.368	-12.02855
658.813	-2.00437
659.259	24.05577
659.704	-9.0205
660.149	-29.0657
660.594	-10.02306
661.039	-4.00888
661.484	44.10079
661.929	0
662.373	31.07661
662.818	27.06525
663.262	-50.11729
663.707	-7.01715
664.151	55.13056
664.595	-28.06602
665.039	-11.02644
665.483	10.02493
665.927	1.00226
666.371	36.08104
666.814	-17.03933
667.258	8.01858
667.701	22.0446
668.145	2.0048
668.588	3.00717
669.031	0
669.474	17.03947
669.917	-8.017
670.36	-1.00239
670.803	26.06018
671.245	15.03009
671.688	2.0047
672.13	-21.04552
672.573	72.1762
673.015	-4.00927
673.457	48.10077
673.899	7.0163
674.341	-11.02573
674.783	-8.01876
675.225	26.06161
675.666	-4.00939
676.108	9.01892
676.549	16.03631
676.991	-37.0789
677.432	31.05797
677.873	-24.05365
678.314	30.06872
678.755	33.07788
679.196	37.08194
679.637	10.02336
680.078	-19.04292
680.518	6.0132
680.959	-8.01854
681.399	-15.03585
681.839	20.04686
682.28	6.01444
682.72	-2.0044
683.16	23.05552
683.6	29.06321
684.039	19.03757
684.479	13.03092
684.919	4.00903
685.358	3.00733
685.798	-9.02281
686.237	19.04404
686.676	52.11461
687.115	41.0922
687.554	24.05474
687.993	-20.04197
688.432	28.06205
688.871	-14.03071
689.309	89.20768
689.748	71.13974
690.186	18.04084
690.625	41.09386
691.063	28.06535
691.501	46.10938
691.939	7.01692
692.377	47.11032
692.815	22.05139
693.253	71.16039
693.69	15.03155
694.128	43.10136
694.565	37.08491
695.003	42.10301
695.44	-9.02037
695.877	53.11982
696.314	35.07132
696.751	70.15007
697.188	31.06877
697.625	-13.02843
698.061	4.00929
698.498	40.09255
698.934	-20.04624
699.371	9.02059
699.807	14.03198
700.243	31.07268
700.679	5.01088
701.115	41.09137
701.551	62.14014
701.987	-1.00213
702.422	-22.05054
702.858	-41.0942
703.294	0
703.729	62.1459
704.164	70.16196
704.599	31.06536
705.035	3.00649
705.47	86.2019
705.904	39.08644
706.339	24.05252
706.774	16.03574
707.209	-12.02663
707.643	26.05997
708.078	-1.00234
708.512	70.1708
708.946	-14.03217
709.38	-7.01587
709.814	2.00435
710.248	-30.06994
710.682	19.04385
711.116	33.07646
711.549	-6.0149
711.983	-29.06425
712.416	5.01119
712.85	21.05077
713.283	14.03179
713.716	35.08363
714.149	-22.04993
714.582	60.1278
715.015	25.05955
715.448	39.09261
715.881	3.00611
716.313	61.13678
716.746	44.0995
717.178	8.01841
717.61	61.14781
718.043	23.05441
718.475	17.03929
718.907	27.06431
719.339	1.00218
719.77	83.18918
720.202	23.05569
720.634	76.17717
721.065	40.09001
721.497	14.03305
721.928	17.04039
722.359	34.07985
722.79	-30.06949
723.221	3.00718
723.652	52.1265
724.083	36.07668
724.514	-16.03451
724.945	18.0405
725.375	8.01788
725.806	-16.03772
726.236	18.04412
726.666	24.05365
727.096	20.04655
727.526	23.05628
727.956	17.0368
728.386	-3.00696
728.816	30.07301
729.246	51.11905
729.675	10.02389
730.105	-2.00469
730.534	65.14347
730.964	-2.00479
731.393	-19.04439
731.822	30.07366
732.251	40.0976
732.68	-38.08372
733.109	26.06137
733.537	19.04371
733.966	24.05663
734.395	4.00872
734.823	54.11322
735.251	43.09848
735.68	-18.04308
736.108	15.0361
736.536	26.05815
736.964	7.01538
737.392	7.01662
737.82	-10.02282
738.247	-36.08204
738.675	8.01791
739.102	50.12036
739.53	48.11764
739.957	9.02209
740.384	42.09675
740.811	56.13557
741.238	14.03233
741.665	44.09808
742.092	9.0202
742.519	26.06221
742.945	56.12668
743.372	58.1367
743.798	12.02952
744.225	21.04728
744.651	0
745.077	71.16717
745.503	48.10978
745.929	-45.10339
746.355	15.03477
746.781	9.02125
747.207	25.05661
747.632	13.03053
748.058	3.00708
748.483	36.07718
748.908	5.01188
749.334	56.12993
749.759	10.02233
750.184	16.03622
750.609	20.04642
751.033	-3.0066
751.458	124.25918
751.883	17.03979
752.307	57.12866
752.732	28.06778
753.156	10.02355
753.58	38.08474
754.005	22.05378
754.429	-14.03088
754.853	25.0593
755.277	42.09466
755.7	63.14718
756.124	33.07909
756.548	31.0702
756.971	39.08968
757.394	15.03697
757.818	38.0941
758.241	-9.02178
758.664	66.15977
759.087	46.09892
759.51	25.05921
759.933	76.17368
760.356	19.04649
760.778	82.19364
761.201	-18.04107
761.623	12.02714
762.046	-25.05507
762.468	37.08355
762.89	53.12358
763.312	17.03912
763.734	-3.00693
764.156	52.12213
764.578	-18.03892
765	46.10618
765.421	38.09403
765.843	26.06561
766.264	30.06792
766.686	61.14647
767.107	44.10249
767.528	57.139
767.949	3.00731
768.37	-37.08698
768.791	24.05471
769.212	75.1816
769.632	21.04633
770.053	22.05575
770.473	15.03485
770.894	-1.00236
771.314	3.00671
771.734	45.09804
772.154	49.11985
772.575	4.00876
772.994	57.12197
773.414	-29.06503
773.834	42.10053
774.254	-13.03028
774.673	-10.02312
775.093	42.09953
775.512	16.03793
775.931	74.17961
776.351	3.00707
776.77	15.03517
777.189	-31.06997
777.607	20.04905
778.026	87.20572
778.445	31.07514
778.864	11.02682
779.282	-16.03642
779.701	23.05533
780.119	-7.01686
780.537	-4.00954
780.955	45.1081
781.373	1.00236
781.791	16.03423
782.209	50.10868
782.627	51.12899
783.045	-16.03503
783.462	-15.03655
783.88	15.03744
784.297	22.0528
784.715	7.01755
785.132	12.0276
785.549	19.04599
785.966	28.06671
786.383	53.12426
786.8	31.06797
787.217	-44.09978
787.633	4.00958
788.05	3.00655
788.466	72.15696
788.883	50.12254
789.299	-15.03411
789.715	67.1545
790.131	21.04935
790.547	-38.08935
790.963	46.10812
791.379	61.14636
791.795	-23.0497
792.21	-3.00662
792.626	3.00674
793.041	41.095
793.457	19.04434
793.872	23.05121
794.287	61.14089
794.702	-20.04681
795.117	-57.13562
795.532	20.04843
795.947	-9.02034
796.362	32.07109
796.776	-1.00214
797.191	2.00463
797.605	57.12876
798.02	28.06517
798.434	0
798.848	-3.00699
799.262	26.0624
799.676	29.06607
800.09	-2.00466
800.504	-6.01383
800.918	-22.04822
801.331	-14.03492
801.745	-32.06955
802.158	16.03793
802.572	9.02054
802.985	8.01803
803.398	10.02256
803.811	16.03884
804.224	4.00942
804.637	-42.09397
805.05	51.11026
805.462	61.13999
805.875	47.11832
806.288	8.01857
806.7	-12.02881
807.112	7.0153
807.525	42.09833
807.937	21.04935
808.349	-34.08125
808.761	-19.04385
809.173	-30.0685
809.584	-21.04916
809.996	15.03507
810.408	-5.01245
810.819	-22.04938
811.231	6.01527
811.642	44.10338
812.053	31.071
812.464	72.16175
812.875	69.16694
813.286	33.08035
813.697	0
814.108	4.00915
814.519	-22.04576
814.929	-1.0024
815.34	-1.00229
815.75	12.02904
816.16	-29.06772
816.571	10.02483
816.981	-35.07722
817.391	8.01819
817.801	31.07404
818.211	34.07651
818.62	25.05657
819.03	0
819.44	-7.0174
819.849	45.1076
820.259	22.0537
820.668	-9.02139
821.077	-4.0095
821.486	-32.07233
821.895	-20.04602
822.304	5.01271
822.713	10.02218
823.122	46.10909
823.531	37.08283
823.939	8.01852
824.348	33.07585
824.756	4.00947
825.164	0
825.573	20.04763
825.981	36.08425
826.389	-28.06617
826.797	19.04522
827.205	21.04517
827.612	-17.03956
828.02	1.00225
828.428	23.05529
828.835	17.04289
829.243	4.00895
829.65	-2.00475
830.057	29.06717
830.464	35.08141
830.871	1.00225
831.278	-36.08207
831.685	-15.03096
832.092	43.09959
832.499	9.01822
832.905	8.01934
833.312	9.01904
833.718	16.03749
834.124	25.05356
834.531	23.05449
834.937	-25.06074
835.343	18.04098
835.749	-13.02829
836.155	-20.05007
836.561	-55.12693
836.966	2.00461
837.372	14.03365
837.777	-26.06137
838.183	-1.00202
838.588	13.03079
838.993	2.00454
839.399	10.023
839.804	15.03504
840.209	19.04644
840.613	58.1208
841.018	-43.10306
841.423	-17.04115
841.828	-18.04338
842.232	-29.06701
842.637	-23.05041
843.041	66.16248
843.445	-28.06633
843.849	-12.02826
844.253	-26.05788
844.657	20.04825
845.061	13.02765
845.465	51.11835
845.869	22.04751
846.272	-35.08129
846.676	29.06615
847.079	-41.10103
847.483	34.07957
847.886	-21.04746
848.289	12.03121
848.692	2.0048
849.095	16.03565
849.498	-15.03532
849.901	-67.14442
850.304	-6.0134
850.707	5.01207
851.109	-28.06607
851.512	47.10946
851.914	12.0294
852.316	20.04812
852.718	2.005
853.121	34.07845
853.523	-12.02635
853.925	-13.03257
854.326	40.0957
854.728	27.06587
855.13	32.07907
855.531	54.12295
855.933	-5.01128
856.334	11.02617
856.736	2.00415
857.137	-12.02632
857.538	-22.05284
857.939	38.08918
858.34	-32.07351
858.741	-14.03496
859.142	50.1126
859.542	81.20646
859.943	48.11322
860.343	-3.00711
860.744	18.04158
861.144	-5.01154
861.544	9.02079
861.945	7.01681
862.345	-16.03633
862.745	11.02587
863.145	-3.00659
863.544	62.14919
863.944	8.01766
864.344	6.01387
864.743	50.11628
865.143	39.09468
865.542	-29.06323
865.941	62.14527
866.34	37.08304
866.74	-4.01028
867.139	-7.01598
867.537	-27.0652
867.936	45.10182
868.335	45.10896
868.734	15.03685
869.132	11.02418
869.531	5.01135
869.929	20.04314
870.327	-18.04085
870.726	1.00235
871.124	6.013
871.522	-47.11354
871.92	27.06248
872.318	35.08058
872.715	-1.00233
873.113	-18.04175
873.511	23.05422
873.908	26.06384
874.306	-13.03088
874.703	21.04947
875.1	-32.07758
875.497	-57.12934
875.894	33.07767
876.291	-24.05648
876.688	1.00245
877.085	20.04473
877.482	-2.0047
877.878	6.01367
878.275	-26.06278
878.671	-45.0912
879.068	-5.01135
879.464	41.09307
879.86	5.0113
880.256	5.01147
880.652	-9.02175
881.048	-37.08607
881.444	13.02854
881.84	-6.01441
882.236	15.03576
882.631	37.08546
883.027	-3.00672
883.422	-3.00728
883.817	-18.04374
884.213	7.01711
884.608	-3.00706
885.003	16.03645
885.398	-33.07885
885.793	18.04244
886.188	-6.01437
886.582	25.05928
886.977	11.02442
887.371	0
887.766	11.02617
888.16	57.13348
888.554	-27.06256
888.949	10.02333
889.343	-39.08914
889.737	16.04149
890.131	-23.05529
890.525	45.10801
890.918	14.03369
891.312	0
891.706	81.20186
892.099	4.00961
892.492	31.06167
892.886	23.05251
893.279	42.10099
893.672	14.03394
894.065	15.03529
894.458	-11.02621
894.851	3.0068
895.244	24.05814
895.637	49.11051
896.029	21.04829
896.422	33.07515
896.814	-2.00472
897.206	4.0091
897.599	11.02498
897.991	18.0411
898.383	-9.01992
898.775	34.07084
899.167	-9.02003
899.559	0
899.951	16.03518
900.342	-15.03557
900.734	25.06005
901.125	17.04192
901.517	-13.03044
901.908	15.03332
902.299	-8.01862
902.69	-12.02674
903.082	26.05896
903.473	59.13339
903.863	46.11199
904.254	10.0216
904.645	27.06211
905.036	8.01861
905.426	-30.06237
905.817	-7.01624
906.207	-12.02719
906.597	15.03303
906.987	-18.04384
907.378	-7.0167
907.768	11.02786
908.158	5.01153
908.547	12.0296
908.937	37.08908
909.327	-3.00683
909.717	12.02848
910.106	20.0451
910.495	60.14108
910.885	-26.06154
911.274	10.02377
911.663	46.11094
912.052	46.10508
912.441	37.08972
912.83	17.03614
913.219	-22.0543
913.608	2.00462
913.997	-57.13692
914.385	-16.03555
914.774	-15.03435
915.162	-49.11033
915.55	42.09493
915.939	-16.03866
916.327	27.06335
916.715	22.05364
917.103	-10.02304
917.491	-47.10898
917.878	8.01817
918.266	13.03193
918.654	49.11949
919.041	22.05464
919.429	-8.01788
919.816	46.10888
920.203	-35.08074
920.591	32.07386
920.978	29.06634
921.365	-47.11794
921.752	48.10721
922.139	24.04852
922.525	-53.12114
922.912	-8.01833
923.299	-8.01896
923.685	5.01243
924.072	14.02965
924.458	-67.15923
924.844	-21.04927
925.231	-37.08068
925.617	5.0123
926.003	0
926.389	6.0145
926.774	-4.00968
927.16	44.10176
927.546	6.01462
927.931	15.03528
928.317	-38.08073
928.702	-30.06632
929.088	-18.0404
929.473	-21.05102
929.858	-19.04449
930.243	6.01366
930.628	8.01825
931.013	26.06156
931.398	15.03173
931.783	12.03002
932.167	-39.09004
932.552	-37.08695
932.937	-15.03462
933.321	-41.09774
933.705	51.12228
934.09	-8.01883
934.474	55.12094
934.858	15.03714
935.242	43.09428
935.626	-41.09994
936.009	15.03796
936.393	46.11132
936.777	29.0709
937.16	-33.08104
937.544	-18.03969
937.927	17.04099
938.311	2.00455
938.694	-1.00252
939.077	-41.09228
939.46	68.15596
939.843	-20.03785
940.226	-14.03398
940.609	-34.07308
940.991	14.03374
941.374	-64.14849
941.757	38.08754
942.139	-57.11964
942.522	2.00436
942.904	9.0204
943.286	-31.0743
943.668	25.06124
944.05	9.02088
944.432	26.06061
944.814	-3.0069
945.196	-28.06579
945.578	-5.01137
945.959	35.07658
946.341	22.0495
946.722	2.00442
947.104	-9.02006
947.485	10.02167
947.866	23.05527
948.247	2.00479
948.628	15.03406
949.009	-10.02448
949.39	-11.02536
949.771	20.04292
950.152	6.01398
950.532	37.08851
950.913	-22.04948
951.293	39.10126
951.674	-20.0453
952.054	-11.02595
952.434	-40.09365
952.814	-55.12181
953.194	6.01498
953.574	-11.02517
953.954	21.04666
954.334	31.07311
954.714	-38.08841
955.093	-4.00914
955.473	-53.12562
955.853	37.09093
956.232	2.00525
956.611	0
956.99	42.09972
957.37	39.09358
957.749	-12.02664
958.128	37.08881
958.506	44.10888
958.885	-48.11515
959.264	0
959.643	40.08446
960.021	-2.0047
960.4	25.05349
960.778	-37.08471
961.156	8.01895
961.535	-56.12032
961.913	-20.04293
962.291	1.00247
962.669	5.01205
963.047	-22.05272
963.424	8.01945
963.802	-36.08313
964.18	7.0166
964.557	6.01265
964.935	5.01104
965.312	40.0992
965.69	-11.02591
966.067	11.02494
966.444	48.11035
966.821	20.04843
967.198	7.01566
967.575	-5.01145
967.952	41.08982
968.329	-45.10352
968.705	-7.01363
969.082	4.00982
969.458	17.03886
969.835	19.04327
970.211	2.00488
970.587	34.07945
970.963	-3.00729
971.339	28.06999
971.715	-25.0582
972.091	17.0392
972.467	-32.07439
972.843	1.00235
973.219	-8.01774
973.594	11.0274
973.97	-23.05077
974.345	9.02018
974.721	27.06067
975.096	-60.13673
975.471	11.02451
975.846	24.05443
976.221	-6.0145
976.596	-11.02488
976.971	19.04411
977.346	-23.04949
977.72	-6.01447
978.095	45.10998
978.469	26.0581
978.844	-1.00237
979.218	9.02048
979.593	-11.02486
979.967	57.13023
980.341	3.00639
980.715	-14.03325
981.089	-2.00468
981.463	26.05625
981.837	25.05788
982.21	8.01718
982.584	-19.04306
982.957	2.00477
983.331	50.10965
983.704	24.05584
984.078	5.01153
984.451	-59.13659
984.824	-5.01161
985.197	-44.10104
985.57	-51.12074
985.943	-27.06169
986.316	38.08712
986.688	-22.04979
987.061	-16.03479
987.434	0
987.806	19.04287
988.179	-46.10194
988.551	-29.0694
988.923	-25.05811
989.295	-23.0543
989.667	12.02754
990.039	-6.0141
990.411	27.05837
990.783	-2.00427
991.155	45.10269
991.527	1.00226
991.898	-8.01872
992.27	-16.03759
992.641	29.06788
993.012	68.14893
993.384	-1.00224
993.755	-37.08952
994.126	2.00453
994.497	-16.03711
994.868	2.00431
995.239	19.04346
995.61	-31.07398
995.98	7.01619
996.351	-6.01419
996.722	25.05454
997.092	1.00225
997.462	-33.07382
997.833	23.05056
998.203	7.01581
998.573	-1.00238
998.943	-46.10066
999.313	6.01359
999.683	-60.13546
1000.053	43.09209
1000.423	27.06142
1000.792	21.05165
1001.162	36.08359
1001.531	33.07679
1001.901	-33.07773
1002.27	23.04791
1002.639	-2.00487
1003.009	16.03618
1003.378	-15.03658
1003.747	10.02199
1004.116	4.00906
1004.485	-18.04085
1004.853	4.0096
1005.222	30.07205
1005.591	20.0439
1005.959	31.06579
1006.328	9.01875
1006.696	28.06375
1007.064	13.03091
1007.433	35.0826
1007.801	2.00458
1008.169	-53.12683
1008.537	48.0981
1008.905	-6.01318
1009.273	-4.00931
1009.64	6.01353
1010.008	31.06866
1010.375	36.08134
1010.743	22.04592
1011.11	-18.04027
1011.478	16.03714
1011.845	-33.07183
1012.212	-11.02299
1012.579	-13.03028
1012.946	-1.00219
1013.313	12.02659
1013.68	49.1004
1014.047	-13.02969
1014.414	10.02236
1014.78	-1.00237
1015.147	-38.08554
1015.513	46.10512
1015.88	6.01428
1016.246	28.06499
1016.612	-3.00633
1016.978	20.04578
1017.344	37.08678
1017.71	-53.11992
1018.076	62.13459
1018.442	-16.03895
1018.808	-11.02609
1019.174	-12.02834
1019.539	31.06383
1019.905	1.00223
1020.27	28.06561
1020.636	12.02686
1021.001	4.00891
1021.366	76.17263
1021.731	4.0098
1022.096	9.02171
1022.461	-68.15094
1022.826	26.05779
1023.191	-2.00501
1023.556	-10.02162
1023.92	-23.0528
1024.285	12.02735
1024.649	21.04831
1025.014	-3.007
1025.378	36.0861
1025.742	13.03035
1026.107	-13.02706
1026.471	-33.0707
1026.835	-20.04639
1027.199	20.04543
1027.562	26.05661
1027.926	1.00229
1028.29	-6.01445
1028.654	29.06111
1029.017	26.06016
1029.381	31.06954
1029.744	47.11354
1030.107	-13.02827
1030.471	-8.01792
1030.834	-31.06481
1031.197	-4.00889
1031.56	14.03126
1031.923	40.09734
1032.286	48.10349
1032.648	-2.00445
1033.011	-24.0519
1033.374	-28.06088
1033.736	-14.03512
1034.099	21.04831
1034.461	26.06256
1034.823	-50.11807
1035.185	-48.11335
1035.548	17.03868
1035.91	18.0407
1036.272	28.05912
1036.634	-11.02499
1036.995	71.15573
1037.357	-5.0115
1037.719	37.08385
1038.08	-1.00218
1038.442	53.11948
1038.803	-6.01342
1039.165	31.07376
1039.526	25.05657
1039.887	-7.01588
1040.248	21.04981
1040.609	16.03705
1040.97	1.0023
1041.331	-68.16188
1041.692	15.03304
1042.053	-8.01679
1042.413	-25.05396
1042.774	4.00908
1043.134	-11.02425
1043.495	-23.05441
1043.855	21.04775
1044.215	12.02792
1044.576	-2.00454
1044.936	22.04708
1045.296	29.06746
1045.656	45.10294
1046.016	-30.06737
1046.375	-3.00692
1046.735	1.00215
1047.095	41.08921
1047.454	21.04065
1047.814	-13.02916
1048.173	-11.02416
1048.533	0
1048.892	11.02501
1049.251	1.00237
1049.61	-52.12031
1049.969	42.09276
1050.328	-29.05756
1050.687	28.06355
1051.046	35.08039
1051.405	-43.10022
1051.763	5.0108
1052.122	34.08057
1052.48	-27.06221
1052.839	7.01544
1053.197	25.05493
1053.555	-51.10497
1053.914	26.0592
1054.272	-5.01131
1054.63	-53.12246
1054.988	-38.08509
1055.345	-26.05126
1055.703	21.04668
1056.061	-24.05891
1056.419	-16.03969
1056.776	32.07201
1057.134	12.02578
1057.491	8.01882
1057.848	-6.014
1058.206	-13.02862
1058.563	28.05762
1058.92	-3.00637
1059.277	7.01591
1059.634	-47.10192
1059.991	51.11398
1060.348	-12.02562
1060.704	-39.08821
1061.061	-18.03814
1061.418	6.01378
1061.774	53.12411
1062.131	43.11018
1062.487	-23.05009
1062.843	31.07237
1063.199	13.03066
1063.555	-14.0307
1063.911	13.03081
1064.267	12.02221
1064.623	-7.01623
1064.979	-62.1351
1065.335	-8.0176
1065.691	28.06329
1066.046	10.02009
1066.402	-41.08746
1066.757	11.02624
1067.112	-59.13605
1067.468	27.06064
1067.823	-4.00907
1068.178	20.04559
1068.533	-14.03167
1068.888	25.05497
1069.243	29.06748
1069.598	-59.13393
1069.952	57.12065
1070.307	14.03324
1070.662	46.1019
1071.016	24.05039
1071.371	-28.05938
1071.725	-3.00653
1072.079	23.05153
1072.434	-2.00456
1072.788	21.04709
1073.142	68.15696
1073.496	-11.02454
1073.85	12.02584
1074.203	-6.01362
1074.557	-29.07452
1074.911	-3.00662
1075.265	25.05319
1075.618	57.12997
1075.971	-14.03109
1076.325	38.09088
1076.678	15.03192
1077.031	-13.02738
1077.385	16.03282
1077.738	24.05034
1078.091	7.01509
1078.444	-27.0579
1078.796	15.03485
1079.149	-27.06271
1079.502	-26.05805
1079.855	-17.03745
1080.207	14.03226
1080.56	3.00735
1080.912	12.0269
1081.264	-24.05447
1081.617	-40.09277
1081.969	41.0992
1082.321	22.05038
1082.673	-13.02819
1083.025	-38.08425
1083.377	-26.05077
1083.728	-26.05565
1084.08	-13.03094
1084.432	-53.11826
1084.783	45.09875
1085.135	20.04796
1085.486	-15.03247
1085.838	-9.02093
1086.189	7.01594
1086.54	-5.0112
1086.891	18.04362
1087.242	4.00907
1087.593	7.01582
1087.944	5.01047
1088.295	-3.00626
1088.646	-7.01601
1088.996	-38.08649
1089.347	-22.05064
1089.698	-14.03148
1090.048	-38.09348
1090.398	50.1078
1090.749	5.01125
1091.099	22.05276
1091.449	-18.04209
1091.799	28.06563
1092.149	21.04933
1092.499	42.09602
1092.849	23.05523
1093.199	0
1093.548	1.00227
1093.898	18.04252
1094.248	-4.00974
1094.597	-28.06931
1094.947	-23.05863
1095.296	2.00463
1095.645	1.00246
1095.994	37.08331
1096.343	34.08141
1096.692	-34.08665
1097.041	-12.03143
1097.39	10.02354
1097.739	13.03219
1098.088	-17.043
1098.437	-49.12446
1098.785	-3.00768
1099.134	5.01244
1099.482	-31.08132
1099.83	8.01987
1100.179	21.05281
1100.527	-18.04535
1100.875	-46.11686
1101.223	36.09142
1101.571	2.00533
1101.919	-18.04544
1102.267	38.10372
1102.615	8.0257
1102.962	9.02886
1103.31	12.0385
1103.658	8.02562
