Data from N3 R5 sample 7_Subt2__3__13-32-18-613.txt Node

Date: Thu Sep 18 13:32:18 PDT 2025
User: uwsun
Spectrometer: HDX01956
Trigger mode: 0
Integration Time (sec): 5.000000E-1
Scans to average: 1
Nonlinearity correction enabled: true
Boxcar width: 0
Storing dark spectrum: false
XAxis mode: Wavelengths
Number of Pixels in Spectrum: 2068
>>>>>Begin Spectral Data<<<<<
194.03	-1.0029
194.578	8.026
195.127	10.03206
195.676	-5.01604
196.225	2.00528
196.773	15.04181
197.321	11.03067
197.87	28.07224
198.418	63.16312
198.966	75.19721
199.513	39.09983
200.061	10.02554
200.609	32.08453
201.156	12.02605
201.704	-1.00253
202.251	47.12458
202.798	37.0967
203.345	65.16022
203.892	2.00507
204.438	51.12167
204.985	27.06464
205.532	32.08631
206.078	43.10572
206.624	49.1214
207.17	65.14988
207.716	-20.04871
208.262	-3.00595
208.808	10.02509
209.354	-25.06165
209.899	36.09042
210.445	36.09061
210.99	-16.03918
211.535	61.14245
212.08	31.07191
212.625	21.05266
213.17	34.08585
213.715	40.09023
214.259	73.16981
214.804	8.01972
215.348	-21.04846
215.892	28.06755
216.436	72.16626
216.98	34.07428
217.524	10.02373
218.068	42.10541
218.612	-10.02509
219.155	16.03767
219.698	-3.0071
220.242	27.06692
220.785	41.0956
221.328	27.06729
221.871	35.08814
222.414	-10.02463
222.956	8.01942
223.499	7.01574
224.041	26.0593
224.583	30.06379
225.126	63.13964
225.668	29.07038
226.21	17.04266
226.751	-43.09372
227.293	-7.01584
227.835	27.06533
228.376	20.04541
228.918	49.12238
229.459	48.12021
230	-5.0119
230.541	17.03872
231.082	5.01212
231.622	43.09817
232.163	55.13337
232.704	17.0419
233.244	-18.04477
233.784	-18.04377
234.324	72.15823
234.864	22.04932
235.404	20.04677
235.944	34.07907
236.484	0
237.023	47.11045
237.563	37.08467
238.102	64.14896
238.641	46.1162
239.18	11.02586
239.719	69.17239
240.258	31.0686
240.797	36.08597
241.335	27.06468
241.874	71.13513
242.412	24.05707
242.95	37.08868
243.488	27.06124
244.026	43.09856
244.564	58.11719
245.102	56.12425
245.64	28.06674
246.177	1.00222
246.715	26.06118
247.252	-7.01586
247.789	-89.16065
248.326	-10.0238
248.863	0
249.4	76.17179
249.936	9.01835
250.473	67.1545
251.009	39.0895
251.546	45.09854
252.082	34.0745
252.618	66.14614
253.154	36.0858
253.69	13.02903
254.226	51.11985
254.761	2.00441
255.297	66.14284
255.832	-10.02353
256.367	0
256.903	10.02169
257.438	8.01849
257.972	-33.07308
258.507	71.16241
259.042	22.04631
259.576	-7.01514
260.111	20.04567
260.645	56.1199
261.179	43.0986
261.713	38.08302
262.247	72.1652
262.781	10.02105
263.315	22.05366
263.849	8.01996
264.382	18.04082
264.915	20.04697
265.449	-18.04425
265.982	10.02233
266.515	27.06547
267.048	4.00849
267.58	7.01493
268.113	34.07343
268.646	31.07672
269.178	-36.08097
269.71	11.02374
270.243	37.08351
270.775	38.09606
271.307	-3.00709
271.838	35.08161
272.37	38.09313
272.902	41.09292
273.433	-9.01952
273.965	67.1629
274.496	-12.0295
275.027	5.01231
275.558	-1.00242
276.089	32.07994
276.62	13.03276
277.15	25.06108
277.681	-28.05974
278.211	-8.01942
278.741	35.07735
279.272	16.03642
279.802	53.13131
280.332	-7.01655
280.861	42.1001
281.391	33.07388
281.921	-16.03802
282.45	57.14262
282.98	40.10391
283.509	41.09114
284.038	-18.04035
284.567	-16.03664
285.096	36.08653
285.625	16.03673
286.153	-16.03746
286.682	-12.02726
287.21	-13.0313
287.739	10.02337
288.267	0
288.795	31.08079
289.323	57.13374
289.851	46.10605
290.378	0
290.906	8.0195
291.433	20.04974
291.961	30.06698
292.488	37.09154
293.015	32.07562
293.542	26.0653
294.069	40.09756
294.596	38.0932
295.122	40.09486
295.649	101.22023
296.175	33.07828
296.702	10.02391
297.228	4.00954
297.754	24.05345
298.28	16.03608
298.806	46.11043
299.332	30.06598
299.857	32.07145
300.383	24.05987
300.908	40.09749
301.433	55.13317
301.958	11.02486
302.483	75.18759
303.008	24.05856
303.533	-25.0642
304.058	52.12074
304.582	10.02367
305.107	-9.02373
305.631	38.08512
306.155	42.09822
306.679	68.15765
307.203	84.19258
307.727	76.17912
308.251	2.00493
308.775	30.07079
309.298	31.07469
309.822	27.0678
310.345	66.15464
310.868	-14.03359
311.391	9.02208
311.914	11.02763
312.437	32.07183
312.96	73.17075
313.482	43.10176
314.005	37.09248
314.527	30.07879
315.049	24.06006
315.571	39.08853
316.093	68.16789
316.615	39.09443
317.137	-4.00865
317.659	44.10479
318.18	43.10337
318.702	48.11119
319.223	3.00617
319.744	56.12534
320.265	37.08982
320.786	27.06685
321.307	89.21978
321.828	25.05705
322.348	77.18038
322.869	-10.02336
323.389	-11.02079
323.909	70.15932
324.43	15.03584
324.95	40.09181
325.47	60.14732
325.989	127.29949
326.509	52.11461
327.029	55.12343
327.548	25.05664
328.067	52.1247
328.587	60.1489
329.106	8.01819
329.625	29.07465
330.144	21.04802
330.662	48.11097
331.181	62.14453
331.7	93.21454
332.218	145.30999
332.736	62.14288
333.255	50.11587
333.773	64.1509
334.291	14.03458
334.808	9.01999
335.326	98.2188
335.844	82.19131
336.361	61.1534
336.879	93.21402
337.396	76.17954
337.913	41.09356
338.43	72.16261
338.947	46.10943
339.464	66.14058
339.981	60.1424
340.497	115.2798
341.014	35.08443
341.53	86.19439
342.046	105.25509
342.562	91.22389
343.078	88.20409
343.594	117.27677
344.11	104.24311
344.626	124.30874
345.141	135.30446
345.657	99.21861
346.172	75.17817
346.687	102.23215
347.202	99.21962
347.717	158.3689
348.232	112.27653
348.747	72.16434
349.261	182.39473
349.776	120.27533
350.29	125.30527
350.805	132.31689
351.319	121.2779
351.833	132.29654
352.347	106.24145
352.861	126.28886
353.374	118.26443
353.888	110.25955
354.401	170.37939
354.915	120.26681
355.428	139.33997
355.941	161.36739
356.454	147.32175
356.967	130.30257
357.48	134.30029
357.993	123.29669
358.505	108.26331
359.018	136.32177
359.53	109.25734
360.042	113.24263
360.554	107.2535
361.066	129.30657
361.578	156.33474
362.09	122.28552
362.602	154.3313
363.113	94.21152
363.625	159.35227
364.136	134.2879
364.647	110.25249
365.158	173.39302
365.669	211.49563
366.18	109.24643
366.691	178.38095
367.201	130.30186
367.712	119.26168
368.222	195.43797
368.733	184.39124
369.243	125.26747
369.753	160.35678
370.263	129.29793
370.773	199.47546
371.282	201.45885
371.792	139.3095
372.301	157.37023
372.811	164.4141
373.32	170.34934
373.829	197.45244
374.338	205.43864
374.847	166.36709
375.356	228.52311
375.865	221.44952
376.373	199.43446
376.882	231.55865
377.39	234.54074
377.898	273.6445
378.407	232.49243
378.915	284.57332
379.423	304.67589
379.93	281.59656
380.438	305.7024
380.946	304.66803
381.453	329.73647
381.96	352.77511
382.468	401.87651
382.975	428.96098
383.482	440.89639
383.989	429.00422
384.495	464.96505
385.002	449.84755
385.509	461.96543
386.015	586.02229
386.521	563.09184
387.028	556.09854
387.534	611.12364
388.04	643.296
388.546	628.17901
389.051	651.19796
389.557	660.28977
390.063	832.55897
390.568	725.42403
391.073	835.49968
391.578	885.68496
392.084	805.41093
392.589	938.56448
393.093	948.69921
393.598	1079.78337
394.103	1179.00079
394.607	1249.04649
395.112	1379.27463
395.616	1437.25047
396.12	1631.24596
396.624	1692.30687
397.128	1875.48219
397.632	2017.39282
398.136	2300.44783
398.639	2504.56402
399.143	2744.74344
399.646	3061.32184
400.15	3354.07633
400.653	3720.77584
401.156	4219.09367
401.659	4973.85025
402.162	6136.15193
402.664	8084.69699
403.167	12006.49785
403.67	23606.58745
404.172	51084.76048
404.674	37291.05854
405.176	4428.40989
405.678	533.47942
406.18	0
406.682	0
407.184	6962.89417
407.686	50953.82939
408.187	34721.64603
408.688	20281.8652
409.19	13988.04026
409.691	11310.93107
410.192	9392.57013
410.693	8229.20292
411.194	7453.70585
411.694	7028.33197
412.195	6459.27051
412.696	5773.16567
413.196	5477.8524
413.696	5336.53528
414.196	5306.08149
414.696	5162.70746
415.196	4810.6949
415.696	4419.85347
416.196	3674.76009
416.695	2828.37919
417.195	2423.54779
417.694	2253.87475
418.194	2157.00851
418.693	2071.34375
419.192	2010.49999
419.691	1902.45365
420.19	1865.46216
420.688	1838.58878
421.187	1749.89449
421.685	1615.26198
422.184	1496.21721
422.682	1307.89978
423.18	1175.91394
423.678	969.65574
424.176	952.64271
424.674	795.35984
425.172	806.49235
425.669	759.51964
426.167	687.29601
426.664	633.19338
427.161	582.11344
427.659	589.22889
428.156	548.9836
428.652	484.07041
429.149	455.97139
429.646	408.78734
430.143	407.87081
430.639	380.80584
431.135	383.84884
431.632	335.69071
432.128	353.77291
432.624	293.68446
433.12	328.68343
433.616	288.57418
434.111	271.5989
434.607	250.55445
435.103	226.43381
435.598	241.45802
436.093	214.46235
436.588	219.45886
437.083	214.44907
437.578	204.43376
438.073	192.44581
438.568	184.42149
439.062	194.38678
439.557	162.356
440.051	142.30496
440.546	192.41234
441.04	84.18979
441.534	122.29578
442.028	172.38846
442.522	151.34444
443.015	139.28737
443.509	158.3673
444.002	134.31287
444.496	90.18478
444.989	141.32979
445.482	96.22793
445.975	154.33344
446.468	83.17129
446.961	55.11238
447.454	69.14777
447.947	138.31574
448.439	151.35179
448.931	123.26467
449.424	50.11967
449.916	75.17267
450.408	116.2546
450.9	82.1907
451.392	103.25014
451.884	30.06573
452.375	42.10006
452.867	47.10205
453.358	16.03488
453.849	72.14622
454.341	72.15616
454.832	65.13487
455.323	91.21301
455.814	94.20483
456.304	42.09296
456.795	36.07858
457.285	32.06795
457.776	52.11144
458.266	47.10864
458.756	21.04823
459.247	43.09828
459.737	69.15981
460.226	65.14041
460.716	54.12479
461.206	11.02529
461.695	70.16927
462.185	63.14365
462.674	3.00662
463.163	35.07398
463.653	24.04892
464.142	9.02092
464.63	56.13127
465.119	87.19436
465.608	29.0642
466.096	58.12155
466.585	31.06794
467.073	32.07304
467.561	35.0826
468.05	13.02893
468.538	56.13398
469.026	81.18685
469.513	42.08514
470.001	28.0612
470.489	40.09119
470.976	46.10211
471.463	39.09471
471.951	74.17739
472.438	61.13813
472.925	-16.03612
473.412	22.05169
473.899	31.06906
474.385	27.06412
474.872	-24.05447
475.359	8.01898
475.845	2.00402
476.331	27.0559
476.817	10.02338
477.303	31.06948
477.789	35.08125
478.275	13.03143
478.761	5.01164
479.247	24.05154
479.732	46.11161
480.218	47.11815
480.703	66.15995
481.188	-12.02488
481.673	25.05562
482.158	-5.01047
482.643	28.0689
483.128	-13.02875
483.612	-41.09345
484.097	31.07319
484.581	-1.00222
485.066	-7.01648
485.55	-6.01269
486.034	26.05507
486.518	39.08875
487.002	5.01193
487.486	0
487.969	39.09351
488.453	44.1078
488.936	-5.01092
489.42	34.07277
489.903	-5.01229
490.386	22.04582
490.869	-19.03958
491.352	11.02593
491.835	-41.08184
492.318	-23.05115
492.8	-39.07813
493.283	22.05482
493.765	-3.00724
494.247	-23.05194
494.73	-1.00215
495.212	-25.05877
495.694	19.04311
496.175	-39.09118
496.657	63.14574
497.139	-9.01446
497.62	15.03489
498.102	-9.02196
498.583	-71.1734
499.064	18.03954
499.545	8.01771
500.026	-40.08787
500.507	-43.09686
500.988	-20.04812
501.469	-56.13735
501.949	-1.00238
502.43	-53.12372
502.91	-26.05229
503.39	-3.00731
503.87	-15.03463
504.35	-35.07987
504.83	-46.09917
505.31	-29.06929
505.79	-46.10833
506.269	-33.07497
506.749	-69.1553
507.228	8.01828
507.707	-22.04759
508.187	-40.09284
508.666	-50.12022
509.145	-45.10335
509.623	-24.05504
510.102	-41.09714
510.581	-81.19139
511.059	31.07627
511.538	-36.09113
512.016	9.02108
512.494	-39.09211
512.972	-41.09673
513.45	-19.04373
513.928	-48.11493
514.406	8.01924
514.884	-9.02298
515.361	-52.12413
515.839	-48.10721
516.316	-49.11524
516.793	-37.09174
517.27	-43.1031
517.747	-84.21445
518.224	-55.12465
518.701	-21.04595
519.178	-2.00495
519.654	-66.15149
520.131	-93.22619
520.607	-25.06076
521.083	-27.06089
521.56	-77.17925
522.036	9.01929
522.512	-12.02891
522.987	2.0047
523.463	-20.04683
523.939	-4.00957
524.414	-10.02235
524.89	-38.08792
525.365	-44.09917
525.84	27.06417
526.315	-70.16568
526.79	-11.02403
527.265	-85.18974
527.74	-36.0861
528.215	-17.0394
528.689	-13.02859
529.164	-57.11938
529.638	-6.01514
530.112	-20.0469
530.587	20.04204
531.061	-18.04284
531.534	-3.00705
532.008	-46.10964
532.482	-98.2188
532.956	0
533.429	-104.24416
533.903	-13.02779
534.376	-81.17684
534.849	-7.01594
535.322	-44.10229
535.795	-43.10345
536.268	-26.06185
536.741	-49.11582
537.213	-43.09821
537.686	-71.17016
538.158	-56.12431
538.631	-44.10443
539.103	-57.12618
539.575	-16.03245
540.047	-40.08616
540.519	-94.2212
540.991	-94.22636
541.463	-38.09102
541.934	-9.02021
542.406	-26.06109
542.877	-59.13116
543.348	-128.30144
543.82	-16.03831
544.291	-49.11069
544.762	-59.138
545.233	-1.00248
545.703	-65.14305
546.174	-22.05048
546.645	-19.04552
547.115	-48.11453
547.585	-34.07801
548.056	-4.00965
548.526	-16.03708
548.996	-72.17154
549.466	-40.09548
549.935	8.01885
550.405	-39.08533
550.875	-69.16139
551.344	-8.01899
551.814	-103.23229
552.283	-39.08276
552.752	-60.138
553.221	-103.22373
553.69	-73.16181
554.159	-16.0393
554.628	-83.18451
555.096	-41.10251
555.565	-7.01522
556.033	-42.09695
556.502	-47.11196
556.97	-82.17952
557.438	-62.14539
557.906	-52.12165
558.374	-64.14508
558.842	-27.06357
559.31	-62.13608
559.777	-54.12984
560.245	-86.19795
560.712	-97.21939
561.18	-45.09758
561.647	-58.12735
562.114	-74.1674
562.581	-66.16176
563.048	-88.1985
563.514	-71.17378
563.981	-64.14407
564.448	-48.10659
564.914	-49.11195
565.381	-119.2664
565.847	-35.0801
566.313	-66.15125
566.779	-55.12384
567.245	-79.18369
567.711	-33.07843
568.176	-23.05215
568.642	-44.10987
569.108	-72.17587
569.573	-107.24771
570.038	-54.11302
570.504	-28.06264
570.969	-92.22881
571.434	-31.06771
571.899	-78.18562
572.363	-93.21051
572.828	-62.13911
573.293	-52.11816
573.757	-27.06149
574.222	-49.10979
574.686	-128.29097
575.15	-74.17576
575.614	-80.18208
576.078	-103.2411
576.542	-35.07903
577.006	-62.13991
577.469	-84.2048
577.933	-94.20848
578.396	-23.05447
578.86	-53.1226
579.323	-60.1418
579.786	-100.21467
580.249	-94.21464
580.712	-102.24674
581.175	-86.2114
581.637	-29.06639
582.1	-81.17527
582.563	-126.26278
583.025	-60.14421
583.487	-96.19211
583.95	-86.18485
584.412	-66.13587
584.874	-77.18496
585.336	-82.19386
585.797	-91.19505
586.259	-107.24673
586.721	-52.12079
587.182	-75.1706
587.643	-36.08018
588.105	-19.04428
588.566	-30.06193
589.027	12.02856
589.488	-55.12303
589.949	-37.08712
590.41	-49.09549
590.87	-60.13213
591.331	-57.11901
591.791	-26.058
592.252	-47.106
592.712	-8.01874
593.172	2.00438
593.632	-56.11705
594.092	20.04314
594.552	-21.04375
595.011	29.06511
595.471	22.04759
595.931	6.01295
596.39	47.10911
596.849	53.11845
597.308	86.17672
597.768	47.11581
598.227	26.06078
598.685	82.17648
599.144	106.23559
599.603	127.28501
600.062	82.16272
600.52	120.2546
600.978	157.35407
601.437	176.3752
601.895	124.24779
602.353	93.19357
602.811	193.39758
603.269	192.42725
603.727	226.50332
604.184	265.54885
604.642	267.6009
605.099	289.60953
605.557	257.57057
606.014	277.54134
606.471	406.92431
606.928	449.88373
607.385	397.88792
607.842	476.97061
608.299	475.96879
608.755	488.03023
609.212	537.03438
609.668	582.10753
610.125	569.17291
610.581	602.18459
611.037	596.14358
611.493	640.26186
611.949	617.26802
612.405	774.24502
612.861	685.31246
613.316	748.48965
613.772	715.35685
614.227	744.44871
614.683	799.36158
615.138	772.50402
615.593	790.47213
616.048	794.43793
616.503	812.62477
616.958	781.61851
617.412	809.55122
617.867	813.46307
618.321	812.27757
618.776	797.40566
619.23	882.66664
619.684	820.45648
620.138	779.42326
620.592	749.4913
621.046	762.44655
621.5	739.4775
621.954	751.35541
622.407	753.34725
622.861	632.27467
623.314	710.32737
623.768	692.34091
624.221	642.03855
624.674	613.17088
625.127	648.26928
625.58	616.13996
626.033	661.17623
626.485	583.18458
626.938	633.25534
627.39	629.22822
627.843	546.06562
628.295	575.12898
628.747	556.1304
629.199	578.125
629.651	504.99129
630.103	484.96899
630.555	514.91259
631.006	460.94012
631.458	464.93754
631.909	517.00486
632.361	414.83882
632.812	489.9833
633.263	441.81164
633.714	423.77069
634.165	427.89107
634.616	436.90319
635.067	420.79611
635.518	391.81088
635.968	459.77625
636.419	418.77646
636.869	385.80307
637.319	421.85281
637.769	452.88398
638.219	401.82939
638.669	440.92736
639.119	455.96718
639.569	440.94568
640.019	432.86808
640.468	402.77241
640.918	462.96731
641.367	492.95219
641.816	498.96011
642.265	474.95072
642.714	461.93682
643.163	460.90304
643.612	502.06355
644.061	492.87896
644.51	468.93262
644.958	491.92776
645.406	535.10914
645.855	506.07251
646.303	542.07333
646.751	506.00004
647.199	500.95842
647.647	539.0771
648.095	512.00198
648.543	557.92984
648.99	598.22146
649.438	607.20538
649.885	593.26789
650.333	523.82476
650.78	657.36248
651.227	551.16526
651.674	562.09276
652.121	526.08923
652.568	542.13794
653.015	526.1305
653.461	514.05816
653.908	533.06163
654.354	470.96447
654.801	515.04761
655.247	550.01251
655.693	514.17982
656.139	496.03066
656.585	544.12657
657.031	500.02421
657.477	494.92543
657.922	485.9802
658.368	454.98248
658.813	447.88352
659.259	464.98395
659.704	483.99047
660.149	418.86048
660.594	404.85449
661.039	462.92623
661.484	417.88333
661.929	410.84553
662.373	427.97779
662.818	495.08772
663.262	378.81209
663.707	363.8276
664.151	438.96242
664.595	372.80849
665.039	354.7916
665.483	378.87898
665.927	374.78065
666.371	350.73704
666.814	335.7205
667.258	399.85444
667.701	371.69206
668.145	385.85541
668.588	362.80515
669.031	370.78977
669.474	351.76075
669.917	390.75658
670.36	361.80342
670.803	361.77975
671.245	401.73282
671.688	383.83257
672.13	325.65232
672.573	347.80548
673.015	283.61835
673.457	338.66415
673.899	309.6763
674.341	351.76237
674.783	371.80512
675.225	298.66887
675.666	357.77903
676.108	342.66631
676.549	362.76365
676.991	299.59098
677.432	356.61231
677.873	346.7142
678.314	322.69418
678.755	362.79947
679.196	344.71294
679.637	358.77873
680.078	312.65703
680.518	314.64582
680.959	361.77508
681.399	299.67153
681.839	338.74242
682.28	355.7976
682.72	263.54592
683.16	335.7607
683.6	382.77009
684.039	325.59662
684.479	319.71379
684.919	330.69524
685.358	330.75709
685.798	305.72951
686.237	349.75577
686.676	381.78167
687.115	393.81976
687.554	347.73956
687.993	324.62823
688.432	387.79326
688.871	369.74405
689.309	410.89599
689.748	377.6886
690.186	362.76365
690.625	434.91472
691.063	400.8649
691.501	407.90015
691.939	407.90878
692.377	369.81135
692.815	450.96217
693.253	358.76118
693.69	381.73682
694.128	432.94087
694.565	403.85666
695.003	437.99265
695.44	408.84481
695.877	458.9496
696.314	470.86308
696.751	388.77463
697.188	435.88358
697.625	481.94181
698.061	449.95027
698.498	464.98266
698.934	446.93505
699.371	434.90748
699.807	509.04432
700.243	529.11671
700.679	524.01244
701.115	507.01865
701.551	559.13315
701.987	526.99366
702.422	548.11259
702.858	525.06702
703.294	541.03061
703.729	559.1853
704.164	583.20882
704.599	608.11783
705.035	560.06506
705.47	591.2478
705.904	579.13684
706.339	620.18399
706.774	618.20642
707.209	550.07548
707.643	592.20864
708.078	585.21027
708.512	694.49211
708.946	646.28564
709.38	674.31406
709.814	698.29267
710.248	678.35694
710.682	705.40162
711.116	694.39414
711.549	708.5242
711.983	721.34565
712.416	714.36252
712.85	791.62977
713.283	825.56218
713.716	809.64227
714.149	802.51301
714.582	779.39889
715.015	848.69611
715.448	815.64168
715.881	812.34927
716.313	959.75112
716.746	901.67897
717.178	920.72757
717.61	950.91085
718.043	905.77063
718.475	960.79928
718.907	952.85963
719.339	1011.72774
719.77	1021.88334
720.202	997.96463
720.634	1054.97968
721.065	1036.85356
721.497	1141.09761
721.928	1109.07317
722.359	1091.02741
722.79	1145.02954
723.221	1184.18722
723.652	1207.2912
724.083	1195.90879
724.514	1236.9551
724.945	1224.07253
725.375	1260.08804
725.806	1187.13792
726.236	1304.42156
726.666	1301.14283
727.096	1358.32291
727.526	1403.5401
727.956	1382.127
728.386	1496.44133
728.816	1441.56982
729.246	1527.52883
729.675	1544.59974
730.105	1465.44796
730.534	1480.30712
730.964	1500.5564
731.393	1588.53984
731.822	1607.78142
732.251	1653.80927
732.68	1604.33362
733.109	1675.68862
733.537	1673.58351
733.966	1711.71632
734.395	1600.3263
734.823	1789.35344
735.251	1780.66768
735.68	1756.77833
736.108	1720.7963
736.536	1723.52223
736.964	1726.44508
737.392	1724.73795
737.82	1713.56362
738.247	1757.56963
738.675	1743.52572
739.102	1808.89875
739.53	1782.95249
739.957	1780.92517
740.384	1746.66415
740.811	1883.98763
741.238	1788.68301
741.665	1820.59018
742.092	1821.58923
742.519	1725.78516
742.945	1768.6212
743.372	1778.79289
743.798	1756.91692
744.225	1713.53624
744.651	1709.74834
745.077	1758.78311
745.503	1723.62324
745.929	1705.55604
746.355	1706.63583
746.781	1645.65034
747.207	1665.52348
747.632	1592.58495
748.058	1596.60012
748.483	1579.27647
748.908	1641.66744
749.334	1566.54802
749.759	1544.36359
750.184	1567.43494
750.609	1617.56996
751.033	1579.33255
751.458	1632.29551
751.883	1566.55225
752.307	1522.41284
752.732	1437.54565
753.156	1472.47638
753.58	1511.34979
754.005	1508.65493
754.429	1421.19967
754.853	1375.40528
755.277	1402.28304
755.7	1386.39248
756.124	1379.44872
756.548	1302.18522
756.971	1316.25069
757.394	1303.43698
757.818	1319.48629
758.241	1320.38505
758.664	1307.4146
759.087	1251.99762
759.51	1234.23248
759.933	1200.11811
760.356	1263.36426
760.778	1278.31121
761.201	1142.99361
761.623	1115.95295
762.046	1133.89053
762.468	1168.02621
762.89	1156.10463
763.312	1071.94236
763.734	1016.86897
764.156	1052.98365
764.578	981.66824
765	1030.90802
765.421	1029.07357
765.843	979.03835
766.264	954.75117
766.686	963.90998
767.107	969.84159
767.528	946.91761
767.949	910.83535
768.37	829.61562
768.791	872.6445
769.212	832.72238
769.632	690.3071
770.053	834.80102
770.473	825.60629
770.894	755.5158
771.314	768.44451
771.734	727.35285
772.154	733.56017
772.575	740.36651
772.994	705.29559
773.414	729.37741
773.834	676.41847
774.254	603.23085
774.673	654.30944
775.093	626.31285
775.512	618.29148
775.931	630.36598
776.351	559.17188
776.77	584.21386
777.189	575.13482
777.607	529.1718
778.026	582.24139
778.445	534.16889
778.864	526.15619
779.282	509.03303
779.701	476.04392
780.119	467.02092
780.537	417.9134
780.955	533.15859
781.373	479.02203
781.791	470.90656
782.209	477.94238
782.627	438.02833
783.045	416.82745
783.462	412.92317
783.88	438.0063
784.297	416.92292
784.715	406.9437
785.132	356.7622
785.549	369.83381
785.966	341.76332
786.383	361.7951
786.8	366.74564
787.217	324.67959
787.633	311.70077
788.05	287.58856
788.466	327.67422
788.883	285.66786
789.299	278.59444
789.715	340.74115
790.131	275.61408
790.547	264.58404
790.963	247.55771
791.379	273.62847
791.795	261.52967
792.21	256.53436
792.626	254.54125
793.041	277.61164
793.457	228.51008
793.872	281.59214
794.287	286.63085
794.702	230.5118
795.117	173.39334
795.532	218.50817
795.947	195.4223
796.362	240.51008
796.776	165.3396
797.191	173.38712
797.605	185.40697
798.02	185.41722
798.434	198.39181
798.848	164.36963
799.262	190.44169
799.676	147.32691
800.09	130.2948
800.504	199.43979
800.918	93.19891
801.331	106.25863
801.745	163.33956
802.158	132.30589
802.572	119.26552
802.985	109.24059
803.398	120.26459
803.811	133.31571
804.224	159.36312
804.637	49.10757
805.05	113.24106
805.462	124.28097
805.875	150.37061
806.288	152.34273
806.7	94.22111
807.112	68.14667
807.525	120.27665
807.937	58.13531
808.349	56.13152
808.761	95.21425
809.173	38.08558
809.584	61.14049
809.996	80.18466
810.408	57.14029
810.819	58.12805
811.231	79.19845
811.642	93.21641
812.053	82.18588
812.464	77.1728
812.875	49.119
813.286	43.10451
813.697	67.14113
814.108	17.03878
814.519	60.12252
814.929	55.13061
815.34	44.10002
815.75	40.09629
816.16	14.03242
816.571	91.22257
816.981	24.0523
817.391	41.09258
817.801	45.10719
818.211	60.13429
818.62	40.09023
819.03	31.07066
819.44	82.20052
819.849	78.18533
820.259	80.19315
820.668	56.13142
821.077	57.13384
821.486	17.03804
821.895	22.05019
822.304	28.07088
822.713	16.03544
823.122	51.12083
823.531	76.16877
823.939	14.03237
824.348	61.13943
824.756	35.08235
825.164	51.11966
825.573	-4.00957
825.981	49.11439
826.389	28.06545
826.797	1.00239
827.205	32.06866
827.612	24.0554
828.02	9.02017
828.428	-24.05821
828.835	5.01264
829.243	49.10861
829.65	-27.06446
830.057	47.10846
830.464	12.02804
830.871	20.0448
831.278	-11.02495
831.685	2.00411
832.092	15.03493
832.499	32.06445
832.905	43.10329
833.312	41.08613
833.718	39.09097
834.124	8.0172
834.531	18.04269
834.937	7.0169
835.343	34.07717
835.749	18.03891
836.155	-6.01498
836.561	-31.0712
836.966	12.02759
837.372	28.06712
837.777	1.00235
838.183	-10.02023
838.588	37.08722
838.993	-30.06853
839.399	-23.05325
839.804	-25.05886
840.209	52.12631
840.613	40.08364
841.018	-30.07172
841.423	-9.02175
841.828	10.02397
842.232	6.01377
842.637	-25.05481
843.041	23.05707
843.445	-29.06871
843.849	-2.0047
844.253	-17.03778
844.657	-8.0194
845.061	37.07828
845.465	59.1367
845.869	6.013
846.272	-37.08597
846.676	73.16504
847.079	23.056
847.483	23.05394
847.886	7.01573
848.289	33.08551
848.692	-1.0024
849.095	-8.01791
849.498	-10.02352
849.901	0
850.304	-12.02684
850.707	-23.05579
851.109	5.01172
851.512	57.13248
851.914	34.08296
852.316	-8.01935
852.718	-18.04518
853.121	25.05779
853.523	-9.01975
853.925	-15.0376
854.326	32.07668
854.728	-9.0221
855.13	-38.0951
855.531	41.0936
855.933	5.01125
856.334	10.0238
856.736	-30.06268
857.137	21.04573
857.538	-24.05766
857.939	39.09151
858.34	1.00228
858.741	25.06199
859.142	-8.01823
859.542	38.09759
859.943	64.15049
860.343	10.02365
860.744	70.16003
861.144	4.00921
861.544	14.03232
861.945	-21.05069
862.345	-44.10047
862.745	-3.00707
863.145	-9.0198
863.544	59.14205
863.944	-25.05557
864.344	-3.00695
864.743	9.0211
865.143	3.00733
865.542	-19.04134
865.941	65.15221
866.34	5.01129
866.74	40.10205
867.139	8.01821
867.537	-30.07249
867.936	27.06132
868.335	51.12335
868.734	29.07106
869.132	25.05479
869.531	31.07003
869.929	41.08803
870.327	0
870.726	26.06075
871.124	19.04106
871.522	-40.0965
871.92	12.02785
872.318	24.05538
872.715	-6.01398
873.113	-18.04175
873.511	25.05891
873.908	-3.00741
874.306	-5.01186
874.703	11.02596
875.1	-2.00482
875.497	-47.10643
875.894	40.09402
876.291	32.07448
876.688	10.02446
877.085	-11.02476
877.482	-38.08994
877.878	-7.01599
878.275	-65.15809
878.671	-6.01205
879.068	9.02038
879.464	55.1245
879.86	15.03384
880.256	-13.02993
880.652	8.01927
881.048	-21.04869
881.444	-70.15635
881.84	-47.11376
882.236	66.15579
882.631	37.08546
883.027	-29.06535
883.422	-18.04382
883.817	9.02176
884.213	-11.02698
884.608	-9.0212
885.003	-12.02749
885.398	4.00949
885.793	1.00237
886.188	10.02387
886.582	-29.06948
886.977	3.00667
887.371	0
887.766	9.02142
888.16	-3.00711
888.554	-20.04627
888.949	-43.10136
889.343	-23.0524
889.737	23.05957
890.131	13.03104
890.525	-17.04129
890.918	32.07674
891.312	-20.04423
891.706	7.01768
892.099	3.00721
892.492	7.014
892.886	-11.02528
893.279	-14.03402
893.672	-14.03412
894.065	-29.06881
894.458	-30.07175
894.851	-22.05015
895.244	24.05814
895.637	16.03633
896.029	-20.04637
896.422	-53.1228
896.814	1.00236
897.206	6.01364
897.599	1.00228
897.991	31.0706
898.383	-8.01771
898.775	-35.07405
899.167	-37.08283
899.559	-14.03347
899.951	5.01102
900.342	-48.11453
900.734	23.05527
901.125	-44.10971
901.517	6.014
901.908	19.04217
902.299	-21.049
902.69	-17.03792
903.082	4.00911
903.473	-25.05749
903.863	14.03429
904.254	-22.04784
904.645	-17.03945
905.036	58.13356
905.426	-106.22411
905.817	21.04844
906.207	-57.13034
906.597	-20.04436
906.987	-58.14231
907.378	-47.11299
907.768	4.01014
908.158	24.05515
908.547	-37.09207
908.937	-29.07069
909.327	-1.00228
909.717	4.00951
910.106	-25.05689
910.495	70.16427
910.885	-36.08537
911.274	13.03088
911.663	41.09897
912.052	26.05963
912.441	39.09454
912.83	12.02554
913.219	-33.08161
913.608	15.03453
913.997	-61.14664
914.385	-7.01552
914.774	21.04775
915.162	-12.02681
915.55	-15.0343
915.939	-22.05322
916.327	28.06568
916.715	4.00979
917.103	2.0046
917.491	4.00918
917.878	-48.11026
918.266	19.04661
918.654	49.11949
919.041	-18.04503
919.429	-12.02684
919.816	18.04284
920.203	-21.04831
920.591	-22.05133
920.978	16.0367
921.365	-41.10277
921.752	45.10057
922.139	57.11435
922.525	6.01355
922.912	6.01371
923.299	8.01891
923.685	25.06192
924.072	-14.02983
924.458	2.00469
924.844	-5.01169
925.231	-42.09168
925.617	53.12924
926.003	27.06515
926.389	41.09841
926.774	71.16932
927.16	-19.04449
927.546	5.01218
927.931	55.12834
928.317	-58.12376
928.702	4.00878
929.088	-30.06751
929.473	12.02897
929.858	15.03489
930.243	-13.02971
930.628	8.01825
931.013	36.08508
931.398	37.0779
931.783	14.03501
932.167	-31.07146
932.552	-33.07749
932.937	-2.0046
933.321	-13.03082
933.705	42.10087
934.09	-12.02827
934.474	13.02884
934.858	-7.0174
935.242	20.04406
935.626	-32.07787
936.009	-12.03052
936.393	64.15435
936.777	53.129
937.16	-30.07363
937.544	39.08497
937.927	15.03618
938.311	-2.00456
938.694	32.08014
939.077	0
939.46	44.1014
939.843	11.02066
940.226	11.02657
940.609	-19.04071
940.991	-1.00242
941.374	-12.02756
941.757	-11.02559
942.139	-13.02702
942.522	8.01741
942.904	14.0317
943.286	-10.02387
943.668	12.02946
944.05	20.04629
944.432	5.0117
944.814	-24.05542
945.196	2.00467
945.578	43.09682
945.959	-20.04427
946.341	2.00452
946.722	-15.03328
947.104	-2.00445
947.485	-28.06117
947.866	19.04569
948.247	8.01913
948.628	36.08141
949.009	15.03655
949.39	-15.0346
949.771	0
950.152	3.00699
950.532	66.157
950.913	-36.08121
951.293	-5.01308
951.674	4.00902
952.054	-18.04252
952.434	4.00928
952.814	-42.09276
953.194	33.08197
953.574	-34.07817
953.954	6.01337
954.334	27.06372
954.714	-37.08607
955.093	0
955.473	-27.06367
955.853	18.04439
956.232	-7.01841
956.611	-36.07991
956.99	14.03342
957.37	18.04336
957.749	-44.09832
958.128	8.01931
958.506	23.05713
958.885	-11.0262
959.264	-34.07939
959.643	-36.07728
960.021	-28.06607
960.4	54.11482
960.778	-14.0319
961.156	6.01422
961.535	-49.10512
961.913	-2.00428
962.291	26.06405
962.669	8.01926
963.047	-29.06958
963.424	-3.00731
963.802	-31.07151
964.18	1.00237
964.557	-41.08731
964.935	23.0506
965.312	-19.04763
965.69	4.00939
966.067	-2.00455
966.444	-5.01162
966.821	-2.00486
967.198	12.02683
967.575	-2.00458
967.952	19.04182
968.329	-50.11514
968.705	-22.04298
969.082	10.02452
969.458	-6.01378
969.835	16.03646
970.211	-16.03918
970.587	7.01644
970.963	16.03872
971.339	28.06999
971.715	-73.17155
972.091	-35.08154
972.467	-40.09314
972.843	-36.08511
973.219	-47.10509
973.594	-19.04759
973.97	26.0568
974.345	-20.04511
974.721	15.03379
975.096	-54.1229
975.471	33.07321
975.846	68.15283
976.221	-10.02418
976.596	-19.04304
976.971	7.01629
977.346	-49.10603
977.72	2.00482
978.095	-18.04451
978.469	46.10236
978.844	20.04719
979.218	-4.00913
979.593	82.18179
979.967	9.02076
980.341	32.06778
980.715	30.07065
981.089	-10.02342
981.463	34.07343
981.837	21.04866
982.21	26.05562
982.584	-52.11864
982.957	1.00238
983.331	16.03534
983.704	27.06278
984.078	-40.0931
984.451	-52.12022
984.824	26.05999
985.197	13.02951
985.57	-30.07073
985.943	-6.01365
986.316	34.07801
986.688	-25.05661
987.061	4.00866
987.434	-15.03738
987.806	23.05185
988.179	-41.09076
988.551	48.11317
988.923	31.07126
989.295	14.03282
989.667	35.07997
990.039	15.03511
990.411	26.05622
990.783	-2.00427
991.155	-3.00691
991.527	-25.05682
991.898	-15.03515
992.27	-7.01642
992.641	-2.00471
993.012	52.11427
993.384	9.02013
993.755	-64.15563
994.126	1.00227
994.497	-9.02084
994.868	3.00646
995.239	15.03434
995.61	-65.15614
995.98	-6.01391
996.351	25.05875
996.722	7.01533
997.092	38.08491
997.462	23.05085
997.833	8.01764
998.203	-14.03176
998.573	14.03316
998.943	-47.10287
999.313	-11.025
999.683	-25.05604
1000.053	63.13434
1000.423	-24.05515
1000.792	-15.03714
1001.162	57.1318
1001.531	-18.04231
1001.901	11.02569
1002.27	41.08507
1002.639	-32.07837
1003.009	17.03843
1003.378	13.03154
1003.747	-40.08886
1004.116	-9.02043
1004.485	3.00678
1004.853	18.04307
1005.222	54.1291
1005.591	-17.0376
1005.959	29.06157
1006.328	-30.06304
1006.696	-29.06679
1007.064	9.02141
1007.433	9.02135
1007.801	-1.00229
1008.169	-17.0404
1008.537	16.03294
1008.905	13.02844
1009.273	37.08542
1009.64	14.03153
1010.008	14.03112
1010.375	6.01364
1010.743	3.00629
1011.11	0
1011.478	-4.00932
1011.845	-37.08061
1012.212	-44.09262
1012.579	12.02781
1012.946	-26.05728
1013.313	18.03984
1013.68	57.11658
1014.047	-4.00912
1014.414	43.09551
1014.78	-4.0095
1015.147	-6.01342
1015.513	32.07333
1015.88	5.01191
1016.246	24.05575
1016.612	7.01474
1016.978	-19.04383
1017.344	30.07046
1017.71	-39.08799
1018.076	46.1002
1018.442	30.07241
1018.808	20.04716
1019.174	-78.18655
1019.539	18.03717
1019.905	23.05102
1020.27	-3.00707
1020.636	21.04692
1021.001	-40.0899
1021.366	48.10965
1021.731	27.06589
1022.096	-21.05094
1022.461	-43.09495
1022.826	18.04007
1023.191	8.01998
1023.556	-4.00864
1023.92	21.04779
1024.285	0
1024.649	10.02305
1025.014	-11.0257
1025.378	22.05276
1025.742	36.08366
1026.107	0
1026.471	-11.02346
1026.835	-19.04406
1027.199	10.02276
1027.562	48.10402
1027.926	45.10215
1028.29	30.07175
1028.654	-13.02765
1029.017	61.14016
1029.381	-26.05901
1029.744	1.00244
1030.107	-11.02391
1030.471	-23.05168
1030.834	-16.03334
1031.197	4.00888
1031.56	51.113
1031.923	8.01959
1032.286	-9.01964
1032.648	10.0222
1033.011	19.04071
1033.374	19.0409
1033.736	-19.04771
1034.099	54.1234
1034.461	-25.06074
1034.823	9.02101
1035.185	-52.12289
1035.548	3.00685
1035.91	-27.06161
1036.272	-3.00638
1036.634	-8.01816
1036.995	27.05977
1037.357	-13.02995
1037.719	-7.01601
1038.08	-8.01745
1038.442	52.11725
1038.803	8.01785
1039.165	-15.036
1039.526	-36.08247
1039.887	35.07871
1040.248	47.11092
1040.609	32.07386
1040.97	-50.11601
1041.331	-62.14743
1041.692	-23.05107
1042.053	-7.01469
1042.413	3.00644
1042.774	-1.00227
1043.134	12.02633
1043.495	-29.06868
1043.855	26.05906
1044.215	-23.05388
1044.576	-11.02499
1044.936	39.08316
1045.296	-17.0399
1045.656	27.06199
1046.016	-7.01564
1046.375	17.03904
1046.735	49.10403
1047.095	4.00877
1047.454	24.04642
1047.814	-6.01344
1048.173	-12.02636
1048.533	39.08327
1048.892	-22.05036
1049.251	-5.01186
1049.61	-66.15313
1049.969	44.09714
1050.328	-17.03365
1050.687	-10.02287
1051.046	32.07354
1051.405	-18.04175
1051.763	17.03661
1052.122	33.07821
1052.48	-35.08077
1052.839	19.0418
1053.197	-5.01105
1053.555	-41.08419
1053.914	-11.02523
1054.272	-12.02718
1054.63	-59.13648
1054.988	-15.03343
1055.345	-61.12125
1055.703	8.01783
1056.061	6.01465
1056.419	-8.01982
1056.776	-3.0068
1057.134	42.08966
1057.491	-2.00471
1057.848	-11.02569
1058.206	-15.03304
1058.563	45.09224
1058.92	-21.04476
1059.277	-10.02281
1059.634	-32.06917
1059.991	6.01353
1060.348	-9.0192
1060.704	-20.04506
1061.061	-24.05092
1061.418	-10.02304
1061.774	-10.02371
1062.131	11.02834
1062.487	-8.01737
1062.843	23.05378
1063.199	66.15404
1063.555	12.02617
1063.911	17.04026
1064.267	23.04245
1064.623	8.0185
1064.979	-3.00646
1065.335	-1.0022
1065.691	42.09466
1066.046	-18.03639
1066.402	-23.04887
1066.757	-6.01436
1067.112	-17.03887
1067.468	24.05394
1067.823	8.01809
1068.178	24.05467
1068.533	-9.02034
1068.888	-21.04662
1069.243	30.0698
1069.598	-38.08589
1069.952	-30.06471
1070.307	-10.02385
1070.662	-37.08338
1071.016	13.02736
1071.371	-3.00633
1071.725	-46.101
1072.079	47.10478
1072.434	-28.06422
1072.788	27.06047
1073.142	58.13414
1073.496	-14.03126
1073.85	-1.00216
1074.203	-3.00681
1074.557	25.06363
1074.911	5.01101
1075.265	-75.16305
1075.618	20.04594
1075.971	24.05288
1076.325	29.06948
1076.678	-41.0883
1077.031	-49.10403
1077.385	65.13185
1077.738	25.05243
1078.091	-18.03901
1078.444	-21.04497
1078.796	10.02326
1079.149	-28.06504
1079.502	-42.09408
1079.855	37.08057
1080.207	-2.00462
1080.56	-63.15615
1080.912	-55.125
1081.264	51.11398
1081.617	-6.01382
1081.969	26.06308
1082.321	-1.0023
1082.673	-16.03472
1083.025	-53.11787
1083.377	-288.59742
1083.728	5.01063
1084.08	21.04966
1084.432	-38.08453
1084.783	43.0944
1085.135	63.14984
1085.486	7.01508
1085.838	14.03241
1086.189	-3.00685
1086.54	60.13258
1086.891	-14.03413
1087.242	19.04294
1087.593	10.02259
1087.944	-2.0042
1088.295	-4.00835
1088.646	16.03642
1088.996	-60.13717
1089.347	-40.0924
1089.698	-18.0405
1090.048	-27.06628
1090.398	6.01306
1090.749	16.03591
1091.099	28.06707
1091.449	-11.02569
1091.799	-26.06159
1092.149	40.09361
1092.499	18.04135
1092.849	-46.1119
1093.199	24.05612
1093.548	-28.06404
1093.898	-22.05237
1094.248	-20.04885
1094.597	-16.03952
1094.947	8.02028
1095.296	-39.09093
1095.645	34.08299
1095.994	47.10561
1096.343	40.09567
1096.692	-21.0534
1097.041	-23.06035
1097.39	1.00236
1097.739	-17.04232
1098.088	-16.04046
1098.437	-39.09888
1098.785	-6.01537
1099.134	-1.00249
1099.482	-14.03662
1099.83	-6.01494
1100.179	10.0252
1100.527	-8.02012
1100.875	-33.08364
1101.223	46.11661
1101.571	-4.01068
1101.919	-37.09371
1102.267	25.06838
1102.615	6.01928
1102.962	10.03206
1103.31	2.00642
1103.658	-5.01604
