Data from N3 R5 sample 8_Subt2__5__13-33-09-117.txt Node

Date: Thu Sep 18 13:33:09 PDT 2025
User: uwsun
Spectrometer: HDX01956
Trigger mode: 0
Integration Time (sec): 5.000000E-1
Scans to average: 1
Nonlinearity correction enabled: true
Boxcar width: 0
Storing dark spectrum: false
XAxis mode: Wavelengths
Number of Pixels in Spectrum: 2068
>>>>>Begin Spectral Data<<<<<
194.03	-2.00581
194.578	2.0065
195.127	11.03526
195.676	-3.00962
196.225	11.02902
196.773	16.04459
197.321	48.13307
197.87	54.13869
198.418	74.19124
198.966	84.22053
199.513	84.21332
200.061	13.03318
200.609	53.1395
201.156	37.07989
201.704	-8.02027
202.251	29.0771
202.798	43.11226
203.345	88.21599
203.892	22.05559
204.438	58.13818
204.985	27.06464
205.532	112.29811
206.078	15.03707
206.624	23.05726
207.17	74.17033
207.716	30.07238
208.262	-10.01985
208.808	27.06753
209.354	32.07808
209.899	56.14014
210.445	45.11308
210.99	48.11616
211.535	70.16318
212.08	32.07422
212.625	60.14939
213.17	32.08083
213.715	51.11478
214.259	80.18583
214.804	32.07851
215.348	34.0776
215.892	71.1699
216.436	100.22963
216.98	-11.02426
217.524	15.03557
218.068	54.13523
218.612	27.06729
219.155	56.1308
219.698	45.10558
220.242	43.10627
220.785	68.15771
221.328	12.02999
221.871	65.16281
222.414	20.04898
222.956	29.07014
223.499	30.06712
224.041	52.11797
224.583	78.16412
225.126	94.20701
225.668	67.16143
226.21	41.10244
226.751	-11.02381
227.293	39.08742
227.835	45.10851
228.376	25.0567
228.918	57.14215
229.459	86.21389
230	44.10374
230.541	39.08842
231.082	44.10591
231.622	86.19463
232.163	79.1907
232.704	37.09087
233.244	52.12768
233.784	13.03143
234.324	71.15606
234.864	36.08048
235.404	8.01875
235.944	33.07676
236.484	21.0515
237.023	50.11743
237.563	55.12541
238.102	36.08425
238.641	65.16363
239.18	54.12588
239.719	57.14272
240.258	51.11238
240.797	105.24742
241.335	-16.03865
241.874	88.16679
242.412	82.19281
242.95	108.25533
243.488	81.18171
244.026	44.10083
244.564	105.20987
245.102	58.12864
245.64	74.17481
246.177	33.07275
246.715	36.08455
247.252	41.09201
247.789	-70.12574
248.326	-6.01427
248.863	4.00869
249.4	67.15172
249.936	75.15061
250.473	48.1111
251.009	84.19103
251.546	22.04841
252.082	54.11782
252.618	68.1505
253.154	36.0858
253.69	29.06455
254.226	50.11752
254.761	45.09837
255.297	75.16201
255.832	24.0561
256.367	40.09273
256.903	56.12027
257.438	52.11912
257.972	18.03944
258.507	50.11486
259.042	32.06721
259.576	58.1237
260.111	31.07063
260.645	57.12202
261.179	37.08494
261.713	33.07217
262.247	97.22144
262.781	89.18408
263.315	62.15009
263.849	50.12377
264.382	84.18793
264.915	80.18569
265.449	16.03908
265.982	26.05786
266.515	87.20859
267.048	47.09887
267.58	52.10985
268.113	59.12674
268.646	45.11109
269.178	11.0245
269.71	8.01728
270.243	45.1014
270.775	51.12862
271.307	14.033
271.838	12.02811
272.37	55.13437
272.902	65.14659
273.433	28.06024
273.965	98.23688
274.496	11.02692
275.027	50.12204
275.558	63.15053
276.089	80.1981
276.62	3.00757
277.15	73.17675
277.681	2.00424
278.211	59.14146
278.741	73.16005
279.272	56.12642
279.802	58.14357
280.332	56.13075
280.861	57.13546
281.391	52.11596
281.921	37.08702
282.45	96.2385
282.98	89.22925
283.509	44.09775
284.038	36.07981
284.567	23.05225
285.096	49.11748
285.625	90.20351
286.153	23.05344
286.682	57.12766
287.21	16.03831
287.739	67.1548
288.267	57.13723
288.795	91.23473
289.323	47.11049
289.851	51.11746
290.378	81.17894
290.906	32.07764
291.433	66.16277
291.961	40.08912
292.488	75.18426
293.015	96.22406
293.542	54.13494
294.069	70.16978
294.596	47.11508
295.122	118.27562
295.649	93.20313
296.175	42.09945
296.702	45.10686
297.228	34.0806
297.754	37.08218
298.28	5.0113
298.806	67.16021
299.332	45.09866
299.857	19.04254
300.383	100.24599
300.908	83.20066
301.433	101.24243
301.958	49.10988
302.483	96.2392
303.008	39.09489
303.533	30.07629
304.058	70.16196
304.582	90.20972
305.107	56.14603
305.631	54.12056
306.155	106.24477
306.679	51.11863
307.203	95.21731
307.727	79.18608
308.251	75.18235
308.775	33.07782
309.298	60.14377
309.822	59.1473
310.345	74.17312
310.868	53.12552
311.391	69.16738
311.914	70.17397
312.437	50.11182
312.96	115.26676
313.482	64.15084
314.005	77.19106
314.527	76.19804
315.049	86.2128
315.571	119.26574
316.093	130.3173
316.615	94.22524
317.137	65.13854
317.659	96.22634
318.18	89.21208
318.702	94.21576
319.223	106.2131
319.744	116.25642
320.265	148.35179
320.786	100.24426
321.307	99.24403
321.828	133.29688
322.348	118.27421
322.869	74.16999
323.389	324.56233
323.909	95.21513
324.43	142.33102
324.95	83.18887
325.47	112.27235
325.989	168.39302
326.509	112.24375
327.029	149.32792
327.548	111.24706
328.067	143.33696
328.587	162.39452
329.106	127.28185
329.625	108.27416
330.144	100.22502
330.662	146.33095
331.181	148.33916
331.7	122.2798
332.218	146.31206
332.736	126.28666
333.255	131.2987
333.773	123.28668
334.291	141.34011
334.808	102.22217
335.326	215.46839
335.844	170.38973
336.361	180.44293
336.879	180.40702
337.396	141.32889
337.913	154.3434
338.43	177.39117
338.947	166.38575
339.464	136.28527
339.981	218.50157
340.497	212.50642
341.014	159.37451
341.53	205.4521
342.046	201.4795
342.562	221.53064
343.078	183.41642
343.594	225.52108
344.11	217.49597
344.626	250.60812
345.141	255.56095
345.657	185.40116
346.172	215.49694
346.687	217.48237
347.202	217.46954
347.717	224.51619
348.232	218.52771
348.747	235.51869
349.261	275.58459
349.776	206.46448
350.29	221.53003
350.805	216.51024
351.319	241.54017
351.833	210.4642
352.347	200.44689
352.861	272.60525
353.374	243.53051
353.888	200.46365
354.401	253.55491
354.915	293.62801
355.428	280.66678
355.941	284.63195
356.454	335.70406
356.967	292.65783
357.48	287.62285
357.993	260.61083
358.505	276.6517
359.018	276.63525
359.53	250.57403
360.042	213.44747
360.554	324.73528
361.066	297.68289
361.578	321.66423
362.09	328.7365
362.602	326.67533
363.113	291.6283
363.625	362.76801
364.136	343.70371
364.647	286.63323
365.158	349.76448
365.669	413.93169
366.18	284.61909
366.691	331.68492
367.201	333.74204
367.712	335.70313
368.222	371.80306
368.733	366.74733
369.243	342.69738
369.753	362.77337
370.263	338.74803
370.773	379.87417
371.282	351.77696
371.792	342.72938
372.301	408.91496
372.811	367.8928
373.32	373.73137
373.829	397.8751
374.338	436.88622
374.847	403.84696
375.356	473.0297
375.865	477.91366
376.373	494.00915
376.882	463.0683
377.39	515.1213
377.898	532.19044
378.407	508.01151
378.915	567.06872
379.423	611.26978
379.93	578.14583
380.438	682.44994
380.946	694.39798
381.453	710.46238
381.96	741.49655
382.468	823.63656
382.975	856.7508
383.482	857.57947
383.989	902.91723
384.495	981.8049
385.002	911.52554
385.509	988.82734
386.015	1162.7275
386.521	1125.89454
387.028	1212.03228
387.534	1278.96665
388.04	1250.17254
388.546	1331.07598
389.051	1378.08495
389.557	1533.39121
390.063	1663.49671
390.568	1676.57398
391.073	1719.41305
391.578	1802.69153
392.084	1834.38608
392.589	1955.40025
393.093	2066.69258
393.598	2270.60113
394.103	2463.839
394.607	2732.8008
395.112	2866.97126
395.616	3102.7961
396.12	3381.43523
396.624	3724.33421
397.128	3962.3348
397.632	4553.76826
398.136	4920.53029
398.639	5292.45507
399.143	5835.42603
399.646	6583.91003
400.15	7270.01171
400.653	8215.91878
401.156	9098.76473
401.659	10715.46882
402.162	13217.50981
402.664	17610.73033
403.167	25431.00814
403.67	50778.89204
404.172	54077.07913
404.674	37291.05854
405.176	4428.40989
405.678	533.47942
406.18	0
406.682	0
407.184	6962.89417
407.686	50953.82939
408.187	59237.6763
408.688	43983.50043
409.19	30501.13688
409.691	24295.39052
410.192	20530.43421
410.693	17723.63185
411.194	15892.24287
411.694	14911.62889
412.195	13713.41597
412.696	12446.54471
413.196	11655.24037
413.696	11258.4188
414.196	11105.46665
414.696	11041.11784
415.196	10327.02616
415.696	9304.39969
416.196	7631.20017
416.695	5912.00254
417.195	5131.52715
417.694	4831.81368
418.194	4547.15759
418.693	4237.84371
419.192	4194.13991
419.691	4064.21395
420.19	4030.27673
420.688	3911.57127
421.187	3700.60663
421.685	3458.45511
422.184	3136.63358
422.682	2739.41341
423.18	2333.65633
423.678	2130.57252
424.176	1972.52593
424.674	1817.29663
425.172	1750.50433
425.669	1707.68698
426.167	1583.3498
426.664	1476.22282
427.161	1204.96415
427.659	1211.1813
428.156	1105.70338
428.652	998.97258
429.149	1006.89029
429.646	948.59333
430.143	941.77963
430.639	831.58734
431.135	776.57699
431.632	746.3948
432.128	711.4372
432.624	666.43921
433.12	656.26559
433.616	656.19479
434.111	603.2381
434.607	577.19049
435.103	526.93681
435.598	592.02788
436.093	511.0319
436.588	538.046
437.083	492.96905
437.578	458.9199
438.073	378.84526
438.568	398.87234
439.062	376.71792
439.557	378.79285
440.051	333.68566
440.546	364.7527
441.04	334.71603
441.534	373.86137
442.028	331.72322
442.522	320.70495
443.015	353.69477
443.509	357.79716
444.002	349.78026
444.496	264.5207
444.989	318.71786
445.482	254.58462
445.975	319.6663
446.468	243.48345
446.961	260.50654
447.454	198.4122
447.947	309.68258
448.439	278.63141
448.931	254.53113
449.424	207.48054
449.916	243.54061
450.408	284.60122
450.9	252.56633
451.392	257.60602
451.884	150.32033
452.375	184.42639
452.867	249.51733
453.358	147.31154
453.849	233.45578
454.341	233.48797
454.832	241.48037
455.323	231.52584
455.814	219.46454
456.304	208.44438
456.795	161.34211
457.285	230.4673
457.776	148.31058
458.266	236.52493
458.756	155.34642
459.247	154.34411
459.737	186.42076
460.226	227.4733
460.716	183.41203
461.206	169.3763
461.695	165.39182
462.185	206.45612
462.674	141.30196
463.163	137.28311
463.653	152.30078
464.142	146.33014
464.63	173.39621
465.119	178.39017
465.608	122.26483
466.096	155.31786
466.585	132.28312
467.073	82.18527
467.561	169.38845
468.05	123.26751
468.538	184.42943
469.026	137.3125
469.513	151.29846
470.001	62.13453
470.489	127.28443
470.976	167.36135
471.463	120.28699
471.951	88.21038
472.438	133.29676
472.925	90.19878
473.412	88.20409
473.899	165.35733
474.385	92.21573
474.872	88.19518
475.359	109.25355
475.845	100.1964
476.331	60.1233
476.817	50.11596
477.303	65.14467
477.789	77.17727
478.275	98.23312
478.761	26.06028
479.247	61.12996
479.732	91.21892
480.218	78.19498
480.703	128.30659
481.188	47.09617
481.673	64.14124
482.158	38.07883
482.643	61.1492
483.128	8.01762
483.612	57.12734
484.097	105.24434
484.581	28.06177
485.066	77.17833
485.55	35.07337
486.034	107.22261
486.518	65.14713
487.002	70.16498
487.486	40.09453
487.969	61.14564
488.453	71.17307
488.936	34.07365
489.42	92.19443
489.903	75.18166
490.386	14.02921
490.869	61.12481
491.352	36.08445
491.835	18.03544
492.318	95.20609
492.8	10.01981
493.283	60.14847
493.765	64.1526
494.247	3.00674
494.73	57.12091
495.212	44.10205
495.694	29.06567
496.175	7.01622
496.657	104.23862
497.139	-43.06974
497.62	53.12236
498.102	50.12063
498.583	-28.06783
499.064	60.13063
499.545	-14.03113
500.026	23.04985
500.507	-18.04034
500.988	26.06202
501.469	24.05799
501.949	9.0214
502.43	3.00693
502.91	-13.02607
503.39	22.05334
503.87	43.09813
504.35	1.00227
504.83	28.05941
505.31	25.05912
505.79	18.04186
506.269	6.01352
506.749	-26.058
507.228	3.00686
507.707	41.0875
508.187	9.02069
508.666	-18.04302
509.145	-19.04341
509.623	-9.02058
510.102	20.04683
510.581	8.01858
511.059	67.16375
511.538	11.02761
512.016	61.14145
512.494	-10.02349
512.972	19.0443
513.45	-23.05297
513.928	7.01658
514.406	15.03603
514.884	49.12384
515.361	48.11238
515.839	-25.05557
516.316	-12.02802
516.793	-14.03457
517.27	38.0897
517.747	7.01758
518.224	-42.09493
518.701	13.02824
519.178	45.11035
519.654	-45.10286
520.131	-72.17443
520.607	-2.00484
521.083	0
521.56	-29.06687
522.036	3.00644
522.512	26.06218
522.987	1.00235
523.463	-7.01635
523.939	-36.08669
524.414	12.0267
524.89	-5.01149
525.365	24.05334
525.84	50.1183
526.315	-26.06102
526.79	-46.10122
527.265	-11.02418
527.74	4.00949
528.215	-7.01619
528.689	34.07403
529.164	-82.17269
529.638	27.06773
530.112	38.0881
530.587	12.02527
531.061	18.04254
531.534	8.01875
532.008	29.06812
532.482	-58.12842
532.956	17.043
533.429	-11.02536
533.903	-22.04713
534.376	-28.06044
534.849	3.00682
535.322	-15.03467
535.795	7.01668
536.268	2.00473
536.741	-3.00703
537.213	-18.0409
537.686	-27.06417
538.158	-44.09743
538.631	-7.01649
539.103	-17.03732
539.575	3.00606
540.047	-2.00427
540.519	-35.08141
540.991	-35.08334
541.463	-3.00714
541.934	-2.00448
542.406	-41.09661
542.877	-21.04631
543.348	-72.16771
543.82	2.00477
544.291	-54.12211
544.762	-15.03478
545.233	68.16672
545.703	-50.10969
546.174	-2.00457
546.645	22.05229
547.115	-1.00236
547.585	43.09714
548.056	23.05519
548.526	-19.04406
548.996	-38.08994
549.466	-28.06668
549.935	13.0306
550.405	-29.06331
550.875	-2.00462
551.344	24.05663
551.814	-3.00663
552.283	-10.02109
552.752	-23.05251
553.221	-28.05985
553.69	8.01743
554.159	53.12852
554.628	16.03484
555.096	1.00248
555.565	-7.01522
556.033	47.10656
556.502	14.03296
556.97	-47.10213
557.438	7.01619
557.906	20.04613
558.374	-35.07887
558.842	13.03037
559.31	4.00866
559.777	32.07568
560.245	-28.0637
560.712	-29.06468
561.18	39.08305
561.647	-51.11182
562.114	19.04217
562.581	28.06743
563.048	0
563.514	21.05052
563.981	30.06623
564.448	60.13025
564.914	9.02032
565.381	-18.03946
565.847	-9.02049
566.313	-52.11883
566.779	64.14059
567.245	49.11105
567.711	35.08209
568.176	46.10283
568.642	26.0641
569.108	42.10041
569.573	-31.07069
570.038	58.11838
570.504	89.19431
570.969	31.07537
571.434	62.13275
571.899	62.14357
572.363	54.11857
572.828	26.05728
573.293	51.11347
573.757	54.12096
574.222	64.14005
574.686	15.03311
575.15	24.05593
575.614	9.02011
576.078	51.11577
576.542	81.17857
577.006	68.14937
577.469	70.16575
577.933	13.02819
578.396	56.1306
578.86	52.11778
579.323	35.08119
579.786	53.11002
580.249	48.10646
580.712	-18.04285
581.175	-8.01938
581.637	88.19672
582.1	14.02968
582.563	-53.10874
583.025	-2.00475
583.487	35.06791
583.95	0
584.412	57.11409
584.874	16.03775
585.336	19.04404
585.797	51.10596
586.259	-2.00452
586.721	14.0321
587.182	-7.0157
587.643	31.06808
588.105	49.11267
588.566	33.06715
589.027	54.12747
589.488	-16.0355
589.949	13.03031
590.41	79.14926
590.87	13.02819
591.331	14.02877
591.791	57.12497
592.252	39.08641
592.712	79.18188
593.172	7.01533
593.632	3.00619
594.092	66.14095
594.552	44.09033
595.011	103.22773
595.471	124.2624
595.931	65.13854
596.39	84.19358
596.849	124.27307
597.308	139.28222
597.768	122.29645
598.227	157.35754
598.685	145.30784
599.144	178.38968
599.603	193.42724
600.062	139.27216
600.52	239.49389
600.978	233.51729
601.437	253.53033
601.895	267.51585
602.353	208.42183
602.811	275.55604
603.269	333.71928
603.727	323.70485
604.184	340.69236
604.642	343.75989
605.099	408.83801
605.557	414.88904
606.014	425.80145
606.471	514.14254
606.928	565.08007
607.385	517.12567
607.842	554.10789
608.299	591.17192
608.755	605.245
609.212	624.17724
609.668	620.16911
610.125	648.31238
610.581	677.30898
611.037	692.29749
611.493	727.40448
611.949	697.40693
612.405	791.26633
612.861	727.37899
613.316	749.4913
613.772	783.46159
614.227	740.44227
614.683	836.41066
615.138	798.54518
615.593	784.4631
616.048	818.47247
616.503	802.60843
616.958	776.60993
617.412	770.49017
617.867	783.41977
618.321	737.18431
618.776	776.37602
619.23	769.49285
619.684	720.3116
620.138	739.36364
620.592	636.2992
621.046	730.39648
621.5	711.43063
621.954	664.22468
622.407	648.19034
622.861	567.1604
623.314	619.18293
623.768	594.1776
624.221	634.02788
624.674	581.11823
625.127	574.14372
625.58	551.03596
626.033	515.95216
626.485	528.08606
626.938	515.04904
627.39	527.05356
627.843	451.90146
628.295	446.90365
628.747	472.9795
629.199	488.97157
629.651	441.88024
630.103	468.94042
630.555	396.7246
631.006	432.8885
631.458	395.81076
631.909	429.85271
632.361	345.71005
632.812	405.83016
633.263	327.61905
633.714	381.70155
634.165	308.65973
634.616	339.71749
635.067	258.50839
635.518	300.63482
635.968	361.62673
636.419	285.54693
636.869	308.65345
637.319	287.5992
637.769	327.65846
638.219	289.61274
638.669	319.69022
639.119	319.69818
639.569	307.67873
640.019	269.56087
640.468	242.48292
640.918	338.72711
641.367	356.71141
641.816	321.64518
642.265	302.62981
642.714	345.71964
643.163	294.59978
643.612	309.68344
644.061	306.57292
644.51	306.63277
644.958	300.59338
645.406	323.70246
645.855	372.81296
646.303	350.72537
646.751	355.72767
647.199	315.63079
647.647	392.81132
648.095	339.69173
648.543	322.57222
648.99	351.75815
649.438	379.79372
649.885	371.83252
650.333	376.61806
650.78	420.91823
651.227	369.81271
651.674	370.75344
652.121	304.66185
652.568	313.69141
653.015	313.7047
653.461	316.68066
653.908	369.76423
654.354	328.69467
654.801	305.65118
655.247	321.62584
655.693	331.78896
656.139	311.67406
656.585	327.71116
657.031	359.76015
657.477	322.62883
657.922	355.73886
658.368	218.49555
658.813	253.52282
659.259	281.6197
659.704	276.59247
660.149	297.62805
660.594	273.59398
661.039	288.60062
661.484	306.66394
661.929	252.53815
662.373	261.6176
662.818	251.58083
663.262	223.49509
663.707	223.52279
664.151	253.57755
664.595	216.48503
665.039	242.55366
665.483	248.5915
665.927	249.53417
666.371	218.47241
666.814	181.40219
667.258	220.48935
667.701	184.35916
668.145	184.42588
668.588	226.51685
669.031	204.45112
669.474	155.34999
669.917	188.38231
670.36	123.28724
670.803	200.44689
671.245	196.37677
671.688	161.36651
672.13	117.24612
672.573	244.57794
673.015	148.33262
673.457	194.39415
673.899	171.38517
674.341	175.39434
674.783	146.33202
675.225	160.36931
675.666	183.41406
676.108	149.30363
676.549	160.35249
676.991	146.29893
677.432	119.21767
677.873	152.32742
678.314	113.25453
678.755	154.35489
679.196	159.34316
679.637	147.3341
680.078	170.36918
680.518	95.20503
680.959	98.22233
681.399	116.27031
681.839	145.33142
682.28	124.29179
682.72	113.24242
683.16	163.38304
683.6	142.30207
684.039	100.19399
684.479	109.25445
684.919	111.24511
685.358	127.30321
685.798	112.27774
686.237	153.34519
686.676	145.31335
687.115	169.37006
687.554	172.38052
687.993	116.23611
688.432	138.2988
688.871	121.2579
689.309	178.40807
689.748	167.32125
690.186	128.28389
690.625	212.46862
691.063	130.29731
691.501	149.34727
691.939	146.34356
692.377	133.30693
692.815	136.31054
693.253	100.22456
693.69	174.3532
694.128	158.36411
694.565	72.16407
695.003	128.30893
695.44	94.20831
695.877	143.31736
696.314	140.27847
696.751	125.2648
697.188	158.34122
697.625	137.2901
698.061	127.28771
698.498	143.32408
698.934	80.18127
699.371	117.26182
699.807	145.32246
700.243	170.3877
700.679	152.32038
701.115	185.39996
701.551	166.36725
701.987	123.25532
702.422	122.27216
702.858	129.28629
703.294	148.30934
703.729	192.44034
704.164	145.33048
704.599	149.30598
705.035	149.31219
705.47	173.39923
705.904	143.31008
706.339	170.36052
706.774	161.34882
707.209	119.25683
707.643	155.34828
708.078	135.30782
708.512	174.41629
708.946	131.2923
709.38	145.31858
709.814	154.32431
710.248	140.31541
710.682	199.44273
711.116	164.37009
711.549	113.27453
711.983	164.34871
712.416	157.34044
712.85	218.50737
713.283	124.27525
713.716	206.47604
714.149	226.48702
714.582	191.39523
715.015	205.47138
715.448	188.43359
715.881	145.28565
716.313	249.5367
716.746	181.39784
717.178	182.40415
717.61	215.50581
718.043	164.37733
718.475	220.48792
718.907	183.42281
719.339	188.39277
719.77	216.47905
720.202	188.44101
720.634	219.49611
721.065	192.41855
721.497	244.55015
721.928	225.51301
722.359	230.51944
722.79	229.50312
723.221	187.43188
723.652	201.47527
724.083	230.46922
724.514	169.35002
724.945	247.52965
725.375	216.46188
725.806	181.41036
726.236	250.5862
726.666	225.48206
727.096	249.55327
727.526	227.53425
727.956	272.55666
728.386	208.46246
728.816	242.56545
729.246	257.57555
729.675	257.58479
730.105	235.52564
730.534	250.53041
730.964	219.50236
731.393	213.47486
731.822	249.58648
732.251	262.61265
732.68	186.39049
733.109	196.44735
733.537	201.44551
733.966	225.51011
734.395	214.4459
734.823	271.54092
735.251	229.50482
735.68	240.546
736.108	221.51101
736.536	242.51702
736.964	182.38513
737.392	191.43726
737.82	237.51391
738.247	226.48765
738.675	224.47898
739.102	234.54353
739.53	250.58963
739.957	184.43685
740.384	235.52043
740.811	226.52952
741.238	213.4723
741.665	206.44374
742.092	223.47839
742.519	216.49796
742.945	167.36923
743.372	225.51301
743.798	165.39438
744.225	172.37527
744.651	175.40433
745.077	201.46126
745.503	143.32079
745.929	159.35037
746.355	199.44438
746.781	161.36888
747.207	179.39261
747.632	199.45026
748.058	198.44954
748.483	158.3298
748.908	136.31491
749.334	193.43561
749.759	138.29994
750.184	146.32179
750.609	162.36542
751.033	159.33771
751.458	237.48295
751.883	157.3574
752.307	199.43611
752.732	144.34096
753.156	195.44264
753.58	103.22659
754.005	182.4316
754.429	99.21321
754.853	132.30662
755.277	166.36464
755.7	128.29521
756.124	145.34008
756.548	138.30569
756.971	128.28909
757.394	133.32069
757.818	125.30459
758.241	91.2161
758.664	193.456
759.087	140.29496
759.51	164.37794
759.933	95.21626
760.356	116.2787
760.778	161.37435
761.201	96.21398
761.623	84.18716
762.046	36.07828
762.468	133.29443
762.89	109.25134
763.312	122.27486
763.734	109.24633
764.156	112.25996
764.578	73.15478
765	134.30387
765.421	92.22539
765.843	115.28555
766.264	114.25368
766.686	117.27794
767.107	128.29321
767.528	102.24664
767.949	61.14703
768.37	48.11097
768.791	93.20905
769.212	111.26694
769.632	51.11182
770.053	77.19321
770.473	78.17896
770.894	45.10521
771.314	40.08879
771.734	41.0894
772.154	72.17535
772.575	68.14686
772.994	44.09441
773.414	14.03112
773.834	59.14076
774.254	32.07386
774.673	41.09383
775.093	67.158
775.512	42.09907
775.931	107.2581
776.351	24.05632
776.77	67.15548
777.189	73.16127
777.607	64.15569
778.026	60.14262
778.445	86.20631
778.864	17.04141
779.282	46.10338
779.701	33.07924
780.119	7.01681
780.537	24.05692
780.955	92.21902
781.373	15.03528
781.791	58.12295
782.209	129.27567
782.627	60.1515
783.045	65.13987
783.462	15.03635
783.88	38.09444
784.297	22.0528
784.715	29.0724
785.132	27.06191
785.549	93.22195
785.966	12.02868
786.383	101.23457
786.8	45.09837
787.217	25.0559
787.633	19.04536
788.05	47.10161
788.466	36.07908
788.883	42.10309
789.299	3.0068
789.715	58.13398
790.131	-1.00236
790.547	-15.03511
790.963	62.14527
791.379	17.04113
791.795	49.10426
792.21	24.05268
792.626	42.09362
793.041	23.05348
793.457	22.05131
793.872	1.00224
794.287	28.06509
794.702	-3.007
795.117	-5.01178
795.532	44.10608
795.947	33.07394
796.362	69.15211
796.776	2.00427
797.191	6.01389
797.605	71.15993
798.02	29.06748
798.434	64.13062
798.848	-7.01633
799.262	74.17596
799.676	20.04565
800.09	16.03712
800.504	37.08454
800.918	8.01743
801.331	-16.03992
801.745	-8.0173
802.158	16.03793
802.572	19.04327
802.985	-9.02036
803.398	25.05622
803.811	29.07022
804.224	34.0796
804.637	-46.103
805.05	6.0131
805.462	24.05549
805.875	23.05815
806.288	32.07392
806.7	7.01674
807.112	-4.00876
807.525	21.04937
807.937	-11.02601
808.349	-8.01902
808.761	-22.0508
809.173	-55.12622
809.584	-14.03273
809.996	-19.04472
810.408	-2.00498
810.819	-46.10376
811.231	14.03558
811.642	47.11036
812.053	47.1073
812.464	23.05219
812.875	33.08038
813.286	-23.05659
813.697	-6.01284
814.108	-25.05751
814.519	-2.00414
814.929	-19.04576
815.34	27.06159
815.75	-13.03161
816.16	-13.03026
816.571	-6.01494
816.981	-23.05062
817.391	-53.12197
817.801	4.0096
818.211	8.0181
818.62	19.04304
819.03	-35.08084
819.44	52.12787
819.849	-8.01932
820.259	58.14062
820.668	19.04491
821.077	-7.01664
821.486	-27.06097
821.895	-1.00229
822.304	23.05827
822.713	13.02881
823.122	3.00717
823.531	33.07394
823.939	30.06914
824.348	57.13039
824.756	-17.0404
825.164	3.0071
825.573	18.04288
825.981	34.0796
826.389	-23.0543
826.797	-19.04555
827.205	17.0366
827.612	-22.05125
828.02	-10.0225
828.428	-33.08017
828.835	23.05796
829.243	-35.07894
829.65	-13.03095
830.057	48.11075
830.464	20.04666
830.871	-18.04064
831.278	-45.10277
831.685	5.01027
832.092	16.03725
832.499	14.02831
832.905	34.08181
833.312	-20.04258
833.718	-5.01176
834.124	11.02364
834.531	-39.09351
834.937	-40.09745
835.343	-1.00229
835.749	-7.01521
836.155	13.03235
836.561	-35.08045
836.966	-23.05325
837.372	12.02885
837.777	-26.06137
838.183	-30.06098
838.588	-7.01664
838.993	-20.04559
839.399	-37.0859
839.804	-2.00469
840.209	23.05617
840.613	2.00422
841.018	-52.12484
841.423	-34.08256
841.828	11.02636
842.232	0
842.637	-63.13923
843.041	15.03727
843.445	-10.02361
843.849	8.01877
844.253	-1.00221
844.657	3.00726
845.061	32.06778
845.465	39.09072
845.869	20.04321
846.272	-16.03702
846.676	-13.02991
847.079	-11.02695
847.483	66.15349
847.886	-15.03386
848.289	35.09066
848.692	-13.03128
849.095	-44.09925
849.498	-14.03296
849.901	-8.01703
850.304	-1.00223
850.707	-14.0339
851.109	-26.06133
851.512	21.04916
851.914	31.07568
852.316	-4.00967
852.718	-7.01753
853.121	-18.04196
853.523	-10.02195
853.925	-35.08805
854.326	41.09808
854.728	-8.01964
855.13	-20.04989
855.531	12.02756
855.933	5.01125
856.334	-1.00238
856.736	-71.14969
857.137	-23.05056
857.538	-9.02156
857.939	9.02124
858.34	48.1085
858.741	-16.03997
859.142	13.0295
859.542	77.19641
859.943	42.09918
860.343	-22.05235
860.744	57.13065
861.144	11.0253
861.544	-24.05582
861.945	-14.03375
862.345	-47.10738
862.745	18.04228
863.145	-63.14016
863.544	28.06781
863.944	-25.05557
864.344	-36.08389
864.743	55.12779
865.143	0
865.542	-25.05447
865.941	47.11045
866.34	34.07635
866.74	7.01796
867.139	27.06122
867.537	-25.06035
867.936	20.04548
868.335	38.09213
868.734	45.10994
869.132	67.14553
869.531	16.03625
869.929	20.04314
870.327	15.03382
870.726	4.00939
871.124	-7.01521
871.522	-49.11842
871.92	-16.03734
872.318	33.076
872.715	1.00233
873.113	12.02767
873.511	-13.03086
873.908	57.13915
874.306	14.03309
874.703	19.04477
875.1	-11.02656
875.497	-14.03149
875.894	25.05893
876.291	34.0791
876.688	-40.09876
877.085	-18.04057
877.482	-11.0259
877.878	-1.00228
878.275	-42.10171
878.671	-60.12202
879.068	52.11672
879.464	14.03195
879.86	14.03159
880.256	1.0023
880.652	4.00964
881.048	-25.05802
881.444	-15.03312
881.84	-4.0096
882.236	38.09019
882.631	11.02554
883.027	-32.07215
883.422	-41.10024
883.817	21.05066
884.213	-20.04914
884.608	-22.05195
885.003	6.01369
885.398	-21.05006
885.793	-25.05944
886.188	36.08551
886.582	-46.11056
886.977	21.04653
887.371	-25.06017
887.766	22.05223
888.16	20.04717
888.554	-14.03235
888.949	-20.04694
889.343	-7.0159
889.737	49.12635
890.131	27.06429
890.525	-12.02912
890.918	28.0672
891.312	-64.14283
891.706	24.06043
892.099	-6.01444
892.492	41.08138
892.886	1.00229
893.279	5.01211
893.672	9.02184
894.065	29.06804
894.458	11.0261
894.851	-14.03186
895.244	5.01216
895.637	43.0971
896.029	5.01153
896.422	-7.01607
896.814	13.03061
897.206	29.06562
897.599	-8.01824
897.991	-4.00917
898.383	0
898.775	48.0997
899.167	-16.03566
899.559	9.02142
899.951	13.0286
900.342	-59.14108
900.734	15.0361
901.125	7.01729
901.517	36.08349
901.908	-10.02233
902.299	23.05321
902.69	1.00222
903.082	22.04993
903.473	31.07049
903.863	16.03917
904.254	-37.08071
904.645	-27.06278
905.036	20.0464
905.426	-69.1447
905.817	4.00926
906.207	-28.06365
906.597	1.00221
906.987	-62.15223
907.378	-27.06466
907.768	8.02027
908.158	18.04142
908.547	0
908.937	16.03867
909.327	-17.03883
909.717	-7.01667
910.106	6.01357
910.495	76.17815
910.885	-21.04966
911.274	-4.00953
911.663	78.18697
912.052	-6.01385
912.441	38.09213
912.83	13.02766
913.219	-29.07167
913.608	-9.02082
913.997	-31.0741
914.385	3.00664
914.774	16.03642
915.162	-21.04701
915.55	38.08596
915.939	-18.04351
916.327	-1.00236
916.715	6.01467
917.103	13.02981
917.491	-19.04381
917.878	-5.01139
918.266	-12.02961
918.654	47.11466
919.041	-24.0601
919.429	-15.03357
919.816	7.01669
920.203	-8.01836
920.591	8.01855
920.978	12.02754
921.365	-31.07756
921.752	44.09836
922.139	66.13213
922.525	-35.07971
922.912	-15.03442
923.299	29.06826
923.685	10.02484
924.072	-25.0534
924.458	-13.03057
924.844	2.00467
925.231	-24.05219
925.617	4.00984
926.003	10.02421
926.389	6.0145
926.774	26.06254
927.16	10.02328
927.546	-10.02444
927.931	-11.026
928.317	-39.08287
928.702	13.02848
929.088	-7.01568
929.473	12.02897
929.858	15.03489
930.243	28.06347
930.628	-10.0229
931.013	40.09446
931.398	2.00424
931.783	32.07976
932.167	11.02514
932.552	-33.07749
932.937	4.0092
933.321	-21.04987
933.705	30.07221
934.09	-9.02119
934.474	28.06192
934.858	19.04701
935.242	7.01546
935.626	-20.04856
936.009	-23.05861
936.393	57.13765
936.777	10.02454
937.16	-62.15308
937.544	10.02192
937.927	3.00725
938.311	32.07239
938.694	32.08014
939.077	-28.06285
939.46	33.07622
939.843	-5.00943
940.226	-12.02912
940.609	16.03402
940.991	-1.00242
941.374	-14.03216
941.757	-3.00697
942.139	-21.04373
942.522	27.05852
942.904	-8.01819
943.286	-1.00238
943.668	-10.02465
944.05	20.04629
944.432	-9.02113
944.814	8.01836
945.196	-6.01404
945.578	-27.06166
945.959	13.02857
946.341	-51.11648
946.722	6.01325
947.104	-67.1511
947.485	-40.08761
947.866	-1.00241
948.247	9.02151
948.628	29.06567
949.009	-32.07866
949.39	-61.14201
949.771	21.04505
950.152	-14.03274
950.532	39.09326
950.913	-1.00224
951.293	-4.01046
951.674	14.03149
952.054	12.02818
952.434	-27.06305
952.814	-28.06166
953.194	47.11645
953.574	-63.14568
953.954	-14.03134
954.334	40.09416
954.714	-9.02082
955.093	-33.07582
955.473	-33.07791
955.853	0
956.232	18.04715
956.611	-54.12032
956.99	-25.06012
957.37	-8.01937
957.749	17.03751
958.128	23.05535
958.506	59.14559
958.885	-33.07894
959.264	-29.06764
959.643	27.05717
960.021	-20.04712
960.4	61.12951
960.778	5.01135
961.156	-42.10045
961.535	-29.06195
961.913	-41.08841
962.291	22.05424
962.669	-24.05814
963.047	-76.18398
963.424	32.07744
963.802	-46.10643
964.18	35.08254
964.557	-20.0424
964.935	-16.03549
965.312	21.05226
965.69	37.08634
966.067	-13.02962
966.444	9.02085
966.821	-7.01704
967.198	-6.01346
967.575	0
967.952	40.08764
968.329	-25.05728
968.705	-14.0273
969.082	5.01227
969.458	40.091
969.835	9.02054
970.211	-5.01222
970.587	12.02816
970.963	20.04836
971.339	34.0849
971.715	-52.1217
972.091	-3.00695
972.467	-51.11901
972.843	-4.0094
973.219	-1.00221
973.594	-27.06773
973.97	-11.02422
974.345	-9.02026
974.721	9.0203
975.096	-48.10912
975.471	-8.0179
975.846	5.01138
976.221	16.0385
976.596	-29.06583
976.971	9.02094
977.346	-52.11259
977.72	-33.07999
978.095	5.01231
978.469	50.11117
978.844	15.03543
979.218	19.04315
979.593	35.07835
979.967	26.05977
980.341	-2.00427
980.715	26.06128
981.089	-5.0117
981.463	11.02387
981.837	-7.01631
982.21	7.01504
982.584	-38.08645
982.957	2.00477
983.331	16.03534
983.704	46.10656
984.078	-6.01387
984.451	-45.10389
984.824	-19.04423
985.197	33.07461
985.57	-5.01173
985.943	-32.07319
986.316	29.06661
986.688	50.1115
987.061	23.0496
987.434	33.08152
987.806	-12.02725
988.179	-17.03745
988.551	-21.05018
988.923	10.02308
989.295	13.03048
989.667	22.0504
990.039	14.03278
990.411	48.10331
990.783	8.01705
991.155	34.07776
991.527	-13.02947
991.898	3.00701
992.27	-17.03995
992.641	35.08183
993.012	59.12947
993.384	0
993.755	5.012
994.126	-7.01589
994.497	-40.09321
994.868	47.10022
995.239	26.05939
995.61	-16.03808
995.98	7.01619
996.351	4.00944
996.722	2.00438
997.092	21.04709
997.462	25.05525
997.833	33.07238
998.203	-13.02949
998.573	8.01897
998.943	-27.05885
999.313	16.03617
999.683	-61.13774
1000.053	5.0108
1000.423	32.07271
1000.792	-17.0421
1001.162	48.11119
1001.531	5.0117
1001.901	-38.0896
1002.27	11.02298
1002.639	-27.06606
1003.009	30.06764
1003.378	-8.01948
1003.747	46.10037
1004.116	-9.02043
1004.485	62.13843
1004.853	-21.05062
1005.222	65.15507
1005.591	-1.0022
1005.959	52.10985
1006.328	-13.02721
1006.696	-3.00687
1007.064	-2.00477
1007.433	18.04262
1007.801	-14.03216
1008.169	-28.06668
1008.537	20.04114
1008.905	-5.01098
1009.273	-33.07725
1009.64	16.03602
1010.008	-14.0313
1010.375	50.11265
1010.743	55.11396
1011.11	4.00891
1011.478	35.08093
1011.845	-11.02383
1012.212	-50.10539
1012.579	1.00232
1012.946	-24.05285
1013.313	16.03543
1013.68	40.08212
1014.047	33.07467
1014.414	22.04908
1014.78	46.10825
1015.147	-14.03136
1015.513	39.08925
1015.88	-6.01432
1016.246	31.07191
1016.612	-25.05301
1016.978	-31.07168
1017.344	47.11002
1017.71	-2.00448
1018.076	-7.01542
1018.442	-25.06096
1018.808	20.04716
1019.174	-41.09736
1019.539	-7.01454
1019.905	27.05985
1020.27	44.10277
1020.636	-1.00224
1021.001	16.03555
1021.366	-9.02079
1021.731	47.11427
1022.096	-5.01209
1022.461	-41.0905
1022.826	8.01785
1023.191	-14.03511
1023.556	-3.00648
1023.92	-3.00686
1024.285	-41.09443
1024.649	6.01384
1025.014	-2.00466
1025.378	33.07897
1025.742	-7.01641
1026.107	24.04954
1026.471	-40.08583
1026.835	-31.07205
1027.199	-27.06191
1027.562	22.04794
1027.926	14.03198
1028.29	4.00961
1028.654	1.00212
1029.017	23.05325
1029.381	-16.03624
1029.744	18.04372
1030.107	-15.03264
1030.471	4.00894
1030.834	-52.10922
1031.197	-9.02002
1031.56	15.03348
1031.923	-22.05416
1032.286	1.00218
1032.648	-11.02452
1033.011	33.07049
1033.374	-32.06964
1033.736	-62.15689
1034.099	-19.04406
1034.461	-23.05586
1034.823	-12.02813
1035.185	-28.06586
1035.548	14.03188
1035.91	13.02943
1036.272	-24.05125
1036.634	-17.03867
1036.995	36.07955
1037.357	12.02751
1037.719	58.13089
1038.08	-34.07459
1038.442	25.05668
1038.803	17.03785
1039.165	-15.036
1039.526	25.05657
1039.887	21.04736
1040.248	70.16447
1040.609	14.03243
1040.97	2.00459
1041.331	-69.1643
1041.692	18.03962
1042.053	-25.05266
1042.413	-3.00644
1042.774	14.03172
1043.134	-13.02867
1043.495	3.00706
1043.855	23.05227
1044.215	10.02328
1044.576	13.02939
1044.936	45.09583
1045.296	15.03499
1045.656	1.00231
1046.016	-28.06285
1046.375	-1.00231
1046.735	42.08931
1047.095	17.03718
1047.454	65.12449
1047.814	-21.04719
1048.173	-27.0595
1048.533	43.09173
1048.892	-5.01141
1049.251	69.16139
1049.61	-8.01835
1049.969	41.09057
1050.328	9.01771
1050.687	8.01823
1051.046	41.09405
1051.405	-38.08848
1051.763	-12.026
1052.122	37.08763
1052.48	15.03427
1052.839	-20.04436
1053.197	33.07238
1053.555	-41.08419
1053.914	1.00229
1054.272	41.09186
1054.63	-68.15758
1054.988	-17.0379
1055.345	-38.07513
1055.703	5.01115
1056.061	-18.04413
1056.419	0
1056.776	-9.02042
1057.134	-26.05632
1057.491	-18.04256
1057.848	-22.05149
1058.206	39.08493
1058.563	63.12861
1058.92	-7.01487
1059.277	-25.05719
1059.634	-40.08661
1059.991	34.07626
1060.348	-13.02776
1060.704	-10.02248
1061.061	-39.08302
1061.418	15.03438
1061.774	16.03774
1062.131	56.14317
1062.487	-4.00868
1062.843	11.02578
1063.199	-3.0071
1063.555	15.03269
1063.911	-4.00951
1064.267	25.04612
1064.623	33.07591
1064.979	-12.02587
1065.335	-27.05962
1065.691	32.07227
1066.046	4.00805
1066.402	17.03581
1066.757	16.03813
1067.112	-28.06417
1067.468	6.01353
1067.823	8.01809
1068.178	25.05694
1068.533	-16.03621
1068.888	-12.02659
1069.243	7.01636
1069.598	-66.15003
1069.952	16.03417
1070.307	19.04507
1070.662	10.02232
1071.016	4.00843
1071.371	-16.03384
1071.725	-59.1299
1072.079	-36.08164
1072.434	-66.15252
1072.788	55.12247
1073.142	53.1227
1073.496	-43.09658
1073.85	-39.08489
1074.203	-22.05011
1074.557	-19.04874
1074.911	39.08529
1075.265	3.00641
1075.618	67.15246
1075.971	-45.10057
1076.325	-35.08487
1076.678	43.09093
1077.031	-23.04855
1077.385	34.06946
1077.738	13.02733
1078.091	-21.04554
1078.444	-9.01922
1078.796	-34.07976
1079.149	-15.03475
1079.502	-7.01557
1079.855	19.04153
1080.207	-14.03244
1080.56	2.0049
1080.912	-48.10894
1081.264	-1.00226
1081.617	3.0069
1081.969	12.02919
1082.321	17.03897
1082.673	27.05805
1083.025	-13.02867
1083.377	-45.08828
1083.728	-52.11192
1084.08	32.07551
1084.432	-27.05992
1084.783	52.11394
1085.135	64.15219
1085.486	7.01508
1085.838	10.02316
1086.189	-34.07807
1086.54	19.04234
1086.891	17.04121
1087.242	-62.14243
1087.593	-9.02041
1087.944	20.04175
1088.295	19.03946
1088.646	-6.01372
1088.996	-31.07046
1089.347	5.01145
1089.698	-15.03373
1090.048	4.00976
1090.398	9.01957
1090.749	38.08491
1091.099	16.03841
1091.449	-29.06796
1091.799	-17.0402
1092.149	19.04465
1092.499	13.02989
1092.849	-33.08008
1093.199	17.03981
1093.548	14.03175
1093.898	4.00948
1094.248	-27.06604
1094.597	-4.00986
1094.947	-7.01779
1095.296	29.06671
1095.645	5.01227
1095.994	50.11228
1096.343	64.15236
1096.692	-2.00507
1097.041	-8.02094
1097.39	-55.13111
1097.739	11.02724
1098.088	-9.02273
1098.437	-37.09378
1098.785	-24.06166
1099.134	-8.01996
1099.482	-53.13955
1099.83	-25.06246
1100.179	32.08031
1100.527	-39.09864
1100.875	-27.06836
1101.223	7.01787
1101.571	-1.00267
1101.919	-2.00503
1102.267	7.0192
1102.615	5.01607
1102.962	11.03526
1103.31	8.02568
1103.658	-4.01283
