Data from N3 R5 sample 6_Subt2__3__14-21-18-552.txt Node

Date: Thu Sep 18 14:21:18 PDT 2025
User: uwsun
Spectrometer: HDX01956
Trigger mode: 0
Integration Time (sec): 5.000000E-1
Scans to average: 1
Nonlinearity correction enabled: true
Boxcar width: 0
Storing dark spectrum: false
XAxis mode: Wavelengths
Number of Pixels in Spectrum: 2068
>>>>>Begin Spectral Data<<<<<
194.03	64.18412
194.578	78.25143
195.127	81.25749
195.676	76.24151
196.225	82.21375
196.773	99.27234
197.321	139.37982
197.87	206.51493
198.418	208.525
198.966	246.62797
199.513	217.538
200.061	208.51258
200.609	172.44357
201.156	141.29765
201.704	196.47838
202.251	198.5115
202.798	183.46627
203.345	224.5359
203.892	193.47273
204.438	196.45456
204.985	183.425
205.532	281.72674
206.078	226.53676
206.624	257.61237
207.17	230.51286
207.716	137.32382
208.262	210.3955
208.808	235.56553
209.354	213.50208
209.899	180.44032
210.445	226.54934
210.99	163.38587
211.535	235.52997
212.08	211.47196
212.625	190.46184
213.17	196.48052
213.715	189.41332
214.259	252.5654
214.804	240.56605
215.348	237.51873
215.892	255.58868
216.436	323.70843
216.98	178.377
217.524	197.45063
218.068	187.45702
218.612	214.5151
219.155	178.40578
219.698	184.41996
220.242	193.46377
220.785	217.48838
221.328	211.50817
221.871	206.50279
222.414	155.37005
222.956	195.4568
223.499	189.40895
224.041	177.39134
224.583	212.43289
225.126	217.46552
225.668	171.40387
226.21	185.45011
226.751	153.31958
227.293	178.38754
227.835	196.45905
228.376	194.42489
228.918	207.50212
229.459	224.54305
230	197.45063
230.541	171.37728
231.082	191.4469
231.622	188.41661
232.163	246.57502
232.704	156.37465
233.244	204.48675
233.784	231.5354
234.324	221.47042
234.864	143.3126
235.404	204.45978
235.944	142.32319
236.484	147.35203
237.023	224.50816
237.563	171.38076
238.102	186.42247
238.641	222.54305
239.18	172.39162
239.719	213.51823
240.258	185.39619
240.797	219.50457
241.335	184.42757
241.874	283.51087
242.412	158.366
242.95	244.56161
243.488	177.38921
244.026	213.47152
244.564	216.42062
245.102	171.37032
245.64	222.50934
246.177	202.42951
246.715	203.46117
247.252	180.3924
247.789	153.25911
248.326	174.39938
248.863	187.39025
249.4	274.59426
249.936	230.44532
250.473	204.45752
251.009	212.4696
251.546	209.44178
252.082	228.47909
252.618	229.48978
253.154	205.4727
253.69	228.48648
254.226	201.45848
254.761	185.39242
255.297	186.39221
255.832	196.44265
256.367	250.55538
256.903	184.38425
257.438	131.29532
257.972	172.36461
258.507	195.43491
259.042	153.31277
259.576	225.46246
260.111	222.48621
260.645	255.52246
261.179	211.46748
261.713	168.35691
262.247	267.58858
262.781	224.44929
263.315	212.49866
263.849	206.49528
264.382	198.43255
264.915	247.5543
265.449	198.46718
265.982	204.43716
266.515	242.563
267.048	212.42974
267.58	185.37939
268.113	236.48758
268.646	245.58244
269.178	169.36412
269.71	206.42599
270.243	214.46552
270.775	221.5403
271.307	210.47601
271.838	270.6003
272.37	228.539
272.902	221.48248
273.433	202.41828
273.965	256.60027
274.496	210.49492
275.027	225.53119
275.558	202.46977
276.089	239.57451
276.62	195.47532
277.15	213.50208
277.681	197.39979
278.211	200.46659
278.741	230.48755
279.272	242.52553
279.802	224.53753
280.332	228.51429
280.861	241.55237
281.391	220.47348
281.921	176.40268
282.45	259.62423
282.98	231.58023
283.509	241.51343
284.038	192.4118
284.567	192.42122
285.096	236.54558
285.625	313.6755
286.153	223.49756
286.682	220.47613
287.21	194.44867
287.739	223.49921
288.267	257.59518
288.795	210.53042
289.323	280.62821
289.851	269.59249
290.378	246.52466
290.906	297.68453
291.433	242.57741
291.961	221.4739
292.488	260.61678
293.015	275.61915
293.542	259.62305
294.069	239.56118
294.596	275.64468
295.122	263.59674
295.649	294.61477
296.175	251.57021
296.702	263.59819
297.228	234.53321
297.754	274.57853
298.28	266.56903
298.806	260.59867
299.332	251.52637
299.857	277.58705
300.383	272.64773
300.908	221.52033
301.433	293.67747
301.958	233.50265
302.483	273.65821
303.008	262.61073
303.533	257.62713
304.058	300.66229
304.582	346.76542
305.107	299.74694
305.631	331.69658
306.155	301.66797
306.679	299.66132
307.203	309.6763
307.727	311.69933
308.251	303.70503
308.775	300.67059
309.298	328.74556
309.822	321.76307
310.345	316.70402
310.868	310.69751
311.391	355.81459
311.914	366.86014
312.437	305.6461
312.96	303.6766
313.482	305.685
314.005	330.78069
314.527	332.8268
315.049	353.8304
315.571	388.81813
316.093	375.87321
316.615	374.84803
317.137	370.73629
317.659	388.86261
318.18	399.89386
318.702	414.88904
319.223	379.714
319.744	415.85988
320.265	359.81849
320.786	387.8944
321.307	394.91798
321.828	409.86071
322.348	357.79024
322.869	343.74532
323.389	646.02504
323.909	426.89943
324.43	430.94525
324.95	419.88834
325.47	431.98497
325.989	435.96406
326.509	442.89432
327.029	431.89223
327.548	418.87093
328.067	460.0147
328.587	442.01753
329.106	468.9647
329.625	404.97119
330.144	409.86184
330.662	457.97016
331.181	494.05113
331.7	477.01379
332.218	521.02131
332.736	513.0734
333.255	502.0566
333.773	532.13753
334.291	524.16962
334.808	483.96676
335.326	580.16373
335.844	584.22518
336.361	562.28242
336.879	530.11075
337.396	524.12765
337.913	559.13987
338.43	648.28903
338.947	594.261
339.464	555.05477
339.981	628.324
340.497	606.33564
341.014	624.33398
341.53	651.29952
342.046	640.39535
342.562	639.40934
343.078	647.33156
343.594	737.53063
344.11	665.38032
344.626	719.59188
345.141	752.47958
345.657	719.37971
346.172	659.3861
346.687	772.51613
347.202	727.39978
347.717	728.50621
348.232	767.66085
348.747	713.41425
349.261	802.50783
349.776	742.48727
350.29	774.65713
350.805	785.64635
351.319	824.62296
351.833	820.57953
352.347	748.47998
352.861	793.5717
353.374	784.51369
353.888	792.61758
354.401	860.64323
354.915	826.56522
355.428	846.79191
355.941	889.72781
356.454	886.63507
356.967	896.76662
357.48	841.60803
357.993	876.80708
358.505	922.90035
359.018	884.78449
359.53	914.81647
360.042	891.59149
360.554	905.80899
361.066	895.80878
361.578	1018.77837
362.09	956.86746
362.602	957.70265
363.113	931.73327
363.625	996.8202
364.136	957.69124
364.647	996.87696
365.158	1040.94474
365.669	1065.07871
366.18	952.77988
366.691	1071.85019
367.201	1017.94326
367.712	1008.80148
368.222	1147.06981
368.733	1056.81985
369.243	1004.74006
369.753	1108.98476
370.263	1074.00903
370.773	1160.25444
371.282	1159.1308
371.792	1165.04066
372.301	1246.3101
372.811	1243.5192
373.32	1284.98404
373.829	1295.31665
374.338	1335.16294
374.847	1322.21898
375.356	1431.48943
375.865	1436.12607
376.373	1549.42474
376.882	1573.8321
377.39	1581.67463
377.898	1612.81275
378.407	1667.45094
378.915	1722.36059
379.423	1862.82049
379.93	1879.63362
380.438	1985.05396
380.946	2146.93916
381.453	2182.06328
381.96	2267.04754
382.468	2440.12245
382.975	2586.32863
383.482	2574.8538
383.989	2746.61436
384.495	2828.99697
385.002	3011.48437
385.509	3080.01466
386.015	3399.17091
386.521	3429.65362
387.028	3643.66983
387.534	3650.35374
388.04	3813.83184
388.546	3925.35821
389.051	4176.15226
389.557	4430.36577
390.063	4942.07148
390.568	5074.12534
391.073	5134.73458
391.578	5316.03312
392.084	5494.38992
392.589	5725.22528
393.093	6156.43685
393.598	6764.17579
394.103	7316.5023
394.607	8024.94365
395.112	8708.89698
395.616	9239.88502
396.12	9945.86397
396.624	11151.63287
397.128	12122.73351
397.632	13263.02302
398.136	14565.30895
398.639	15449.77057
399.143	17052.1641
399.646	19471.79255
400.15	21533.10936
400.653	23967.97342
401.156	26804.13582
401.659	31179.96175
402.162	38509.69112
402.664	50833.54465
403.167	60861.47218
403.67	61009.11914
404.172	55487.84425
404.674	37291.05854
405.176	4428.40989
405.678	533.47942
406.18	0
406.682	0
407.184	6962.89417
407.686	50953.82939
408.187	59237.6763
408.688	61091.12691
409.19	61923.45898
409.691	62441.93235
410.192	60519.03545
410.693	52772.16575
411.194	47337.56163
411.694	44914.66294
412.195	41433.81587
412.696	37477.08711
413.196	34741.55442
413.696	33690.8065
414.196	33970.63885
414.696	33106.57335
415.196	31499.79466
415.696	28417.07797
416.196	23222.52739
416.695	18116.33392
417.195	15508.42121
417.694	14685.90658
418.194	13705.15362
418.693	12895.47695
419.192	12498.22085
419.691	12239.55371
420.19	11830.05784
420.688	11517.09813
421.187	11062.06815
421.685	10479.72462
422.184	9261.94101
422.682	8197.97292
423.18	7012.25859
423.678	6254.21833
424.176	5808.36977
424.674	5351.3255
425.172	5299.77308
425.669	4966.35384
426.167	4568.12104
426.664	4264.21289
427.161	3834.44361
427.659	3591.04976
428.156	3314.28116
428.652	3135.36283
429.149	3113.111
429.646	2813.56982
430.143	2789.07832
430.639	2606.98639
431.135	2350.1416
431.632	2259.73548
432.128	2198.9933
432.624	2027.1358
433.12	2013.67473
433.616	1836.38875
434.111	1870.77481
434.607	1817.73442
435.103	1696.14251
435.598	1689.11959
436.093	1588.43451
436.588	1536.29634
437.083	1410.18693
437.578	1368.17789
438.073	1262.30523
438.568	1297.30368
439.062	1217.85738
439.557	1213.07645
440.051	1100.87585
440.546	1113.91689
441.04	1053.90674
441.534	1108.17961
442.028	1030.91654
442.522	1002.89013
443.015	1005.67617
443.509	1056.01405
444.002	987.91401
444.496	889.49671
444.989	985.91829
445.482	883.77392
445.975	965.72666
446.468	921.54402
446.961	869.44865
447.454	834.48984
447.947	910.75569
448.439	876.74571
448.931	845.53477
449.424	771.5871
449.916	779.53817
450.408	848.57261
450.9	756.52095
451.392	755.60495
451.884	722.34918
452.375	724.49526
452.867	747.37843
453.358	672.2593
453.849	726.25384
454.341	752.39287
454.832	693.23522
455.323	689.42066
455.814	663.2684
456.304	681.30416
456.795	689.29407
457.285	684.24463
457.776	571.08471
458.266	644.30902
458.756	579.17858
459.247	569.16029
459.737	640.31152
460.226	588.12603
460.716	614.25816
461.206	593.20219
461.695	588.27968
462.185	585.19081
462.674	579.12079
463.163	546.02326
463.653	608.07361
464.142	477.00366
464.63	528.12068
465.119	564.13366
465.608	489.97832
466.096	472.89862
466.585	480.95208
467.073	449.93822
467.561	534.13541
468.05	489.98058
468.538	526.14263
469.026	515.08282
469.513	414.76788
470.001	411.82531
470.489	422.88747
470.976	417.85398
471.463	419.94445
471.951	411.9215
472.438	397.83729
472.925	361.75201
473.412	318.70378
473.899	420.85993
474.385	416.91333
474.872	356.74539
475.359	347.76907
475.845	276.51956
476.331	376.71757
476.817	277.61343
477.303	313.66073
477.789	352.76568
478.275	358.80879
478.761	250.55376
479.247	292.59082
479.732	315.72543
480.218	276.66507
480.703	336.7727
481.188	263.51178
481.673	309.64685
482.158	274.53839
482.643	299.69874
483.128	217.45688
483.612	287.61063
484.097	311.69417
484.581	209.44352
485.066	228.51219
485.55	211.42507
486.034	268.53754
486.518	246.53626
487.002	265.60079
487.486	222.50607
487.969	228.52688
488.453	223.5281
488.936	196.40985
489.42	259.5273
489.903	212.50021
490.386	236.4681
490.869	176.35073
491.352	208.47148
491.835	166.3154
492.318	179.38135
492.8	129.24839
493.283	200.48214
493.765	162.37898
494.247	153.33304
494.73	139.28957
495.212	158.35815
495.694	154.33985
496.175	114.25852
496.657	216.48444
497.139	73.11453
497.62	163.36805
498.102	169.39853
498.583	119.2803
499.064	124.2663
499.545	155.33252
500.026	174.36498
500.507	122.26551
500.988	134.31299
501.469	97.23114
501.949	93.21752
502.43	104.23527
502.91	111.2162
503.39	111.26461
503.87	142.31756
504.35	147.32311
504.83	106.22107
505.31	104.24215
505.79	99.22655
506.269	101.22321
506.749	86.1874
507.228	123.27456
507.707	133.27818
508.187	155.34585
508.666	91.21293
509.145	136.301
509.623	114.25421
510.102	127.2911
510.581	131.29677
511.059	170.40749
511.538	142.34801
512.016	142.32397
512.494	143.32579
512.972	132.30092
513.45	165.36572
513.928	146.33659
514.406	174.40529
514.884	173.42752
515.361	203.4608
515.839	141.30262
516.316	176.3957
516.793	167.39855
517.27	222.50526
517.747	196.47553
518.224	188.40496
518.701	193.40313
519.178	229.54231
519.654	137.30164
520.131	118.27562
520.607	190.44308
521.083	153.33233
521.56	102.22905
522.036	174.35965
522.512	184.42673
522.987	194.43867
523.463	167.37662
523.939	153.35519
524.414	170.36588
524.89	141.31461
525.365	136.29522
525.84	197.4528
526.315	137.31124
526.79	117.24861
527.265	83.17883
527.74	116.26935
528.215	161.35998
528.689	97.20836
529.164	62.12643
529.638	148.36312
530.112	157.35538
530.587	136.27859
531.061	70.16376
531.534	74.17122
532.008	102.23619
532.482	29.06305
532.956	152.37514
533.429	68.15427
533.903	86.17991
534.376	93.19555
534.849	120.26615
535.322	100.22585
535.795	54.12752
536.268	131.30219
536.741	79.18209
537.213	123.27149
537.686	60.1402
538.158	81.17467
538.631	68.1579
539.103	58.12531
539.575	75.14893
540.047	107.2232
540.519	91.2064
540.991	84.19543
541.463	110.25602
541.934	106.23235
542.406	55.12718
542.877	62.13436
543.348	9.02063
543.82	95.22264
544.291	54.11942
544.762	107.2421
545.233	138.33394
545.703	92.19579
546.174	108.24133
546.645	99.23183
547.115	62.14482
547.585	161.35492
548.056	150.35118
548.526	114.25736
548.996	91.21001
549.466	76.17738
549.935	136.31241
550.405	108.22894
550.875	116.26145
551.344	125.28916
551.814	59.12865
552.283	124.25377
552.752	100.22262
553.221	95.19764
553.69	161.33942
554.159	147.35015
554.628	88.18866
555.096	94.22927
555.565	123.26011
556.033	103.23087
556.502	80.18591
556.97	103.21667
557.438	95.21591
557.906	78.17782
558.374	58.12821
558.842	51.11826
559.31	59.12619
559.777	62.14578
560.245	66.1473
560.712	18.03976
561.18	31.06613
561.647	40.08602
562.114	40.08838
562.581	71.16958
563.048	19.04192
563.514	85.202
563.981	14.03101
564.448	72.15589
564.914	61.13628
565.381	5.01091
565.847	83.18543
566.313	44.0986
566.779	74.16221
567.245	47.10656
567.711	118.27226
568.176	120.26415
568.642	44.10812
569.108	40.09567
569.573	41.09213
570.038	133.26683
570.504	90.19645
570.969	59.14269
571.434	64.13697
571.899	91.2095
572.363	61.13374
572.828	81.17639
573.293	77.17039
573.757	125.27591
574.222	127.27422
574.686	114.24641
575.15	107.24526
575.614	124.27055
576.078	83.18719
576.542	120.26238
577.006	155.33424
577.469	113.26534
577.933	115.24394
578.396	166.37873
578.86	94.21109
579.323	146.33122
579.786	118.24139
580.249	100.21939
580.712	78.18226
581.175	96.22801
581.637	158.34809
582.1	94.19578
582.563	95.18839
583.025	86.20095
583.487	62.11952
583.95	126.25845
584.412	120.23668
584.874	113.26161
585.336	133.3013
585.797	63.13054
586.259	41.09175
586.721	112.25171
587.182	95.20864
587.643	130.27955
588.105	71.16254
588.566	113.22576
589.027	109.25455
589.488	27.05937
589.949	85.19538
590.41	80.15111
590.87	85.18148
591.331	73.14801
591.791	42.09238
592.252	52.1149
592.712	76.17507
593.172	66.14272
593.632	18.03701
594.092	57.12197
594.552	21.04334
595.011	96.21256
595.471	86.1835
595.931	56.11959
596.39	85.19585
596.849	61.13611
597.308	83.17067
597.768	47.11581
598.227	99.2281
598.685	76.16378
599.144	68.15232
599.603	64.14549
600.062	19.03826
600.52	91.19429
600.978	62.14254
601.437	70.15267
601.895	44.08956
602.353	66.1382
602.811	58.12311
603.269	43.09864
603.727	97.2218
604.184	43.09348
604.642	64.15002
605.099	30.06687
605.557	33.07667
606.014	36.07438
606.471	74.17975
606.928	105.22341
607.385	97.23035
607.842	95.21048
608.299	105.23215
608.755	56.12962
609.212	99.2111
609.668	63.13521
610.125	84.19227
610.581	112.24613
611.037	121.25913
611.493	53.11904
611.949	79.18224
612.405	58.11246
612.861	73.16073
613.316	69.15924
613.772	122.26528
614.227	49.11128
614.683	77.15698
615.138	87.19725
615.593	35.07751
616.048	42.09074
616.503	51.12008
616.958	103.24591
617.412	58.13147
617.867	51.10984
618.321	-11.02148
618.776	58.1222
619.23	42.09575
619.684	99.20899
620.138	39.08468
620.592	29.06746
621.046	7.01575
621.5	65.15036
621.954	60.12758
622.407	115.23989
622.861	-7.01621
623.314	82.17732
623.768	88.19534
624.221	98.1832
624.674	35.07632
625.127	51.11413
625.58	-7.01499
626.033	42.08685
626.485	-7.01615
626.938	17.03861
627.39	49.10897
627.843	42.09191
628.295	60.1323
628.747	50.11352
629.199	117.25306
629.651	21.046
630.103	47.10361
630.555	-36.07308
631.006	16.03599
631.458	-20.04489
631.909	47.10174
632.361	-3.00666
632.812	20.04456
633.263	-3.00614
633.714	-12.02428
634.165	-11.02518
634.616	-25.05712
635.067	-1.00209
635.518	-23.0521
635.968	67.12541
636.419	-1.00205
636.869	-1.00226
637.319	22.04863
637.769	20.04312
638.219	-37.08403
638.669	-10.02316
639.119	3.007
639.569	52.12108
640.019	17.03743
640.468	-24.05085
640.918	-3.00693
641.367	7.01512
641.816	3.00647
642.265	1.00222
642.714	23.0514
643.163	-27.0591
643.612	-7.0165
644.061	-34.06902
644.51	-32.07118
644.958	5.01057
645.406	29.06701
645.855	16.03759
646.303	20.04451
646.751	59.12903
647.199	-32.06923
647.647	23.05153
648.095	-7.01541
648.543	-9.01737
648.99	34.07842
649.438	18.0407
649.885	60.14322
650.333	11.01993
650.78	46.1085
651.227	2.00474
651.674	28.06145
652.121	-43.1005
652.568	-5.01178
653.015	-38.09168
653.461	-4.00921
653.908	-3.00673
654.354	-1.00227
654.801	-3.00683
655.247	2.0042
655.693	31.07812
656.139	44.10079
656.585	26.06016
657.031	21.04775
657.477	43.08954
657.922	57.1265
658.368	22.05199
658.813	-56.12374
659.259	0
659.704	11.02496
660.149	2.0045
660.594	5.0115
661.039	-7.01555
661.484	46.10533
661.929	6.0135
662.373	37.09134
662.818	39.09404
663.262	18.04166
663.707	-34.0837
664.151	52.12351
664.595	2.00469
665.039	12.02872
665.483	45.11149
665.927	17.03829
666.371	-31.07074
666.814	20.04593
667.258	-4.00931
667.701	28.05668
668.145	61.14463
668.588	41.09725
669.031	41.09375
669.474	9.02093
669.917	29.06111
670.36	10.02387
670.803	36.08316
671.245	22.04407
671.688	24.05615
672.13	7.01508
672.573	82.2003
673.015	26.05989
673.457	67.14007
673.899	45.10397
674.341	5.01166
674.783	18.04199
675.225	19.04508
675.666	-17.04003
676.108	43.08974
676.549	33.07464
676.991	-2.00423
677.432	-48.09151
677.873	70.15344
678.314	33.07555
678.755	22.05203
679.196	46.10168
679.637	-5.01171
680.078	29.06487
680.518	15.03293
680.959	40.09181
681.399	43.10164
681.839	34.07945
682.28	36.08616
682.72	10.02193
683.16	56.13434
683.6	52.11278
684.039	71.13869
684.479	30.07112
684.919	33.07406
685.358	13.03171
685.798	-20.05079
686.237	26.06018
686.676	35.07742
687.115	22.04967
687.554	20.04565
687.993	25.05194
688.432	38.08403
688.871	11.02401
689.309	112.26016
689.748	9.01797
690.186	30.06789
690.625	52.11878
691.063	57.13228
691.501	72.17035
691.939	16.0386
692.377	7.01656
692.815	27.063
693.253	5.01145
693.69	8.01685
694.128	51.12004
694.565	45.1031
695.003	36.08839
695.44	23.05172
695.877	39.08842
696.314	21.04293
696.751	100.213
697.188	59.13012
697.625	28.0607
698.061	0
698.498	21.04877
698.934	3.0069
699.371	37.08416
699.807	55.1246
700.243	51.1191
700.679	47.10135
701.115	43.09579
701.551	87.19565
701.987	15.03189
702.422	11.0251
702.858	-15.03429
703.294	11.02369
703.729	71.16678
704.164	41.09541
704.599	17.03595
705.035	50.10706
705.47	45.10649
705.904	-18.04037
706.339	54.11742
706.774	-6.01346
707.209	2.00442
707.643	29.06685
708.078	34.0791
708.512	24.05906
708.946	34.07738
709.38	-10.02269
709.814	13.02823
710.248	39.08968
710.682	44.10104
711.116	45.10401
711.549	34.08382
711.983	-31.06871
712.416	0
712.85	13.03148
713.283	40.09034
713.716	8.01921
714.149	10.02255
714.582	62.132
715.015	40.09501
715.448	61.14424
715.881	50.1007
716.313	60.13457
716.746	8.01822
717.178	-18.04163
717.61	26.06342
718.043	10.02372
718.475	-28.0653
718.907	11.02628
719.339	8.01738
719.77	42.09652
720.202	28.06773
720.634	42.09856
721.065	42.09447
721.497	47.11023
721.928	35.08286
722.359	25.05882
722.79	26.05956
723.221	-36.08682
723.652	16.03918
724.083	-44.09535
724.514	-25.05403
724.945	13.02928
725.375	25.05567
725.806	-46.10909
726.236	48.11699
726.666	-6.0135
727.096	14.03262
727.526	11.02697
727.956	3.00651
728.386	11.02546
728.816	6.01467
729.246	11.02588
729.675	49.11618
730.105	-4.00939
730.534	-3.00672
730.964	-5.01198
731.393	4.0093
731.822	49.11989
732.251	70.16984
732.68	28.06083
733.109	34.08013
733.537	-8.0185
733.966	-3.00712
734.395	7.01526
734.823	-3.00637
735.251	-33.07673
735.68	25.05935
736.108	-9.02176
736.536	33.07369
736.964	-24.05307
737.392	4.0095
737.82	-14.03198
738.247	-37.08433
738.675	27.0602
739.102	33.07969
739.53	61.14914
739.957	39.09518
740.384	4.00928
740.811	55.13317
741.238	-6.01391
741.665	22.04926
742.092	10.02244
742.519	0
742.945	-36.08296
743.372	-1.00238
743.798	-21.05197
744.225	51.11413
744.651	-8.01915
745.077	23.05466
745.503	46.10525
745.929	3.00683
746.355	14.03246
746.781	-2.00473
747.207	-2.00455
747.632	-33.07818
748.058	-19.04503
748.483	-44.09596
748.908	-11.02621
749.334	15.03508
749.759	-27.06074
750.184	-29.06626
750.609	10.02326
751.033	-45.09983
751.458	101.21218
751.883	-13.03061
752.307	44.09958
752.732	-2.00487
753.156	-3.00708
753.58	26.05812
754.005	57.13843
754.429	-37.08201
754.853	-19.04545
755.277	52.11696
755.7	21.04947
756.124	34.08147
756.548	82.18376
756.971	0
757.394	15.03697
757.818	20.04969
758.241	23.05533
758.664	32.07796
759.087	52.11168
759.51	36.08508
759.933	3.00696
760.356	-33.08152
760.778	80.18899
761.201	5.01135
761.623	-46.10525
762.046	-22.04843
762.468	59.13263
762.89	37.08654
763.312	-23.05335
763.734	-25.05804
764.156	18.04256
764.578	5.01076
765	4.00931
765.421	39.09649
765.843	3.0076
766.264	15.03406
766.686	13.0315
767.107	26.06078
767.528	15.03687
767.949	7.01704
768.37	32.07422
768.791	-18.04138
769.212	51.12404
769.632	-26.05793
770.053	-8.02038
770.473	18.0418
770.894	-10.02363
771.314	46.10198
771.734	-43.09543
772.154	32.07851
772.575	52.11269
772.994	24.05172
773.414	-9.0201
773.834	5.01205
774.254	-4.0093
774.673	26.05968
775.093	8.01908
775.512	30.07093
775.931	58.1412
776.351	-56.13347
776.77	17.03984
777.189	8.01791
777.607	31.07588
778.026	-7.01685
778.445	-8.01953
778.864	10.02439
779.282	9.02038
779.701	33.07924
780.119	-67.1632
780.537	-16.03824
780.955	41.09856
781.373	-18.0426
781.791	20.04275
782.209	34.07415
782.627	38.09633
783.045	49.1058
783.462	-40.09793
783.88	2.005
784.297	-4.00965
784.715	33.08233
785.132	-18.04165
785.549	42.10122
785.966	-11.0264
786.383	2.00474
786.8	48.10486
787.217	-33.07467
787.633	-4.00959
788.05	-69.15288
788.466	21.04628
788.883	41.10065
789.299	-69.1586
789.715	62.14311
790.131	-8.01891
790.547	-22.05157
790.963	18.04254
791.379	-3.00729
791.795	-5.01076
792.21	-1.00221
792.626	-7.01576
793.041	-50.11793
793.457	18.04201
793.872	-10.02242
794.287	32.07433
794.702	-1.00233
795.117	-22.05199
795.532	-2.00486
795.947	20.04493
796.362	-12.0269
796.776	-25.05366
797.191	-52.12175
797.605	17.03872
798.02	33.07673
798.434	5.01034
798.848	-6.01399
799.262	31.07432
799.676	26.05927
800.09	-1.00233
800.504	-22.05086
800.918	-31.06808
801.331	7.01739
801.745	3.00647
802.158	-18.04295
802.572	34.0772
802.985	-41.09334
803.398	24.05398
803.811	27.0654
804.224	-33.07828
804.637	-46.103
805.05	-27.05935
805.462	11.0255
805.875	39.09832
806.288	-23.05371
806.7	-23.05533
807.112	24.05225
807.525	-3.00709
807.937	-4.00945
808.349	18.04259
808.761	-12.02765
809.173	-25.05703
809.584	13.03023
809.996	-24.05654
810.408	-27.06748
810.819	0
811.231	38.09616
811.642	87.20269
812.053	62.14111
812.464	97.21679
812.875	19.0464
813.286	11.02689
813.697	-27.05805
814.108	-13.02983
814.519	37.07595
814.929	-37.08942
815.34	-10.02298
815.75	2.00485
816.16	-16.03727
816.571	-22.05494
816.981	-33.07278
817.391	-14.03197
817.801	25.05978
818.211	51.11436
818.62	15.03401
819.03	-36.08316
819.44	9.02231
819.849	-9.02174
820.259	55.13342
820.668	39.09183
821.077	-16.03811
821.486	27.06029
821.895	-54.12509
822.304	21.05323
822.713	-10.02227
823.122	41.09733
823.531	59.13148
823.939	29.06685
824.348	42.09637
824.756	26.06128
825.164	6.0142
825.573	11.02624
825.981	55.12824
826.389	10.02346
826.797	23.0547
827.205	-8.01731
827.612	-26.06061
828.02	30.06695
828.428	3.00724
828.835	-21.05334
829.243	-16.03594
829.65	7.0166
830.057	54.12445
830.464	46.10677
830.871	7.01572
831.278	-3.00679
831.685	4.00822
832.092	47.10877
832.499	-35.07158
832.905	28.06745
833.312	27.0569
833.718	15.03515
834.124	44.09388
834.531	12.02849
834.937	-13.03151
835.343	31.0704
835.749	-5.01086
836.155	-2.00499
836.561	-72.16672
836.966	11.02529
837.372	13.03125
837.777	-8.01882
838.183	7.01411
838.588	36.08488
838.993	3.00681
839.399	-7.01615
839.804	7.01638
840.209	20.04887
840.613	59.12285
841.018	-24.05731
841.423	-32.07767
841.828	21.05023
842.232	-13.02994
842.637	-52.11466
843.041	55.13567
843.445	-26.06156
843.849	2.0047
844.253	-1.00221
844.657	31.07464
845.061	37.07828
845.465	58.13441
845.869	-20.04358
846.272	-4.00923
846.676	36.082
847.079	14.03415
847.483	55.12819
847.886	-14.03159
848.289	35.09066
848.692	-20.04818
849.095	3.0067
849.498	-12.02824
849.901	-19.04053
850.304	-5.01117
850.707	14.03373
851.109	-18.04239
851.512	50.11638
851.914	42.10232
852.316	14.03373
852.718	-37.09318
853.121	-1.00232
853.523	-12.02635
853.925	10.02495
854.326	18.04325
854.728	17.04155
855.13	10.02481
855.531	46.10491
855.933	18.0404
856.334	24.05696
856.736	-39.08164
857.137	-21.04614
857.538	6.01433
857.939	22.05179
858.34	21.04773
858.741	-12.02995
859.142	3.00682
859.542	66.16867
859.943	20.04743
860.343	-11.02612
860.744	39.08972
861.144	-4.00923
861.544	32.0736
861.945	-14.03375
862.345	-72.16533
862.745	-18.04257
863.145	18.03937
863.544	29.07022
863.944	-4.00885
864.344	-41.09564
864.743	39.0909
865.143	27.06569
865.542	-22.0479
865.941	43.10113
866.34	42.09416
866.74	17.04355
867.139	-5.01141
867.537	-10.02407
867.936	9.02051
868.335	43.10415
868.734	25.06131
869.132	55.11977
869.531	31.07003
869.929	-4.00867
870.327	30.06742
870.726	-5.01175
871.124	-2.00434
871.522	-26.06256
871.92	18.04173
872.318	28.06455
872.715	50.11518
873.113	-12.0278
873.511	-22.05231
873.908	13.032
874.306	0
874.703	33.07755
875.1	18.04323
875.497	-37.08362
875.894	19.04484
876.291	13.03037
876.688	19.0464
877.085	11.02465
877.482	12.02813
877.878	25.05675
878.275	-22.05308
878.671	-7.01406
879.068	6.0136
879.464	14.03195
879.86	36.08087
880.256	-1.0023
880.652	-14.03387
881.048	-20.04637
881.444	-38.08432
881.84	-37.08939
882.236	9.02148
882.631	1.00233
883.027	-35.07897
883.422	-34.08302
883.817	-6.01455
884.213	10.02444
884.608	-5.01177
885.003	0
885.398	-9.02141
885.793	7.01654
886.188	47.1114
886.582	-13.03105
886.977	17.0377
887.371	-19.04568
887.766	-7.01671
888.16	35.08231
888.554	4.00921
888.949	-9.02108
889.343	5.01133
889.737	2.0052
890.131	-8.01918
890.525	-24.05836
890.918	42.10053
891.312	-28.06202
891.706	34.08545
892.099	42.10014
892.492	57.11271
892.886	-14.0322
893.279	-12.02915
893.672	5.01214
894.065	9.0212
894.458	33.07797
894.851	-17.03872
895.244	-8.0195
895.637	-13.02969
896.029	-13.0301
896.422	-15.03449
896.814	10.02356
897.206	-22.0503
897.599	-17.03883
897.991	-4.00917
898.383	-32.07118
898.775	-6.01261
899.167	-20.04462
899.559	3.00715
899.951	10.02201
900.342	-57.13624
900.734	3.00724
901.125	-21.05214
901.517	48.11106
901.908	0
902.299	-2.00465
902.69	31.06845
903.082	35.07923
903.473	-2.00458
903.863	41.09991
904.254	-34.07412
904.645	-38.08855
905.036	62.14265
905.426	-46.09598
905.817	7.01619
906.207	24.05398
906.597	6.01324
906.987	-43.10521
907.378	-6.01431
907.768	6.01521
908.158	5.01153
908.547	14.03452
908.937	-40.09771
909.327	11.02498
909.717	-24.05736
910.106	0
910.495	37.08739
910.885	-47.1117
911.274	25.05925
911.663	72.17279
912.052	-3.00692
912.441	13.03167
912.83	-13.02782
913.219	-28.06918
913.608	8.01844
913.997	-30.07169
914.385	-3.00665
914.774	-28.0643
915.162	-5.01116
915.55	43.09718
915.939	-26.06294
916.327	8.01884
916.715	2.00489
917.103	13.02981
917.491	-8.01841
917.878	-73.16853
918.266	-27.0668
918.654	37.09043
919.041	-50.1258
919.429	-1.00223
919.816	-32.07688
920.203	-10.02295
920.591	-27.06305
920.978	26.05951
921.365	-1.00249
921.752	45.10057
922.139	46.09252
922.525	-36.082
922.912	0
923.299	-8.01896
923.685	-13.03242
924.072	3.00637
924.458	-7.01644
924.844	-19.04456
925.231	-31.06751
925.617	21.05152
926.003	32.07715
926.389	56.13403
926.774	-19.04609
927.16	-11.02572
927.546	-20.04896
927.931	3.00707
928.317	-35.07431
928.702	32.06982
929.088	-12.0269
929.473	-24.05834
929.858	18.04185
930.243	15.03409
930.628	27.06137
931.013	18.04269
931.398	5.0106
931.783	26.06488
932.167	-11.02525
932.552	-24.05626
932.937	3.0069
933.321	-70.1678
933.705	6.01451
934.09	-6.01412
934.474	41.09042
934.858	26.06424
935.242	52.11379
935.626	-33.08032
936.009	-36.09194
936.393	25.06074
936.777	28.06847
937.16	-82.2032
937.544	46.10007
937.927	-15.03639
938.311	-5.0114
938.694	22.05519
939.077	-49.11046
939.46	70.16048
939.843	-12.02267
940.226	-4.00969
940.609	-4.00854
940.991	1.00242
941.374	-48.11102
941.757	-7.01627
942.139	-23.04791
942.522	26.05637
942.904	18.04072
943.286	15.03563
943.668	-19.04692
944.05	-4.0093
944.432	18.04203
944.814	-5.0115
945.196	24.05582
945.578	10.02267
945.959	11.02419
946.341	-3.00679
946.722	13.02867
947.104	-31.0694
947.485	43.09253
947.866	8.01928
948.247	-22.0529
948.628	-33.07567
949.009	-12.02939
949.39	-50.11615
949.771	37.0791
950.152	-6.01401
950.532	39.09326
950.913	-43.09714
951.293	-7.01832
951.674	-44.10014
952.054	-40.0949
952.434	5.0116
952.814	-26.05723
953.194	30.07456
953.574	32.0726
953.954	-10.02236
954.334	-4.0095
954.714	-36.08372
955.093	-13.02975
955.473	-18.04237
955.853	22.05422
956.232	-26.06861
956.611	-18.03981
956.99	-9.02158
957.37	39.09358
957.749	-43.09606
958.128	17.04096
958.506	24.0596
958.885	-36.08616
959.264	-3.00696
959.643	-1.00213
960.021	3.00704
960.4	36.07685
960.778	27.06102
961.156	-12.02854
961.535	-67.14429
961.913	-49.10585
962.291	8.01977
962.669	-9.02174
963.047	-39.09375
963.424	13.03157
963.802	-11.02527
964.18	3.00712
964.557	-64.13697
964.935	4.00883
965.312	32.07947
965.69	-5.01176
966.067	-18.04105
966.444	-25.05831
966.821	10.02426
967.198	-21.04726
967.575	15.03422
967.952	15.03304
968.329	30.06798
968.705	-51.10033
969.082	25.06112
969.458	-19.04374
969.835	4.00914
970.211	-23.0564
970.587	18.04219
970.963	-18.04384
971.339	31.07745
971.715	-47.10989
972.091	18.0415
972.467	-43.10018
972.843	-31.07322
973.219	25.05507
973.594	-24.06017
973.97	2.00439
974.345	-27.06099
974.721	-12.02718
975.096	-45.10223
975.471	9.02007
975.846	41.09266
976.221	-1.00241
976.596	-47.10708
976.971	-10.02335
977.346	-65.14113
977.72	-6.01447
978.095	20.04911
978.469	32.07142
978.844	9.02128
979.218	-8.01827
979.593	41.09167
979.967	-1.00231
980.341	22.0467
980.715	-49.11717
981.089	-36.08475
981.463	43.09269
981.837	-11.02565
982.21	20.04284
982.584	-2.00452
982.957	-11.02629
983.331	32.07044
983.704	17.03961
984.078	-16.03706
984.451	-25.05749
984.824	-3.00696
985.197	-4.00911
985.57	-44.10402
985.943	-19.04334
986.316	26.05975
986.688	24.05381
987.061	-19.04134
987.434	14.03471
987.806	-35.07984
988.179	6.01315
988.551	-2.00476
988.923	-8.01853
989.295	9.02112
989.667	23.05268
990.039	-23.05424
990.411	69.14783
990.783	-8.01711
991.155	36.0823
991.527	-2.00452
991.898	-30.07051
992.27	-16.03759
992.641	-11.02595
993.012	88.19192
993.384	2.00448
993.755	-17.04098
994.126	-15.03411
994.497	-17.03944
994.868	23.0493
995.239	-10.02301
995.61	-23.05481
995.98	42.09644
996.351	-31.07364
996.722	-25.05511
997.092	5.01125
997.462	-16.03566
997.833	23.05056
998.203	36.08084
998.573	18.0426
998.943	8.01731
999.313	55.12333
999.683	-71.16065
1000.053	55.11748
1000.423	13.02965
1000.792	-2.00494
1001.162	0
1001.531	-18.04231
1001.901	-23.05407
1002.27	55.11376
1002.639	30.07262
1003.009	30.06764
1003.378	0
1003.747	-45.10008
1004.116	-42.09598
1004.485	18.04055
1004.853	-10.02405
1005.222	43.10302
1005.591	-1.0022
1005.959	19.04043
1006.328	-20.04193
1006.696	15.03424
1007.064	60.14136
1007.433	32.07557
1007.801	16.03653
1008.169	-15.03563
1008.537	59.12028
1008.905	15.0328
1009.273	-6.01397
1009.64	17.03826
1010.008	-22.04926
1010.375	56.12601
1010.743	-4.0084
1011.11	4.00891
1011.478	9.02092
1011.845	-29.06307
1012.212	-24.0503
1012.579	57.13091
1012.946	-62.13762
1013.313	35.07719
1013.68	43.08822
1014.047	21.04763
1014.414	37.08228
1014.78	-16.03811
1015.147	1.00223
1015.513	51.11643
1015.88	14.03328
1016.246	12.02794
1016.612	-55.11738
1016.978	23.05261
1017.344	65.15162
1017.71	-34.07663
1018.076	20.0438
1018.442	17.04113
1018.808	-35.0834
1019.174	-51.12134
1019.539	56.11466
1019.905	52.11466
1020.27	9.02117
1020.636	27.06025
1021.001	-13.02905
1021.366	39.08925
1021.731	18.044
1022.096	36.08639
1022.461	-35.07716
1022.826	1.00223
1023.191	42.10427
1023.556	19.04083
1023.92	9.02053
1024.285	22.05003
1024.649	-29.06738
1025.014	20.04644
1025.378	29.06945
1025.742	-27.06352
1026.107	-14.02915
1026.471	-59.12712
1026.835	-34.07907
1027.199	12.0273
1027.562	35.07606
1027.926	10.02286
1028.29	-10.0241
1028.654	-14.02978
1029.017	79.18086
1029.381	-20.04534
1029.744	41.09916
1030.107	2.00434
1030.471	-8.01792
1030.834	-44.09225
1031.197	17.03762
1031.56	31.06897
1031.923	28.06829
1032.286	46.09922
1032.648	34.07509
1033.011	-32.06932
1033.374	0
1033.736	0
1034.099	-4.00925
1034.461	6.01449
1034.823	-4.00936
1035.185	-29.06823
1035.548	19.04322
1035.91	17.03845
1036.272	-23.04911
1036.634	-11.02499
1036.995	57.12539
1037.357	27.06171
1037.719	14.03188
1038.08	-61.13459
1038.442	0
1038.803	-7.01566
1039.165	-6.01438
1039.526	52.11701
1039.887	39.08763
1040.248	17.04035
1040.609	8.01855
1040.97	-7.0161
1041.331	-27.06377
1041.692	2.00442
1042.053	-14.02942
1042.413	-30.06482
1042.774	44.09909
1043.134	0
1043.495	-6.01415
1043.855	18.04095
1044.215	15.03488
1044.576	-19.04324
1044.936	0
1045.296	6.01402
1045.656	-2.00462
1046.016	0
1046.375	42.09598
1046.735	43.09141
1047.095	-6.01319
1047.454	52.09991
1047.814	14.03123
1048.173	20.04364
1048.533	19.04074
1048.892	-47.10812
1049.251	18.04252
1049.61	-61.14139
1049.969	56.12332
1050.328	-15.02968
1050.687	4.00912
1051.046	12.02769
1051.405	-2.00462
1051.763	11.02372
1052.122	10.02381
1052.48	-7.01606
1052.839	28.06148
1053.197	-30.06668
1053.555	-55.1133
1053.914	-17.03904
1054.272	60.13391
1054.63	-16.0367
1054.988	-17.0379
1055.345	-28.05523
1055.703	-4.00894
1056.061	-11.02693
1056.419	53.12982
1056.776	-7.01588
1057.134	-14.03025
1057.491	0
1057.848	31.0718
1058.206	-15.03304
1058.563	16.03301
1058.92	5.0106
1059.277	-36.08253
1059.634	-35.0757
1059.991	19.04275
1060.348	-4.00852
1060.704	-31.07
1061.061	-13.02752
1061.418	-2.0046
1061.774	39.09158
1062.131	30.07705
1062.487	-30.06543
1062.843	-11.02589
1063.199	52.1217
1063.555	64.13804
1063.911	39.09197
1064.267	45.0826
1064.623	5.01157
1064.979	-29.06275
1065.335	-23.05075
1065.691	13.02947
1066.046	6.01206
1066.402	-35.07457
1066.757	-8.01915
1067.112	-39.08957
1067.468	55.12282
1067.823	16.03612
1068.178	23.0524
1068.533	8.01802
1068.888	10.02206
1069.243	24.0559
1069.598	-59.13393
1069.952	-25.05386
1070.307	-6.0143
1070.662	3.0067
1071.016	9.01896
1071.371	-23.04872
1071.725	-25.05465
1072.079	19.04261
1072.434	-16.03661
1072.788	44.0982
1073.142	70.16151
1073.496	26.05757
1073.85	-27.05862
1074.203	-15.03412
1074.557	19.04841
1074.911	5.01101
1075.265	-31.06676
1075.618	55.12546
1075.971	14.03091
1076.325	-7.01689
1076.678	-23.04934
1077.031	20.04182
1077.385	58.11784
1077.738	4.00843
1078.091	24.05154
1078.444	-17.03638
1078.796	-21.04914
1079.149	-22.05104
1079.502	-66.14857
1079.855	-14.03082
1080.207	-6.01388
1080.56	-11.027
1080.912	-48.10894
1081.264	-35.07961
1081.617	-12.02768
1081.969	32.07755
1082.321	7.01608
1082.673	32.06872
1083.025	-39.08648
1083.377	-307.63953
1083.728	-33.07073
1084.08	4.00949
1084.432	-59.13181
1084.783	31.06823
1085.135	55.13101
1085.486	6.01293
1085.838	4.00928
1086.189	12.0273
1086.54	8.01787
1086.891	31.07495
1087.242	13.02941
1087.593	17.03834
1087.944	-15.03155
1088.295	55.1133
1088.646	-33.07585
1088.996	-63.14411
1089.347	-37.08542
1089.698	-3.00673
1090.048	-8.01957
1090.398	52.11206
1090.749	18.04039
1091.099	-4.00964
1091.449	-38.08921
1091.799	23.05397
1092.149	18.04231
1092.499	-9.02079
1092.849	2.00482
1093.199	5.01174
1093.548	26.05882
1093.898	-35.08353
1094.248	-13.03171
1094.597	10.02458
1094.947	-22.05607
1095.296	-24.05579
1095.645	40.09753
1095.994	19.04294
1096.343	23.05519
1096.692	5.01265
1097.041	-16.04194
1097.39	-15.03548
1097.739	8.01982
1098.088	-21.05315
1098.437	-40.10144
1098.785	-15.03848
1099.134	-51.1282
1099.482	-8.0209
1099.83	-20.04992
1100.179	-4.0101
1100.527	6.01505
1100.875	-31.07854
1101.223	39.09899
1101.571	-15.04011
1101.919	-14.03531
1102.267	25.06838
1102.615	6.01928
1102.962	13.04166
1103.31	11.0353
1103.658	2.00641
