Data from N3 R5 sample 12_Subt2__0__13-35-15-114.txt Node

Date: Thu Sep 18 13:35:15 PDT 2025
User: uwsun
Spectrometer: HDX01956
Trigger mode: 0
Integration Time (sec): 5.000000E-1
Scans to average: 1
Nonlinearity correction enabled: true
Boxcar width: 0
Storing dark spectrum: false
XAxis mode: Wavelengths
Number of Pixels in Spectrum: 2068
>>>>>Begin Spectral Data<<<<<
194.03	2.00581
194.578	13.04222
195.127	6.01925
195.676	-6.01925
196.225	20.05269
196.773	27.07512
197.321	9.0251
197.87	3.00777
198.418	63.16312
198.966	23.06101
199.513	60.15302
200.061	34.08647
200.609	42.11075
201.156	14.03038
201.704	11.02777
202.251	20.05325
202.798	58.15103
203.345	43.10642
203.892	5.01267
204.438	42.10037
204.985	44.10499
205.532	69.18497
206.078	36.08862
206.624	12.02993
207.17	58.13393
207.716	-50.12245
208.262	-1.00198
208.808	44.10971
209.354	-10.02459
209.899	15.03782
210.445	17.04293
210.99	31.07526
211.535	42.09845
212.08	16.03723
212.625	24.06015
213.17	6.01523
213.715	52.11701
214.259	62.14453
214.804	26.06386
215.348	21.04806
215.892	42.10106
216.436	59.13659
216.98	61.1325
217.524	-7.01667
218.068	49.12282
218.612	-5.01253
219.155	-5.01182
219.698	-1.00237
220.242	28.06939
220.785	47.10946
221.328	30.07472
221.871	62.15538
222.414	-19.04687
222.956	7.017
223.499	21.04707
224.041	33.07515
224.583	41.08697
225.126	57.1265
225.668	9.02192
226.21	0
226.751	-22.04774
227.293	44.09852
227.835	14.03396
228.376	39.08821
228.918	88.21823
229.459	50.12517
230	51.12008
230.541	16.03645
231.082	33.0796
231.622	53.12075
232.163	35.08519
232.704	-5.01237
233.244	19.04694
233.784	41.0986
234.324	43.09507
234.864	12.02696
235.404	3.00704
235.944	-6.01406
236.484	7.01721
237.023	18.04254
237.563	11.0253
238.102	49.11439
238.641	89.22308
239.18	23.05394
239.719	36.09048
240.258	37.08177
240.797	78.18476
241.335	13.03123
241.874	50.09565
242.412	36.08541
242.95	30.072
243.488	30.068
244.026	30.06894
244.564	46.0932
245.102	62.1374
245.64	54.12806
246.177	-28.06252
246.715	35.08222
247.252	15.03384
247.789	7.01233
248.326	-3.00713
248.863	-20.04366
249.4	80.18068
249.936	34.06892
250.473	37.08583
251.009	40.09178
251.546	43.0942
252.082	55.11998
252.618	57.12645
253.154	1.0024
253.69	39.08662
254.226	46.1082
254.761	-26.05769
255.297	25.05458
255.832	0
256.367	31.072
256.903	9.01952
257.438	17.03922
257.972	-6.01321
258.507	70.16016
259.042	2.00423
259.576	22.04729
260.111	37.0842
260.645	50.1072
261.179	48.10996
261.713	27.05912
262.247	73.16746
262.781	43.08986
263.315	29.07064
263.849	45.11149
264.382	-31.071
264.915	47.1098
265.449	9.02201
265.982	-5.0112
266.515	43.10396
267.048	-12.02557
267.58	18.03831
268.113	40.08628
268.646	46.11353
269.178	-17.03809
269.71	14.0302
270.243	38.08575
270.775	10.0254
271.307	0
271.838	43.1001
272.37	14.03446
272.902	70.15771
273.433	-14.03039
273.965	60.14607
274.496	-47.11628
275.027	10.02459
275.558	25.06017
276.089	29.07248
276.62	-11.02784
277.15	41.09987
277.681	-55.11804
278.211	7.01695
278.741	82.17944
279.272	8.01824
279.802	54.13377
280.332	54.12613
280.861	88.20789
281.391	7.01575
281.921	11.026
282.45	119.2944
282.98	50.12967
283.509	11.02461
284.038	-2.00447
284.567	-8.01829
285.096	33.07936
285.625	63.14324
286.153	13.03026
286.682	12.02712
287.21	30.07164
287.739	12.02803
288.267	54.13008
288.795	-2.00524
289.323	55.1291
289.851	-17.03968
290.378	54.11997
290.906	50.1209
291.433	60.14814
291.961	46.10236
292.488	33.0817
293.015	79.185
293.542	28.0703
294.069	28.06845
294.596	32.07857
295.122	71.16737
295.649	74.16228
296.175	41.0971
296.702	16.03821
297.228	-13.0311
297.754	24.05345
298.28	0
298.806	87.20724
299.332	17.03749
299.857	46.10241
300.383	10.02501
300.908	73.17682
301.433	45.10916
301.958	29.0653
302.483	75.18759
303.008	-33.08137
303.533	6.01532
304.058	42.09772
304.582	28.06604
305.107	42.10978
305.631	52.11615
306.155	91.21076
306.679	51.11863
307.203	60.13822
307.727	55.13016
308.251	56.13664
308.775	16.03786
309.298	42.10099
309.822	-11.02781
310.345	44.10354
310.868	39.09261
311.391	35.08545
311.914	49.12225
312.437	41.09186
312.96	104.24177
313.482	65.15317
314.005	39.09744
314.527	54.14124
315.049	49.12207
315.571	108.24173
316.093	106.25988
316.615	81.19457
317.137	15.03232
317.659	56.13306
318.18	42.10099
318.702	46.1066
319.223	75.15186
319.744	35.07868
320.265	36.08741
320.786	60.14765
321.307	58.14404
321.828	98.22034
322.348	49.11542
322.869	-9.02102
323.389	-11.02079
323.909	50.11426
324.43	52.12337
324.95	88.20005
325.47	97.23654
325.989	121.28567
326.509	51.11243
327.029	85.18958
327.548	55.12384
328.067	73.17435
328.587	98.24152
329.106	51.11497
329.625	38.09766
330.144	18.04118
330.662	28.06499
331.181	84.19497
331.7	27.0631
332.218	128.27466
332.736	17.03953
333.255	80.18429
333.773	79.18572
334.291	69.1687
334.808	63.13836
335.326	97.21661
335.844	111.25748
336.361	118.29369
336.879	81.18685
337.396	92.21666
337.913	60.1364
338.43	88.1981
338.947	118.27681
339.464	36.07718
339.981	102.24012
340.497	97.2368
341.014	82.19604
341.53	125.28029
342.046	94.22884
342.562	70.17289
343.078	71.16522
343.594	119.28139
344.11	109.25455
344.626	136.33787
345.141	106.24047
345.657	123.27024
346.172	64.15236
346.687	92.20982
347.202	104.23047
347.717	138.32347
348.232	171.4176
348.747	145.32608
349.261	207.44656
349.776	102.23487
350.29	139.33858
350.805	88.21303
351.319	128.29357
351.833	90.20393
352.347	34.07857
352.861	96.22141
353.374	130.29061
353.888	139.32613
354.401	132.2969
354.915	142.31428
355.428	172.41809
355.941	137.31414
356.454	185.40167
356.967	160.37019
357.48	123.27626
357.993	136.32724
358.505	163.39332
359.018	144.34017
359.53	107.25272
360.042	118.25309
360.554	134.31581
361.066	171.40309
361.578	182.38833
362.09	165.38289
362.602	164.35205
363.113	159.35301
363.625	198.43511
364.136	167.35625
364.647	123.28159
365.158	194.43885
365.669	237.55387
366.18	106.23979
366.691	172.36859
367.201	192.44034
367.712	203.43849
368.222	241.53616
368.733	201.4258
369.243	153.32539
369.753	200.44228
370.263	132.30468
370.773	200.47776
371.282	186.4259
371.792	213.46699
372.301	187.4384
372.811	197.49448
373.32	214.43538
373.829	209.47884
374.338	208.44477
374.847	164.36282
375.356	273.62069
375.865	254.51276
376.373	267.57451
376.882	261.62762
377.39	274.62813
377.898	262.61985
378.407	248.52456
378.915	321.64251
379.423	316.70081
379.93	298.63031
380.438	335.76686
380.946	368.79776
381.453	383.84778
381.96	341.75263
382.468	473.01619
382.975	502.10798
383.482	506.0136
383.989	490.13362
384.495	524.07346
385.002	500.93205
385.509	496.02883
386.015	616.06626
386.521	580.12032
387.028	668.28569
387.534	668.21115
388.04	693.38093
388.546	619.16465
389.051	742.33469
389.557	800.51218
390.063	903.66277
390.568	884.67206
391.073	843.51098
391.578	909.72068
392.084	945.59647
392.589	1000.64002
393.093	1017.79105
393.598	1182.89915
394.103	1278.11225
394.607	1411.21068
395.112	1518.41053
395.616	1650.43073
396.12	1755.32459
396.624	1944.44557
397.128	2097.58394
397.632	2349.4788
398.136	2559.47258
398.639	2719.56746
399.143	2979.72556
399.646	3415.20815
400.15	3725.91252
400.653	4286.47001
401.156	4650.85204
401.659	5378.66762
402.162	6871.35597
402.664	9113.20808
403.167	13124.60301
403.67	26336.3471
404.172	51304.5968
404.674	37291.05854
405.176	4428.40989
405.678	533.47942
406.18	0
406.682	0
407.184	6962.89417
407.686	50953.82939
408.187	39083.15307
408.688	22675.89942
409.19	15763.62704
409.691	12469.37426
410.192	10508.48985
410.693	9164.90637
411.194	8274.12843
411.694	7720.08407
412.195	7202.62422
412.696	6409.17788
413.196	5994.82019
413.696	5779.40104
414.196	5781.98131
414.696	5589.54307
415.196	5333.45977
415.696	4919.58952
416.196	3996.59217
416.695	3035.33961
417.195	2716.55896
417.694	2480.86434
418.194	2412.02009
418.693	2191.37575
419.192	2126.54405
419.691	2096.53712
420.19	2033.54255
420.688	1978.66915
421.187	1865.9342
421.685	1832.39773
422.184	1651.33648
422.682	1460.02463
423.18	1181.92055
423.678	1070.77964
424.176	996.69883
424.674	937.54274
425.172	875.5926
425.669	782.55745
426.167	779.43688
426.664	707.30904
427.161	672.25806
427.659	666.36611
428.156	574.02189
428.652	509.11994
429.149	523.09822
429.646	455.86815
430.143	474.99945
430.639	442.92462
431.135	352.78518
431.632	370.75687
432.128	383.83328
432.624	276.6469
433.12	345.71613
433.616	339.66785
434.111	339.73851
434.607	293.64399
435.103	247.47171
435.598	309.57753
436.093	279.59439
436.588	260.53982
437.083	296.60989
437.578	229.48426
438.073	156.3648
438.568	202.46104
439.062	191.38106
439.557	130.2876
440.051	133.28619
440.546	182.3917
441.04	140.3127
441.534	166.39912
442.028	200.44911
442.522	147.33558
443.015	124.25722
443.509	193.44556
444.002	211.48517
444.496	81.16664
444.989	179.41554
445.482	150.35242
445.975	157.33972
446.468	139.28325
446.961	97.19631
447.454	107.22727
447.947	157.35783
448.439	152.35405
448.931	111.23946
449.424	79.18803
449.916	78.17947
450.408	94.20727
450.9	66.15398
451.392	166.39836
451.884	65.14137
452.375	69.16354
452.867	103.22097
453.358	59.12745
453.849	39.0798
454.341	103.22192
454.832	73.15119
455.323	59.13897
455.814	85.18558
456.304	72.15836
456.795	35.07641
457.285	48.10157
457.776	54.11567
458.266	86.19724
458.756	38.08698
459.247	23.05278
459.737	106.24369
460.226	66.14254
460.716	61.14077
461.206	35.0801
461.695	116.27806
462.185	89.20187
462.674	51.11135
463.163	21.04453
463.653	103.20616
464.142	52.11984
464.63	63.14747
465.119	99.22062
465.608	35.07738
466.096	36.07581
466.585	53.11561
467.073	41.09341
467.561	100.23302
468.05	29.06433
468.538	111.26278
469.026	65.15042
469.513	44.08915
470.001	41.08936
470.489	22.05034
470.976	60.1328
471.463	88.21175
471.951	73.17502
472.438	71.16045
472.925	13.02917
473.412	30.07038
473.899	50.11094
474.385	46.10884
474.872	18.0405
475.359	32.07557
475.845	44.08756
476.331	23.04766
476.817	11.02571
477.303	60.13368
477.789	41.09507
478.275	48.11528
478.761	48.11079
479.247	29.06221
479.732	68.16431
480.218	4.01013
480.703	77.18623
481.188	35.07181
481.673	37.08211
482.158	-16.03359
482.643	53.12982
483.128	8.01762
483.612	58.12955
484.097	53.1246
484.581	4.00887
485.066	29.0678
485.55	-1.00211
486.034	89.1859
486.518	52.11802
487.002	10.02384
487.486	-5.01192
487.969	5.01207
488.453	10.02465
488.936	-4.00873
489.42	19.0408
489.903	31.07571
490.386	25.05203
490.869	-19.03958
491.352	-23.05458
491.835	-37.07378
492.318	-8.01774
492.8	3.00595
493.283	-5.01252
493.765	-5.01208
494.247	2.00449
494.73	1.00215
495.212	0
495.694	-37.08491
496.175	-24.05595
496.657	82.18897
497.139	-58.09447
497.62	-36.08458
498.102	-14.03418
498.583	-23.05567
499.064	56.12203
499.545	5.01107
500.026	-19.04155
500.507	-8.01789
500.988	-16.03847
501.469	-52.12744
501.949	-29.06945
502.43	-26.06037
502.91	34.06744
503.39	30.07262
503.87	44.10039
504.35	-9.02043
504.83	20.04251
505.31	15.03554
505.79	-17.03981
506.269	22.04942
506.749	-24.05352
507.228	-40.09229
507.707	-28.06065
508.187	21.04815
508.666	-42.10083
509.145	-14.03195
509.623	-2.00457
510.102	6.01409
510.581	35.08084
511.059	53.12987
511.538	20.05012
512.016	58.13457
512.494	24.05599
512.972	91.20917
513.45	27.06156
513.928	51.1198
514.406	66.157
514.884	81.20354
515.361	121.27924
515.839	42.09207
516.316	14.03252
516.793	92.22271
517.27	131.30364
517.747	99.24456
518.224	96.21088
518.701	105.2236
519.178	139.3349
519.654	42.09432
520.131	41.09721
520.607	95.22568
521.083	109.23898
521.56	86.19376
522.036	147.30569
522.512	130.30472
522.987	96.22141
523.463	108.2465
523.939	90.21154
524.414	89.19488
524.89	51.11591
525.365	93.20373
525.84	97.22741
526.315	-22.05159
526.79	7.01523
527.265	47.10205
527.74	5.01186
528.215	59.13469
528.689	36.07835
529.164	-1.00207
529.638	39.09762
530.112	-3.00701
530.587	73.15167
531.061	16.03783
531.534	21.0491
532.008	2.00472
532.482	-31.06825
532.956	44.11075
533.429	-18.04155
533.903	18.03822
534.376	-2.00429
534.849	37.08348
535.322	-36.08356
535.795	28.06645
536.268	2.00473
536.741	-12.02816
537.213	-6.0136
537.686	-34.08091
538.158	-21.04628
538.631	-27.06387
539.103	-74.1644
539.575	21.04223
540.047	-13.02784
540.519	-46.10723
540.991	-39.09293
541.463	30.07093
541.934	-25.05631
542.406	-47.11088
542.877	-38.08411
543.348	-58.13473
543.82	-31.07444
544.291	-73.16571
544.762	-42.09791
545.233	22.0544
545.703	-48.10526
546.174	16.03643
546.645	-29.06961
547.115	-7.01657
547.585	4.00911
548.056	11.02645
548.526	-23.05337
548.996	-36.08518
549.466	-21.04995
549.935	-14.03312
550.405	-21.04577
550.875	-60.14009
551.344	-10.02375
551.814	-90.20244
552.283	-13.02743
552.752	-53.12173
553.221	-39.08356
553.69	-19.04164
554.159	35.08516
554.628	-21.04608
555.096	-34.0849
555.565	-23.05019
556.033	-11.02523
556.502	-5.01181
556.97	-31.06714
557.438	-12.02786
557.906	10.02311
558.374	-4.00896
558.842	-11.02582
559.31	-17.03696
559.777	-19.04538
560.245	-5.01132
560.712	19.04196
561.18	12.0257
561.647	-19.04138
562.114	-23.05149
562.581	51.12228
563.048	22.04851
563.514	43.10302
563.981	39.08594
564.448	83.17929
564.914	54.12081
565.381	53.11444
565.847	88.19639
566.313	85.18887
566.779	136.29421
567.245	105.23525
567.711	144.33052
568.176	132.28983
568.642	157.3777
569.108	157.36707
569.573	134.29534
570.038	218.42876
570.504	253.53314
570.969	212.49788
571.434	197.40948
571.899	257.57199
572.363	242.5103
572.828	303.62867
573.293	326.68379
573.757	343.72246
574.222	340.70055
574.686	382.77823
575.15	353.769
575.614	381.78591
576.078	403.8492
576.542	392.80769
577.006	465.9359
577.469	424.9348
577.933	402.79923
578.396	460.98695
578.86	467.96805
579.323	471.9977
579.786	475.89312
580.249	442.89964
580.712	420.91512
581.175	384.86115
581.637	466.96015
582.1	422.81475
582.563	370.68659
583.025	419.91469
583.487	414.73079
583.95	356.69226
584.412	397.73212
584.874	374.82079
585.336	386.82928
585.797	322.62853
586.259	328.69041
586.721	317.68238
587.182	317.66359
587.643	325.66949
588.105	345.74615
588.566	312.59456
589.027	312.69942
589.488	231.48614
589.949	209.46845
590.41	276.49632
590.87	223.46186
591.331	231.45144
591.791	190.40487
592.252	193.41386
592.712	186.41904
593.172	222.46401
593.632	109.21949
594.092	145.30435
594.552	150.30058
595.011	158.34531
595.471	198.4122
595.931	186.38601
596.39	146.33229
596.849	151.33064
597.308	145.29399
597.768	159.38367
598.227	110.25289
598.685	112.23949
599.144	131.28964
599.603	141.31552
600.062	109.21494
600.52	124.26286
600.978	172.38671
601.437	139.29871
601.895	90.18127
602.353	124.2563
602.811	108.22674
603.269	126.28422
603.727	118.26868
604.184	117.25035
604.642	100.23275
605.099	115.25182
605.557	105.24048
606.014	83.16967
606.471	142.34051
606.928	171.3586
607.385	160.37533
607.842	143.31366
608.299	114.25158
608.755	128.29203
609.212	136.28766
609.668	161.33823
610.125	160.36062
610.581	131.28673
611.037	155.3295
611.493	120.26581
611.949	130.29684
612.405	229.42588
612.861	148.32072
613.316	191.43004
613.772	202.43175
614.227	153.34011
614.683	230.45258
615.138	162.36169
615.593	117.25468
616.048	140.29613
616.503	228.51828
616.958	180.4234
617.412	183.40426
617.867	186.38894
618.321	136.25626
618.776	216.43925
619.23	183.40528
619.684	172.35727
620.138	127.27057
620.592	161.36473
621.046	190.41138
621.5	195.43941
621.954	132.27627
622.407	142.29443
622.861	133.29934
623.314	147.31345
623.768	114.25168
624.221	183.33491
624.674	69.14937
625.127	153.33516
625.58	88.18459
626.033	68.1398
626.485	90.20368
626.938	124.27548
627.39	115.25224
627.843	85.18432
628.295	138.29931
628.747	140.31205
629.199	154.33044
629.651	96.20697
630.103	109.23717
630.555	109.21392
631.006	74.16447
631.458	63.139
631.909	118.25156
632.361	53.11625
632.812	77.16953
633.263	65.13095
633.714	62.12332
634.165	2.00457
634.616	21.04754
635.067	32.06641
635.518	34.07613
635.968	59.11065
636.419	66.13336
636.869	56.12534
637.319	63.13807
637.769	68.14509
638.219	25.05606
638.669	58.13249
639.119	51.11793
639.569	102.23516
640.019	89.19299
640.468	8.01683
640.918	98.22169
641.367	80.1701
641.816	92.19468
642.265	91.19867
642.714	108.23714
643.163	31.06702
643.612	51.11887
644.061	60.11918
644.51	78.16954
644.958	95.19694
645.406	85.1942
645.855	55.12824
646.303	139.30167
646.751	98.21255
647.199	68.14396
647.647	104.22912
648.095	84.18133
648.543	125.23351
648.99	117.26538
649.438	125.27649
649.885	81.19257
650.333	88.15629
650.78	150.34664
651.227	122.28261
651.674	117.25197
652.121	77.17571
652.568	107.24653
653.015	79.18637
653.461	77.17437
653.908	165.35733
654.354	95.21145
654.801	85.19013
655.247	102.20922
655.693	133.32904
656.139	127.28607
656.585	91.20783
657.031	91.20397
657.477	71.14692
657.922	150.32644
658.368	55.12915
658.813	41.08875
659.259	95.21766
659.704	77.17238
660.149	67.14882
660.594	118.2652
661.039	89.19381
661.484	55.12571
661.929	106.23353
662.373	78.19109
662.818	111.264
663.262	24.05549
663.707	8.01954
664.151	102.23993
664.595	16.0374
665.039	54.12821
665.483	83.20421
665.927	60.13396
666.371	69.15428
666.814	61.13892
667.258	76.1741
667.701	79.15805
668.145	53.12586
668.588	49.11605
669.031	32.0733
669.474	41.09473
669.917	97.20135
670.36	5.01195
670.803	92.21015
671.245	53.10539
671.688	33.07707
672.13	13.02797
672.573	68.16653
673.015	27.06219
673.457	93.19331
673.899	47.10855
674.341	37.08573
674.783	37.086
675.225	74.17373
675.666	48.11159
676.108	62.12884
676.549	47.106
676.991	57.11906
677.432	19.03563
677.873	80.17499
678.314	46.10504
678.755	44.10362
679.196	76.16695
679.637	60.13877
680.078	69.15307
680.518	23.05041
680.959	-2.00463
681.399	19.04512
681.839	59.13719
682.28	27.06473
682.72	-38.08418
683.16	21.05071
683.6	48.1042
684.039	-5.00994
684.479	-12.02868
684.919	38.08519
685.358	46.11153
685.798	-26.0661
686.237	39.09004
686.676	43.09495
687.115	33.07433
687.554	38.08642
687.993	-15.03144
688.432	34.07525
688.871	14.03053
689.309	76.1778
689.748	54.10671
690.186	16.03631
690.625	30.06883
691.063	72.16659
691.501	64.15166
691.939	32.07697
692.377	26.06128
692.815	94.21645
693.253	21.04792
693.69	60.12496
694.128	52.12237
694.565	30.06894
695.003	75.18282
695.44	4.00903
695.877	6.01369
696.314	53.10756
696.751	42.09059
697.188	53.11704
697.625	37.08006
698.061	-13.03029
698.498	67.15419
698.934	-40.09284
699.371	41.09318
699.807	9.02058
700.243	66.15368
700.679	38.0821
701.115	40.08916
701.551	1.00229
701.987	-23.0493
702.422	18.04102
702.858	9.02047
703.294	12.02584
703.729	37.08749
704.164	34.07923
704.599	14.02963
705.035	31.06665
705.47	21.04993
705.904	-39.08785
706.339	36.07858
706.774	-9.02021
707.209	-65.14581
707.643	4.00927
708.078	-7.01642
708.512	67.16357
708.946	27.06154
709.38	-4.00906
709.814	-20.04373
710.248	-25.05822
710.682	32.07366
711.116	40.09255
711.549	-39.09744
711.983	-58.12928
712.416	29.0646
712.85	51.1226
713.283	29.06564
713.716	8.01921
714.149	-20.04537
714.582	68.14459
715.015	46.10913
715.448	-31.07461
715.881	-17.03477
716.313	32.07218
716.746	-5.01142
717.178	5.01151
717.61	14.03422
718.043	3.00712
718.475	9.02084
718.907	-18.04325
719.339	29.06272
719.77	23.05306
720.202	38.09175
720.634	17.04009
721.065	-27.06159
721.497	29.06826
721.928	-32.07674
722.359	-2.00473
722.79	-16.03696
723.221	-3.00719
723.652	-11.02707
724.083	-10.02151
724.514	-22.04751
724.945	-34.07732
725.375	-12.02693
725.806	-49.11627
726.236	-3.00738
726.666	-29.06554
727.096	-67.15861
727.526	14.03431
727.956	-16.03488
728.386	-58.13606
728.816	-46.11353
729.246	-14.0331
729.675	30.07139
730.105	-54.12796
730.534	12.02678
730.964	-52.12574
731.393	-28.06553
731.822	29.07122
732.251	6.01473
732.68	-25.05493
733.109	51.1198
733.537	-36.08372
733.966	-1.00237
734.395	-2.00437
734.823	10.02117
735.251	-17.0394
735.68	-12.02869
736.108	-60.14645
736.536	26.05815
736.964	-20.04419
737.392	-36.08616
737.82	-40.09185
738.247	-61.13971
738.675	-36.08131
739.102	16.03876
739.53	-8.01981
739.957	-59.14661
740.384	-15.03495
740.811	16.03902
741.238	-25.05818
741.665	60.1333
742.092	-10.02253
742.519	15.03596
742.945	-36.08296
743.372	-7.01671
743.798	-25.06192
744.225	-33.07512
744.651	0
745.077	-44.10591
745.503	-40.0931
745.929	-25.05721
746.355	13.03014
746.781	2.00473
747.207	1.00228
747.632	-14.03305
748.058	-36.0856
748.483	-42.09156
748.908	-4.00952
749.334	-15.03529
749.759	-37.08341
750.184	-13.02961
750.609	7.01629
751.033	-35.07748
751.458	48.10202
751.883	-32.07562
752.307	29.06583
752.732	-13.03171
753.156	-14.03312
753.58	10.02243
754.005	1.00245
754.429	-36.07978
754.853	-45.10818
755.277	6.01362
755.7	-33.07855
756.124	30.07194
756.548	-35.08032
756.971	-12.02788
757.394	2.00494
757.818	2.00499
758.241	-47.11457
758.664	17.04153
759.087	38.08186
759.51	-9.02145
759.933	-27.06298
760.356	-8.01967
760.778	52.12351
761.201	-11.02506
761.623	-42.09602
762.046	-24.05285
762.468	9.02044
762.89	31.07259
763.312	-23.05335
763.734	22.0506
764.156	-28.06679
764.578	15.03221
765	9.02093
765.421	3.00747
765.843	30.07564
766.264	-22.05034
766.686	41.09882
767.107	12.02813
767.528	-14.03459
767.949	-30.07355
768.37	-17.03981
768.791	-32.07377
769.212	11.02695
769.632	-31.06914
770.053	9.02286
770.473	20.04642
770.894	-26.06164
771.314	-23.05172
771.734	-37.08201
772.154	35.08583
772.575	7.01532
772.994	-25.05444
773.414	-41.09216
773.834	7.01687
774.254	-19.0443
774.673	-17.03936
775.093	8.01908
775.512	-8.01905
775.931	77.18679
776.351	-37.08786
776.77	-6.01412
777.189	-59.13393
777.607	13.03193
778.026	18.04313
778.445	-22.05386
778.864	14.03412
779.282	-15.03413
779.701	-24.05825
780.119	-35.08474
780.537	-23.05504
780.955	-12.02914
781.373	2.00472
781.791	-6.0129
782.209	44.09576
782.627	-2.00511
783.045	-21.04602
783.462	-28.0684
783.88	-39.09829
784.297	-32.07758
784.715	35.08729
785.132	6.01382
785.549	66.15833
785.966	4.00957
786.383	-15.03563
786.8	37.08102
787.217	-30.06784
787.633	-16.03846
788.05	-28.06151
788.466	-22.04892
788.883	6.01483
789.299	-24.05467
789.715	43.09963
790.131	5.01179
790.547	-55.12975
790.963	-17.04045
791.379	-52.12744
791.795	2.0043
792.21	-15.03319
792.626	13.02915
793.041	-6.01403
793.457	-9.02112
793.872	13.02901
794.287	36.08356
794.702	3.00699
795.117	-38.09008
795.532	15.03636
795.947	-16.03621
796.362	-14.0314
796.776	-108.23594
797.191	-30.06994
797.605	19.04325
798.02	21.04895
798.434	-2.00414
798.848	-35.08209
799.262	48.11471
799.676	-1.00229
800.09	15.03481
800.504	-36.08346
800.918	-18.03942
801.331	-13.03242
801.745	6.01294
802.158	-12.0286
802.572	10.02282
802.985	-8.01809
803.398	35.07855
803.811	0
804.224	-17.0402
804.637	-37.08269
805.05	-28.06156
805.462	-9.02094
805.875	57.14324
806.288	-8.01863
806.7	7.01674
807.112	5.01093
807.525	-13.03076
807.937	-43.10231
808.349	-6.01426
808.761	-34.0787
809.173	-44.10075
809.584	16.03718
809.996	28.0653
810.408	16.03968
810.819	-15.03362
811.231	-25.06397
811.642	43.10105
812.053	20.04591
812.464	26.05896
812.875	-26.06403
813.286	-33.08134
813.697	6.01281
814.108	-20.04596
814.519	-34.07091
814.929	-5.01201
815.34	-42.09714
815.75	-7.017
816.16	-29.06772
816.571	39.09631
816.981	-31.06834
817.391	-29.06642
817.801	1.0024
818.211	5.01132
818.62	-35.08016
819.03	-38.08782
819.44	-8.01989
819.849	15.03607
820.259	39.09489
820.668	18.04256
821.077	-2.00475
821.486	9.02017
821.895	-16.03678
822.304	-29.07415
822.713	-17.03792
823.122	-10.02397
823.531	-8.01808
823.939	2.00463
824.348	13.03
824.756	-28.06668
825.164	36.08472
825.573	-13.03116
825.981	24.0563
826.389	-55.13066
826.797	1.00239
827.205	-66.14461
827.612	7.01621
828.02	-34.07688
828.428	-28.06796
828.835	14.03534
829.243	-40.0903
829.65	-5.01189
830.057	26.06025
830.464	20.04666
830.871	11.02469
831.278	-43.09817
831.685	-43.0893
832.092	22.05116
832.499	-45.09224
832.905	16.03863
833.312	31.06527
833.718	-21.04956
834.124	18.03862
834.531	4.00951
834.937	-45.10974
835.343	8.01825
835.749	43.09245
836.155	-50.12585
836.561	-60.1386
836.966	11.02529
837.372	-4.00965
837.777	-44.10423
838.183	-11.02226
838.588	-6.01426
838.993	-55.12627
839.399	-44.10229
839.804	-21.04941
840.209	-16.03936
840.613	23.04828
841.018	-26.06211
841.423	-24.05817
841.828	-22.05306
842.232	-33.07631
842.637	-72.15942
843.041	24.05954
843.445	-63.15024
843.849	1.00235
844.253	-26.05788
844.657	9.02176
845.061	17.03612
845.465	55.12753
845.869	-16.03484
846.272	-40.09299
846.676	69.15612
847.079	15.03658
847.483	-22.05205
847.886	-22.04973
848.289	-5.01304
848.692	-7.01682
849.095	-12.02689
849.498	-5.01175
849.901	-17.03625
850.304	-14.03132
850.707	-12.02905
851.109	-38.08984
851.512	19.04449
851.914	-3.00737
852.316	16.03853
852.718	-9.02255
853.121	3.00696
853.523	-17.03737
853.925	-20.05018
854.326	-6.01448
854.728	10.02447
855.13	2.00497
855.531	29.06637
855.933	12.02697
856.334	10.0238
856.736	-38.07953
857.137	-30.06604
857.538	-18.0432
857.939	-36.0857
858.34	-3.00685
858.741	2.00498
859.142	25.05659
859.542	76.19389
859.943	11.02613
860.343	-33.0787
860.744	40.092
861.144	10.02301
861.544	8.01849
861.945	-41.09935
862.345	-66.15137
862.745	-33.07828
863.145	16.03501
863.544	9.02187
863.944	12.02647
864.344	-50.11683
864.743	17.03979
865.143	15.03658
865.542	-26.05666
865.941	14.03311
866.34	4.00904
866.74	-7.01801
867.139	7.01594
867.537	-14.03373
867.936	-10.02288
868.335	13.03167
868.734	-2.00493
869.132	-4.00882
869.531	8.01816
869.929	-3.0065
870.327	-8.01812
870.726	22.05145
871.124	-32.06991
871.522	-41.09894
871.92	37.08546
872.318	45.10339
872.715	-4.00931
873.113	9.02076
873.511	23.05422
873.908	10.02463
874.306	-22.05235
874.703	-10.0237
875.1	9.02165
875.497	-32.07224
875.894	6.0142
876.291	49.11367
876.688	-41.10125
877.085	-20.0451
877.482	-18.04244
877.878	-5.01142
878.275	-6.01443
878.671	-41.08302
879.068	-5.01135
879.464	3.00686
879.86	25.05629
880.256	-20.04611
880.652	-12.02902
881.048	-47.10954
881.444	43.0938
881.84	-14.03367
882.236	25.05948
882.631	42.09691
883.027	-43.09718
883.422	-16.03894
883.817	29.06985
884.213	25.06092
884.608	26.06083
885.003	-20.04589
885.398	-6.01426
885.793	-69.16543
886.188	12.02863
886.582	-15.03584
886.977	-7.0156
887.371	-17.04085
887.766	13.03092
888.16	16.03777
888.554	11.02529
888.949	35.08125
889.343	-7.0159
889.737	7.01818
890.131	-7.01678
890.525	-21.05104
890.918	6.01446
891.312	-6.01323
891.706	0
892.099	0
892.492	12.02398
892.886	-16.03681
893.279	-32.07802
893.672	1.00243
894.065	1.00236
894.458	-32.07656
894.851	-32.0731
895.244	-23.05621
895.637	44.09933
896.029	15.03453
896.422	-32.07383
896.814	-9.02128
897.206	38.08582
897.599	5.01137
897.991	-6.01377
898.383	-15.03325
898.775	0
899.167	-45.10091
899.559	-41.09852
899.951	-35.07777
900.342	-19.04508
900.734	-4.00966
901.125	-24.05963
901.517	11.02564
901.908	25.05541
902.299	-3.00698
902.69	11.02439
903.082	20.04541
903.473	10.02283
903.863	34.08296
904.254	-31.06754
904.645	-28.06512
905.036	36.08326
905.426	11.02266
905.817	-17.03951
906.207	-15.03401
906.597	4.00883
906.987	-2.00486
907.378	-33.07912
907.768	-2.00508
908.158	-3.00693
908.547	19.0468
908.937	-32.07805
909.327	-1.00228
909.717	-42.10072
910.106	-18.0409
910.495	36.08504
910.885	-77.18405
911.274	16.03799
911.663	73.17515
912.052	7.01612
912.441	-10.02446
912.83	-30.06443
913.219	-12.02956
913.608	23.05287
913.997	-22.0525
914.385	-33.07357
914.774	17.03868
915.162	-38.08537
915.55	6.01366
915.939	3.00722
916.327	-8.0189
916.715	16.03905
917.103	17.03895
917.491	-22.05076
917.878	-27.06176
918.266	-10.02466
918.654	39.09528
919.041	-35.08783
919.429	-28.06283
919.816	-11.02632
920.203	15.03426
920.591	-27.06305
920.978	-6.01382
921.365	-23.05746
921.752	48.10721
922.139	30.06056
922.525	-7.01585
922.912	-7.01604
923.299	2.00473
923.685	-9.02243
924.072	-20.04267
924.458	24.05604
924.844	-26.06106
925.231	-48.10491
925.617	50.122
926.003	3.00727
926.389	30.07216
926.774	18.04336
927.16	10.02328
927.546	-13.03178
927.931	11.02589
928.317	-33.07003
928.702	-7.0154
929.088	7.01563
929.473	-9.02182
929.858	26.06035
930.243	-4.00913
930.628	-41.09447
931.013	16.03796
931.398	-25.05335
931.783	16.04
932.167	-24.05524
932.552	-4.00934
932.937	-16.03693
933.321	-46.10976
933.705	18.04343
934.09	-38.08998
934.474	30.06632
934.858	16.03961
935.242	19.04187
935.626	3.00725
936.009	-11.02797
936.393	33.08005
936.777	21.05142
937.16	-37.09093
937.544	-10.02201
937.927	-18.04369
938.311	32.07239
938.694	30.07516
939.077	-22.04932
939.46	19.044
939.843	-6.01132
940.226	-23.05592
940.609	-16.03426
940.991	8.0193
941.374	6.01373
941.757	12.02779
942.139	3.00621
942.522	0
942.904	45.10124
943.286	-23.05504
943.668	-5.01232
944.05	-1.00232
944.432	29.06756
944.814	-35.081
945.196	27.06276
945.578	15.03397
945.959	-22.04871
946.341	-21.04767
946.722	19.04185
947.104	-14.03123
947.485	37.07972
947.866	10.02409
948.247	1.00239
948.628	-28.06414
949.009	-2.00489
949.39	-29.06709
949.771	31.06636
950.152	29.06724
950.532	57.13583
950.913	-29.06532
951.293	4.01045
951.674	-29.0658
952.054	8.0188
952.434	-32.0748
952.814	-54.11957
953.194	15.03738
953.574	18.04095
953.954	0
954.334	17.0402
954.714	16.03683
955.093	-14.03204
955.473	-30.07079
955.853	3.00742
956.232	17.04453
956.611	-44.09783
956.99	9.0215
957.37	-14.03393
957.749	-5.01108
958.128	35.08404
958.506	23.05713
958.885	-50.11999
959.264	-25.05827
959.643	-29.06216
960.021	-31.07319
960.4	49.1043
960.778	-23.05251
961.156	-13.03092
961.535	-66.14211
961.913	-65.14089
962.291	9.02224
962.669	-1.00241
963.047	-47.11316
963.424	40.09665
963.802	-51.11812
964.18	30.07082
964.557	-16.03389
964.935	-16.03549
965.312	0
965.69	20.04683
966.067	-63.14498
966.444	34.07839
966.821	-47.11525
967.198	-3.00673
967.575	-8.01833
967.952	10.02205
968.329	-32.07342
968.705	-30.05873
969.082	-10.02461
969.458	-12.02759
969.835	-3.00686
970.211	-19.04656
970.587	44.10261
970.963	-1.00243
971.339	8.02007
971.715	-48.11225
972.091	-19.04413
972.467	-38.08845
972.843	6.01407
973.219	40.08783
973.594	-45.11324
973.97	4.00878
974.345	1.00225
974.721	28.0629
975.096	-67.15289
975.471	24.05334
975.846	50.11279
976.221	-28.06794
976.596	-25.0567
976.971	23.05335
977.346	-9.01931
977.72	-26.06294
978.095	-13.03211
978.469	39.08691
978.844	18.04249
979.218	22.04993
979.593	41.09167
979.967	38.08715
980.341	24.05092
980.715	-11.02611
981.089	-45.10612
981.463	37.07986
981.837	77.17642
982.21	-40.08679
982.584	15.03376
982.957	39.09233
983.331	40.0879
983.704	-2.00468
984.078	-7.01619
984.451	-2.00458
984.824	24.0554
985.197	19.04308
985.57	-19.0447
985.943	-21.04792
986.316	43.09848
986.688	47.10487
987.061	-26.05666
987.434	16.03965
987.806	-9.02042
988.179	-25.05516
988.551	-7.01668
988.923	-2.00463
989.295	32.07474
989.667	34.0777
990.039	1.00235
990.411	52.11182
990.783	4.00853
991.155	17.03901
991.527	-14.03175
991.898	-2.00468
992.27	-48.11348
992.641	-11.02595
993.012	93.20261
993.384	3.00672
993.755	-34.08222
994.126	21.0474
994.497	-6.01389
994.868	-8.01726
995.239	43.09789
995.61	-54.12944
995.98	3.00694
996.351	28.06576
996.722	-17.03741
997.092	24.05378
997.462	22.04865
997.833	20.04399
998.203	13.02933
998.573	3.00712
998.943	-29.06323
999.313	37.08327
999.683	-53.11948
1000.053	55.11748
1000.423	19.04329
1000.792	4.00987
1001.162	-5.0117
1001.531	45.10447
1001.901	-8.01875
1002.27	42.08712
1002.639	39.09425
1003.009	16.03618
1003.378	15.03637
1003.747	-22.04869
1004.116	-15.03409
1004.485	33.07412
1004.853	23.05498
1005.222	28.06727
1005.591	-13.02873
1005.959	7.01493
1006.328	-49.10339
1006.696	11.02513
1007.064	16.03802
1007.433	-14.03335
1007.801	-8.01836
1008.169	-7.0166
1008.537	21.04318
1008.905	-1.00219
1009.273	0
1009.64	6.01353
1010.008	-26.05827
1010.375	54.12156
1010.743	5.01048
1011.11	16.03555
1011.478	-44.10334
1011.845	-26.05651
1012.212	-65.13746
1012.579	28.06468
1012.946	-4.00877
1013.313	17.03763
1013.68	6.01241
1014.047	18.04085
1014.414	11.0246
1014.78	-20.04767
1015.147	9.02007
1015.513	30.06878
1015.88	-12.02867
1016.246	44.1018
1016.612	18.03781
1016.978	-7.01611
1017.344	66.15392
1017.71	-40.09027
1018.076	5.01099
1018.442	-6.01458
1018.808	-12.02847
1019.174	-2.00471
1019.539	5.01036
1019.905	29.06425
1020.27	3.00706
1020.636	4.00897
1021.001	10.02224
1021.366	27.06194
1021.731	27.06589
1022.096	5.01207
1022.461	-22.04837
1022.826	32.07103
1023.191	23.0573
1023.556	-59.12892
1023.92	12.02736
1024.285	-13.02977
1024.649	14.03225
1025.014	21.04875
1025.378	54.1287
1025.742	7.01636
1026.107	23.04749
1026.471	-63.13585
1026.835	-16.03708
1027.199	24.05447
1027.562	48.10402
1027.926	-3.00688
1028.29	-4.00963
1028.654	-21.04474
1029.017	45.10373
1029.381	-7.01583
1029.744	10.02433
1030.107	-37.08088
1030.471	3.0067
1030.834	2.00415
1031.197	1.00222
1031.56	58.12832
1031.923	-32.07892
1032.286	9.01957
1032.648	-20.04467
1033.011	33.07049
1033.374	-40.0872
1033.736	-58.14666
1034.099	10.02305
1034.461	15.03617
1034.823	-54.12762
1035.185	-66.1564
1035.548	-15.03435
1035.91	29.06543
1036.272	-17.03625
1036.634	-8.01816
1036.995	73.16005
1037.357	-23.0531
1037.719	17.03868
1038.08	-1.00218
1038.442	52.11725
1038.803	-39.08785
1039.165	26.06192
1039.526	-3.00683
1039.887	27.06082
1040.248	49.1156
1040.609	13.03012
1040.97	0
1041.331	-42.09949
1041.692	-9.01992
1042.053	4.00837
1042.413	-15.0323
1042.774	19.04301
1043.134	53.11527
1043.495	14.03288
1043.855	9.02051
1044.215	24.05571
1044.576	17.0384
1044.936	41.08739
1045.296	18.04196
1045.656	15.03452
1046.016	0
1046.375	41.09371
1046.735	37.07876
1047.095	-23.05073
1047.454	58.11128
1047.814	21.04678
1048.173	-21.04622
1048.533	15.03219
1048.892	18.04087
1049.251	42.09876
1049.61	-68.15783
1049.969	41.09057
1050.328	-14.02769
1050.687	-43.099
1051.046	34.0781
1051.405	-1.00231
1051.763	32.06869
1052.122	12.02856
1052.48	-17.03909
1052.839	-38.0846
1053.197	-5.01105
1053.555	-7.01426
1053.914	9.02056
1054.272	2.00452
1054.63	-41.09451
1054.988	-25.05583
1055.345	-41.08111
1055.703	-21.04709
1056.061	-16.03921
1056.419	-1.00247
1056.776	9.02035
1057.134	32.06846
1057.491	12.02821
1057.848	-6.014
1058.206	-1.0022
1058.563	12.02478
1058.92	2.00424
1059.277	-20.0457
1059.634	-44.09535
1059.991	67.14925
1060.348	-10.02134
1060.704	-7.01573
1061.061	-32.06801
1061.418	-16.0369
1061.774	44.10322
1062.131	26.06682
1062.487	7.01515
1062.843	28.0654
1063.199	48.11243
1063.555	41.08887
1063.911	14.03318
1064.267	-9.01675
1064.623	25.0576
1064.979	-41.08894
1065.335	-6.01319
1065.691	38.08572
1066.046	-16.03233
1066.402	-44.09392
1066.757	8.0191
1067.112	-29.06647
1067.468	5.01128
1067.823	57.1276
1068.178	5.01143
1068.533	7.01577
1068.888	-32.07121
1069.243	-3.00703
1069.598	-47.10643
1069.952	13.02778
1070.307	6.01427
1070.662	30.06668
1071.016	-7.0148
1071.371	-18.03809
1071.725	-58.12767
1072.079	-7.01578
1072.434	-54.12449
1072.788	36.08048
1073.142	45.10435
1073.496	-33.07397
1073.85	1.00216
1074.203	0
1074.557	30.07629
1074.911	31.06791
1075.265	-19.04081
1075.618	60.13673
1075.971	-18.04001
1076.325	-21.05079
1076.678	-16.03427
1077.031	-18.03796
1077.385	17.03486
1077.738	53.11046
1078.091	21.04513
1078.444	-32.06869
1078.796	21.04873
1079.149	-28.06504
1079.502	-11.02448
1079.855	-3.00659
1080.207	10.02306
1080.56	-15.03685
1080.912	-60.13651
1081.264	26.05841
1081.617	11.02525
1081.969	32.07755
1082.321	-4.00921
1082.673	-7.01516
1083.025	-43.09543
1083.377	24.04631
1083.728	-13.02774
1084.08	4.00949
1084.432	-31.06886
1084.783	48.10526
1085.135	31.07418
1085.486	4.00862
1085.838	6.01391
1086.189	4.00912
1086.54	-11.02467
1086.891	6.01457
1087.242	-6.01363
1087.593	26.05853
1087.944	-35.07395
1088.295	-8.01671
1088.646	32.0726
1088.996	-35.07961
1089.347	2.00458
1089.698	17.03798
1090.048	-35.08605
1090.398	25.05419
1090.749	9.02023
1091.099	-1.00241
1091.449	-59.13908
1091.799	-40.09501
1092.149	21.04933
1092.499	9.02071
1092.849	-15.03628
1093.199	-34.08041
1093.548	22.04981
1093.898	-20.04759
1094.248	-34.08327
1094.597	-7.01726
1094.947	-34.08683
1095.296	-22.05112
1095.645	0
1095.994	20.04519
1096.343	28.06712
1096.692	32.0806
1097.041	-9.02356
1097.39	-18.0426
1097.739	34.08385
1098.088	-24.06078
1098.437	-28.07085
1098.785	-12.03077
1099.134	-17.04247
1099.482	-17.04449
1099.83	-9.02242
1100.179	-20.05066
1100.527	-31.07829
1100.875	-35.08874
1101.223	20.05093
1101.571	-20.05352
1101.919	-30.07589
1102.267	13.03563
1102.615	8.0257
1102.962	2.00642
1103.31	16.05131
1103.658	-6.01925
