Data from N3 R5 sample 4_Subt2__4__14-23-53-551.txt Node

Date: Thu Sep 18 14:23:53 PDT 2025
User: uwsun
Spectrometer: HDX01956
Trigger mode: 0
Integration Time (sec): 5.000000E-1
Scans to average: 1
Nonlinearity correction enabled: true
Boxcar width: 0
Storing dark spectrum: false
XAxis mode: Wavelengths
Number of Pixels in Spectrum: 2068
>>>>>Begin Spectral Data<<<<<
194.03	69.19836
194.578	73.23545
195.127	68.21651
195.676	63.20051
196.225	90.23428
196.773	115.31555
197.321	137.37447
197.87	170.42771
198.418	244.61188
198.966	211.54196
199.513	243.59959
200.061	153.38087
200.609	157.40594
201.156	166.3485
201.704	123.3043
202.251	216.55625
202.798	192.48842
203.345	205.49222
203.892	194.47509
204.438	211.48789
204.985	194.44956
205.532	231.60261
206.078	186.44516
206.624	160.38834
207.17	223.49797
207.716	131.31
208.262	192.3632
208.808	206.49848
209.354	136.32538
209.899	170.41663
210.445	175.42944
210.99	155.3675
211.535	207.4695
212.08	157.35509
212.625	199.4829
213.17	182.44736
213.715	180.39439
214.259	226.50978
214.804	196.46623
215.348	191.42211
215.892	210.48914
216.436	224.50155
216.98	159.33815
217.524	175.40208
218.068	190.46409
218.612	180.43606
219.155	181.41236
219.698	163.37361
220.242	172.41496
220.785	184.41691
221.328	183.44308
221.871	193.4722
222.414	146.34917
222.956	185.43422
223.499	154.33572
224.041	163.36144
224.583	189.38794
225.126	172.37257
225.668	162.38328
226.21	181.44071
226.751	87.18438
227.293	139.30514
227.835	158.37281
228.376	118.26258
228.918	204.49512
229.459	198.48236
230	214.48784
230.541	144.31951
231.082	106.25215
231.622	180.39955
232.163	219.51462
232.704	193.46024
233.244	123.29804
233.784	158.37151
234.324	156.33676
234.864	93.20545
235.404	164.37265
235.944	151.34305
236.484	131.31467
237.023	198.45155
237.563	160.35708
238.102	172.39178
238.641	217.53131
239.18	166.37842
239.719	205.49951
240.258	173.37145
240.797	187.4336
241.335	146.34182
241.874	208.38269
242.412	168.38839
242.95	169.39481
243.488	204.44603
244.026	188.41835
244.564	238.46103
245.102	206.44278
245.64	152.35363
246.177	187.39891
246.715	189.43059
247.252	158.34604
247.789	93.16007
248.326	143.33027
248.863	138.29113
249.4	211.46377
249.936	188.36766
250.473	160.36209
251.009	189.42066
251.546	200.42359
252.082	223.4691
252.618	181.39114
253.154	159.36999
253.69	154.33387
254.226	169.38798
254.761	183.38835
255.297	194.40836
255.832	146.3331
256.367	148.33575
256.903	154.32374
257.438	172.38449
257.972	205.43142
258.507	154.34638
259.042	161.32853
259.576	173.35975
260.111	170.37641
260.645	205.42477
261.179	153.34308
261.713	185.39156
262.247	222.494
262.781	200.40338
263.315	182.4306
263.849	173.41855
264.382	166.3651
264.915	204.46185
265.449	172.40789
265.982	171.36906
266.515	208.48715
267.048	276.55128
267.58	167.34387
268.113	202.42052
268.646	228.5438
269.178	181.38896
269.71	220.45351
270.243	165.36267
270.775	221.5403
271.307	163.37301
271.838	186.42076
272.37	233.55029
272.902	235.51153
273.433	190.39449
273.965	205.48548
274.496	154.36689
275.027	197.46762
275.558	191.44515
276.089	224.53999
276.62	192.46827
277.15	210.4953
277.681	185.37647
278.211	199.46434
278.741	238.50363
279.272	199.43611
279.802	204.49141
280.332	201.45589
280.861	210.48432
281.391	162.35301
281.921	149.34275
282.45	224.54346
282.98	200.50517
283.509	224.47898
284.038	153.33092
284.567	174.38318
285.096	253.5829
285.625	214.47165
286.153	168.37911
286.682	230.49671
287.21	183.42416
287.739	170.38472
288.267	234.54439
288.795	199.50363
289.323	255.57507
289.851	203.45332
290.378	214.45958
290.906	199.46763
291.433	258.61369
291.961	201.43287
292.488	243.57835
293.015	271.61065
293.542	203.49353
294.069	233.54773
294.596	264.62023
295.122	235.53625
295.649	223.47364
296.175	206.47226
296.702	222.50914
297.228	154.35659
297.754	211.45167
298.28	263.56298
298.806	222.51505
299.332	218.4605
299.857	257.54704
300.383	205.49447
300.908	205.48417
301.433	259.6029
301.958	236.50879
302.483	248.60077
303.008	244.57079
303.533	185.4575
304.058	282.6249
304.582	270.60678
305.107	297.74221
305.631	274.58386
306.155	278.61988
306.679	283.62803
307.203	272.59998
307.727	287.64855
308.251	271.63456
308.775	230.52155
309.298	269.61877
309.822	263.63219
310.345	287.64326
310.868	272.61678
311.391	249.58351
311.914	259.62139
312.437	264.56426
312.96	298.66612
313.482	296.66602
314.005	296.70487
314.527	318.79396
315.049	342.80626
315.571	341.72646
316.093	359.8386
316.615	292.67314
317.137	316.63675
317.659	263.59989
318.18	318.7243
318.702	318.69702
319.223	299.57435
319.744	368.77051
320.265	273.63323
320.786	314.73624
321.307	349.82036
321.828	352.75005
322.348	365.8066
322.869	287.63107
323.389	377.64514
323.909	370.7908
324.43	317.71341
324.95	364.78101
325.47	428.9787
325.989	399.89092
326.509	372.76476
327.029	339.71624
327.548	380.79845
328.067	392.87873
328.587	405.94119
329.106	415.86565
329.625	356.86362
330.144	362.77069
330.662	411.88127
331.181	433.93524
331.7	420.90542
332.218	482.95516
332.736	426.91008
333.255	478.01129
333.773	462.00252
334.291	431.98219
334.808	411.83636
335.326	478.9831
335.844	537.13808
336.361	503.16121
336.879	468.99589
337.396	452.98942
337.913	505.04217
338.43	511.04843
338.947	481.04582
339.464	491.94912
339.981	530.14107
340.497	557.24006
341.014	475.04763
341.53	580.1766
342.046	589.29786
342.562	554.2433
343.078	554.16369
343.594	543.17586
344.11	605.27238
344.626	609.37891
345.141	623.26253
345.657	595.17546
346.172	572.22583
346.687	606.23615
347.202	658.28768
347.717	624.32074
348.232	667.47483
348.747	672.34554
349.261	684.32286
349.776	622.2809
350.29	706.53354
350.805	676.4515
351.319	711.4372
351.833	691.37183
352.347	620.26303
352.861	664.35525
353.374	711.3965
353.888	700.4592
354.401	664.32827
354.915	725.4073
355.428	728.58136
355.941	766.53191
356.454	741.41653
356.967	757.54078
357.48	781.51474
357.993	772.62938
358.505	804.70068
359.018	768.59119
359.53	778.5947
360.042	763.40731
360.554	781.60554
361.066	768.59685
361.578	857.55977
362.09	826.66272
362.602	813.49972
363.113	796.53103
363.625	898.68122
364.136	869.57047
364.647	862.67725
365.158	861.68046
365.669	964.9275
366.18	805.55913
366.691	902.62734
367.201	939.82772
367.712	861.59637
368.222	935.77859
368.733	935.66256
369.243	952.67235
369.753	947.76573
370.263	947.82761
370.773	962.95805
371.282	1052.98655
371.792	1036.87636
372.301	1047.0358
372.811	1026.18109
373.32	1091.77948
373.829	1132.1085
374.338	1171.98406
374.847	1234.11987
375.356	1243.26757
375.865	1265.96872
376.373	1352.2341
376.882	1400.62983
377.39	1389.46908
377.898	1446.63079
378.407	1425.24562
378.915	1534.22642
379.423	1607.61314
379.93	1633.4613
380.438	1759.88007
380.946	1822.74609
381.453	1863.8692
381.96	1957.88624
382.468	2107.98625
382.975	2273.21724
383.482	2247.78142
383.989	2332.46661
384.495	2441.95149
385.002	2645.52481
385.509	2720.02452
386.015	2936.30978
386.521	3041.7492
387.028	3173.81159
387.534	3258.49632
388.04	3297.99922
388.546	3417.56948
389.051	3580.43623
389.557	3881.64457
390.063	4265.44945
390.568	4309.55263
391.073	4506.08703
391.578	4683.38668
392.084	4907.69129
392.589	4992.57257
393.093	5215.83385
393.598	5825.32062
394.103	6445.4045
394.607	7081.36897
395.112	7523.67999
395.616	7932.87099
396.12	8754.88604
396.624	9674.02638
397.128	10586.07331
397.632	11658.38769
398.136	12799.64814
398.639	13468.43882
399.143	15034.89153
399.646	17066.02965
400.15	19203.84133
400.653	21235.50546
401.156	23599.87683
401.659	27474.67644
402.162	33915.45365
402.664	45728.01628
403.167	60313.57252
403.67	60761.10229
404.172	55487.84425
404.674	37291.05854
405.176	4428.40989
405.678	533.47942
406.18	0
406.682	0
407.184	6962.89417
407.686	50953.82939
408.187	59237.6763
408.688	61091.12691
409.19	61923.45898
409.691	62441.93235
410.192	53001.87057
410.693	46016.93934
411.194	41524.97112
411.694	38734.59953
412.195	35812.37208
412.696	32446.02539
413.196	29975.40838
413.696	29265.9788
414.196	29215.54836
414.696	28576.89538
415.196	27000.94299
415.696	24361.28158
416.196	19768.63639
416.695	15325.15638
417.195	13289.0548
417.694	12610.92731
418.194	11881.6315
418.693	11198.10284
419.192	10843.1942
419.691	10520.86339
420.19	10182.59444
420.688	10091.18936
421.187	9619.16755
421.685	8926.21695
422.184	7965.8216
422.682	7088.04818
423.18	6065.29592
423.678	5425.50819
424.176	5183.65703
424.674	4809.61026
425.172	4489.22383
425.669	4291.7275
426.167	3917.46611
426.664	3636.51629
427.161	3267.65458
427.659	3090.15781
428.156	2899.39004
428.652	2724.34776
429.149	2696.11383
429.646	2472.5693
430.143	2346.99778
430.639	2249.89729
431.135	2084.01712
431.632	1940.60317
432.128	1890.82001
432.624	1716.88853
433.12	1707.48939
433.616	1635.26594
434.111	1614.57457
434.607	1465.43073
435.103	1431.96887
435.598	1434.95471
436.093	1377.23893
436.588	1337.11552
437.083	1267.04519
437.578	1169.96575
438.073	1087.07183
438.568	1077.02009
439.062	1077.71063
439.557	977.77778
440.051	984.72962
440.546	939.69123
441.04	890.67769
441.534	947.93404
442.028	897.72354
442.522	871.69519
443.015	836.45812
443.509	900.78198
444.002	869.73215
444.496	811.39396
444.989	815.6507
445.482	794.62753
445.975	800.49154
446.468	767.33925
446.961	724.25436
447.454	683.26704
447.947	762.52179
448.439	774.57864
448.931	687.29728
449.424	692.44953
449.916	640.30443
450.408	767.45075
450.9	650.33924
451.392	657.4261
451.884	573.10969
452.375	558.19476
452.867	660.24407
453.358	559.07633
453.849	610.08556
454.341	656.24378
454.832	566.0415
455.323	613.28526
455.814	565.10617
456.304	539.06713
456.795	590.13477
457.285	514.97669
457.776	494.95743
458.266	527.09934
458.756	543.11421
459.247	476.99265
459.737	537.12569
460.226	525.02044
460.716	519.08598
461.206	490.01636
461.695	536.17919
462.185	468.97943
462.674	440.8813
463.163	410.79538
463.653	509.9232
464.142	425.90617
464.63	473.01575
465.119	450.92968
465.608	420.8537
466.096	410.79234
466.585	431.86468
467.073	353.75333
467.561	451.97786
468.05	369.76047
468.538	472.03687
469.026	413.88938
469.513	317.60218
470.001	361.73328
470.489	377.8007
470.976	403.82792
471.463	407.91965
471.951	364.82402
472.438	322.69031
472.925	263.55981
473.412	297.66019
473.899	345.71837
474.385	324.72513
474.872	306.64779
475.359	315.70281
475.845	316.58901
476.331	274.53585
476.817	275.60926
477.303	277.58936
477.789	311.6824
478.275	255.58821
478.761	268.5914
479.247	228.4681
479.732	273.63399
480.218	246.59615
480.703	282.65553
481.188	205.40443
481.673	188.40409
482.158	237.46976
482.643	241.56962
483.128	257.53633
483.612	228.49133
484.097	248.56077
484.581	179.38235
485.066	176.3996
485.55	123.25281
486.034	243.49021
486.518	190.41911
487.002	165.38168
487.486	191.43813
487.969	180.41993
488.453	190.45283
488.936	160.33724
489.42	144.30085
489.903	232.54527
490.386	198.39622
490.869	120.24225
491.352	197.44754
491.835	84.16279
492.318	178.3793
492.8	115.22218
493.283	168.40745
493.765	150.35173
494.247	140.30559
494.73	157.32575
495.212	171.38659
495.694	160.35264
496.175	99.22519
496.657	198.44571
497.139	50.07897
497.62	94.21524
498.102	112.26704
498.583	103.24337
499.064	180.3819
499.545	136.29296
500.026	135.28561
500.507	81.17782
500.988	130.30388
501.469	87.20771
501.949	91.21293
502.43	105.23748
502.91	101.19719
503.39	153.36178
503.87	127.2849
504.35	77.17174
504.83	103.21495
505.31	129.29888
505.79	141.31994
506.269	93.20588
506.749	123.26592
507.228	138.30709
507.707	176.3646
508.187	101.22788
508.666	158.36484
509.145	128.28377
509.623	126.28027
510.102	143.32672
510.581	159.35814
511.059	170.40749
511.538	162.39555
512.016	230.51541
512.494	167.37863
512.972	231.51605
513.45	199.43795
513.928	190.43418
514.406	254.58228
514.884	234.57176
515.361	257.57697
515.839	227.47814
516.316	250.55353
516.793	311.72165
517.27	293.65724
517.747	295.70236
518.224	303.63653
518.701	311.63258
519.178	369.8501
519.654	239.51493
520.131	299.67346
520.607	305.69511
521.083	322.67421
521.56	272.58942
522.036	320.63976
522.512	330.74312
522.987	351.76821
523.463	274.60439
523.939	294.66341
524.414	253.53478
524.89	232.50789
525.365	276.58122
525.84	224.51207
526.315	165.37272
526.79	215.44709
527.265	189.39793
527.74	168.38607
528.215	212.46901
528.689	224.46798
529.164	102.2061
529.638	178.43429
530.112	172.38814
530.587	182.36893
531.061	148.34093
531.534	151.34402
532.008	182.41473
532.482	88.18891
532.956	177.43483
533.429	80.18105
533.903	148.30536
534.376	58.1229
534.849	154.33913
535.322	120.26991
535.795	119.27746
536.268	150.34471
536.741	74.17074
537.213	173.37786
537.686	32.07519
538.158	92.19792
538.631	66.15331
539.103	82.17626
539.575	123.24151
540.047	115.23946
540.519	57.13018
540.991	99.22965
541.463	73.17115
541.934	67.14807
542.406	94.21567
542.877	65.14077
543.348	-33.07628
543.82	69.16253
544.291	62.13688
544.762	85.19319
545.233	108.26282
545.703	70.14968
546.174	87.19525
546.645	99.23183
547.115	69.16095
547.585	159.35066
548.056	125.29409
548.526	112.25295
548.996	101.23262
549.466	57.13353
549.935	110.254
550.405	125.26399
550.875	84.19057
551.344	115.26655
551.814	41.08974
552.283	125.25576
552.752	85.18982
553.221	45.09466
553.69	86.1843
554.159	127.30367
554.628	97.20755
555.096	44.10832
555.565	97.2063
556.033	86.19344
556.502	91.21101
556.97	73.15458
557.438	73.16665
557.906	79.18006
558.374	81.17819
558.842	38.08834
559.31	28.06029
559.777	26.06156
560.245	65.14509
560.712	0
561.18	22.04702
561.647	17.03674
562.114	34.07522
562.581	55.13177
563.048	26.05728
563.514	41.09826
563.981	51.1121
564.448	83.17929
564.914	12.02708
565.381	-4.00874
565.847	-23.05251
566.313	37.08304
566.779	74.16221
567.245	96.21549
567.711	75.17453
568.176	91.20153
568.642	93.22645
569.108	63.15001
569.573	54.12101
570.038	87.1764
570.504	82.17929
570.969	102.24469
571.434	76.16223
571.899	110.25228
572.363	112.24292
572.828	114.24652
573.293	119.26102
573.757	134.29522
574.222	137.29517
574.686	108.23374
575.15	167.37816
575.614	99.21715
576.078	104.23354
576.542	154.33429
577.006	199.42507
577.469	124.29054
577.933	82.17519
578.396	138.31663
578.86	113.25276
579.323	147.33342
579.786	111.22743
580.249	138.30033
580.712	73.17075
581.175	115.27214
581.637	153.33743
582.1	133.2746
582.563	58.11601
583.025	110.25582
583.487	133.25202
583.95	66.13722
584.412	117.23093
584.874	112.25934
585.336	101.23029
585.797	74.15296
586.259	51.11389
586.721	119.26706
587.182	58.12837
587.643	75.16319
588.105	105.23874
588.566	73.1472
589.027	150.34747
589.488	28.06156
589.949	52.12031
590.41	88.1659
590.87	9.01953
591.331	60.12202
591.791	29.06396
592.252	67.14758
592.712	86.19772
593.172	59.12777
593.632	64.13021
594.092	68.14516
594.552	61.12476
595.011	90.19953
595.471	55.11814
595.931	21.04519
596.39	48.11141
596.849	25.0562
597.308	125.2546
597.768	32.07907
598.227	57.13243
598.685	-6.01316
599.144	39.08788
599.603	49.11173
600.062	-30.06109
600.52	33.07134
600.978	37.08549
601.437	4.00885
601.895	35.07139
602.353	7.01485
602.811	14.03
603.269	-10.02318
603.727	-14.03273
604.184	40.08702
604.642	21.04964
605.099	26.058
605.557	12.028
606.014	1.00208
606.471	15.03684
606.928	17.03686
607.385	23.0554
607.842	54.12066
608.299	65.14491
608.755	59.13648
609.212	29.06278
609.668	46.09909
610.125	47.10838
610.581	23.05149
611.037	6.01317
611.493	7.01587
611.949	21.049
612.405	63.12201
612.861	11.02453
613.316	11.02568
613.772	11.02448
614.227	-5.01148
614.683	-30.06265
615.138	35.08019
615.593	-36.08091
616.048	0
616.503	35.08267
616.958	-4.00975
617.412	0
617.867	29.06275
618.321	-37.07268
618.776	10.02129
619.23	9.02065
619.684	54.11512
620.138	20.0436
620.592	-11.02579
621.046	4.009
621.5	14.03271
621.954	24.05143
622.407	-4.00856
622.861	-27.06276
623.314	22.04818
623.768	27.06069
624.221	21.04001
624.674	-31.06854
625.127	40.08971
625.58	-61.13216
626.033	7.01459
626.485	0
626.938	-12.02741
627.39	33.07363
627.843	-10.02212
628.295	10.02228
628.747	-24.05531
629.199	6.01329
629.651	9.01977
630.103	49.10798
630.555	-15.0303
631.006	-12.02715
631.458	-35.07881
631.909	12.02617
632.361	-48.10752
632.812	-20.04493
633.263	-16.03283
633.714	-52.10618
634.165	-62.14339
634.616	-13.02963
635.067	-51.1078
635.518	-49.11159
635.968	13.02466
636.419	-1.00205
636.869	-44.10051
637.319	-15.03341
637.769	-27.0588
638.219	-34.07717
638.669	-7.0162
639.119	-38.08942
639.569	7.01644
640.019	2.00442
640.468	-89.19126
640.918	-7.01617
641.367	-34.07409
641.816	31.06648
642.265	16.03549
642.714	10.02241
643.163	-20.04371
643.612	-45.10686
644.061	-62.12666
644.51	-22.04883
644.958	10.02112
645.406	-20.04666
645.855	-47.11178
646.303	-20.04488
646.751	-21.0467
647.199	-63.13719
647.647	-15.03387
648.095	-25.05523
648.543	-12.02318
648.99	-5.01162
649.438	18.0407
649.885	8.01929
650.333	-59.10879
650.78	55.1295
651.227	-18.04285
651.674	15.03301
652.121	-72.16923
652.568	-25.05912
653.015	-62.15026
653.461	-22.05082
653.908	29.06463
654.354	-58.13318
654.801	-54.12425
655.247	-16.03369
655.693	-42.10723
656.139	-31.07208
656.585	-14.03265
657.031	-32.07354
657.477	10.02098
657.922	-3.00674
658.368	-28.06681
658.813	-22.04827
659.259	3.007
659.704	30.06781
660.149	-17.03842
660.594	-1.0023
661.039	18.03979
661.484	-3.00694
661.929	-27.06114
662.373	45.11092
662.818	-6.01459
663.262	-13.03028
663.707	-49.12096
664.151	51.12116
664.595	-20.04708
665.039	-27.0651
665.483	25.06217
665.927	-11.02492
666.371	-23.0524
666.814	-34.07892
667.258	1.00233
667.701	18.03652
668.145	9.02155
668.588	-32.07697
669.031	-32.07425
669.474	-36.08445
669.917	-28.05974
670.36	-28.06732
670.803	-7.01631
671.245	-1.00201
671.688	10.02346
672.13	-12.02596
672.573	17.04203
673.015	-36.08396
673.457	40.08413
673.899	-18.04211
674.341	-12.02807
674.783	21.04896
675.225	15.03562
675.666	7.01641
676.108	3.00632
676.549	2.00455
676.991	-13.02758
677.432	-11.02078
677.873	3.00667
678.314	-13.03004
678.755	36.08491
679.196	-2.00447
679.637	-7.01641
680.078	25.05597
680.518	-23.0509
680.959	-16.03714
681.399	-25.05987
681.839	-17.04012
682.28	4.00963
682.72	-21.04635
683.16	34.08191
683.6	9.0197
684.039	11.02179
684.479	-16.03827
684.919	-6.01357
685.358	-11.02695
685.798	-34.08656
686.237	5.01162
686.676	18.03996
687.115	-24.05469
687.554	-28.06453
687.993	-12.02514
688.432	30.06645
688.871	7.01529
689.309	105.24424
689.748	23.04578
690.186	-12.02739
690.625	28.06427
691.063	50.11619
691.501	13.03111
691.939	-28.06811
692.377	36.08468
692.815	44.10233
693.253	-3.00688
693.69	15.03155
694.128	11.02609
694.565	40.09174
695.003	22.05416
695.44	54.12066
695.877	54.12206
696.314	41.08343
696.751	16.0347
697.188	30.06657
697.625	25.05423
698.061	-27.06308
698.498	44.10172
698.934	-3.00691
699.371	-29.06685
699.807	20.04563
700.243	40.09361
700.679	21.04554
701.115	17.03807
701.551	43.09757
701.987	-1.00213
702.422	25.05689
702.858	-14.03199
703.294	4.00863
703.729	46.10858
704.164	31.07228
704.599	0
705.035	-27.05877
705.47	82.19266
705.904	5.01116
706.339	10.02195
706.774	-8.01796
707.209	22.04847
707.643	1.00232
708.078	-6.01407
708.512	2.00494
708.946	16.03655
709.38	-32.07292
709.814	-17.03715
710.248	-21.04887
710.682	-19.04418
711.116	37.08566
711.549	-28.06982
711.983	-2.00441
712.416	-39.0881
712.85	36.08679
713.283	34.07688
713.716	27.06461
714.149	-5.01131
714.582	61.1299
715.015	36.08557
715.448	-11.02637
715.881	7.01424
716.313	40.09008
716.746	29.06578
717.178	-37.0859
717.61	19.0464
718.043	-6.01427
718.475	-52.12184
718.907	-18.04325
719.339	-24.0525
719.77	58.13286
720.202	6.01457
720.634	49.11483
721.065	0
721.497	35.08228
721.928	33.07815
722.359	13.03066
722.79	10.02298
723.221	-56.13557
723.652	17.04163
724.083	-3.00644
724.514	-9.01938
724.945	-13.02944
725.375	3.00671
725.806	5.01174
726.236	34.08308
726.666	8.01794
727.096	37.08583
727.526	-18.04438
727.956	-14.03051
728.386	-6.01393
728.816	-18.0442
729.246	42.09822
729.675	10.02389
730.105	14.03274
730.534	28.06228
730.964	-30.07224
731.393	-27.06318
731.822	33.08098
732.251	52.12659
732.68	-42.09261
733.109	62.14533
733.537	19.04371
733.966	-14.03328
734.395	-13.02845
734.823	30.06323
735.251	30.06889
735.68	43.10172
736.108	3.00724
736.536	26.05815
736.964	-28.06197
737.392	-11.0262
737.82	-23.05263
738.247	24.05403
738.675	1.00224
739.102	61.14653
739.53	24.05908
739.957	-19.04687
740.384	46.10588
740.811	57.13796
741.238	2.00463
741.665	52.11572
742.092	0
742.519	33.07885
742.945	40.09078
743.372	43.10164
743.798	-10.0247
744.225	-18.04085
744.651	-18.04318
745.077	37.0877
745.503	41.0939
745.929	3.00683
746.355	9.02089
746.781	21.04947
747.207	20.04534
747.632	13.03053
748.058	-11.02603
748.483	-8.01731
748.908	17.04029
749.334	-10.0235
749.759	16.03568
750.184	-43.09852
750.609	18.0418
751.033	33.07202
751.458	93.19572
751.883	46.10707
752.307	69.15536
752.732	-14.03416
753.156	19.04467
753.58	42.09358
754.005	84.20297
754.429	-14.03088
754.853	56.13204
755.277	39.08796
755.7	-10.0237
756.124	39.09336
756.548	15.03408
756.971	55.12607
757.394	20.04925
757.818	29.07193
758.241	19.04574
758.664	82.19791
759.087	29.06259
759.51	22.05213
759.933	50.11486
760.356	17.04161
760.778	69.16335
761.201	-32.07322
761.623	0
762.046	-18.03959
762.468	51.11483
762.89	49.11434
763.312	5.01153
763.734	28.06432
764.156	30.07076
764.578	5.01076
765	44.1016
765.421	30.07434
765.843	36.09068
766.264	33.07467
766.686	54.12984
767.107	60.13932
767.528	16.03932
767.949	40.0968
768.37	24.05575
768.791	16.03653
769.212	60.14569
769.632	-7.01554
770.053	15.03806
770.473	52.11993
770.894	-7.01653
771.314	28.06231
771.734	46.1002
772.154	64.1561
772.575	28.06099
772.994	-16.03478
773.414	-27.06052
773.834	14.03369
774.254	49.11272
774.673	28.06424
775.093	15.03573
775.512	22.05209
775.931	101.2439
776.351	-27.06399
776.77	21.04918
777.189	-9.02022
777.607	53.1292
778.026	43.10255
778.445	38.09199
778.864	36.08738
779.282	22.04969
779.701	32.07685
780.119	-45.10916
780.537	-36.08636
780.955	8.01935
781.373	10.02354
781.791	66.13966
782.209	80.17277
782.627	18.04579
783.045	20.04345
783.462	-2.00486
783.88	28.06972
784.297	28.06712
784.715	60.14896
785.132	6.01382
785.549	73.17489
785.966	-11.0264
786.383	-10.02373
786.8	62.13505
787.217	-49.11123
787.633	13.03107
788.05	-14.03066
788.466	15.0331
788.883	52.1274
789.299	1.00227
789.715	31.072
790.131	7.01649
790.547	-25.05864
790.963	36.08478
791.379	-12.02919
791.795	6.01289
792.21	23.05049
792.626	27.06037
793.041	-55.12985
793.457	-4.00938
793.872	38.08435
794.287	54.12489
794.702	4.00932
795.117	-24.05674
795.532	30.07252
795.947	0
796.362	27.06005
796.776	0
797.191	62.14191
797.605	54.12206
798.02	31.07211
798.434	23.04738
798.848	-57.13426
799.262	58.13834
799.676	23.05246
800.09	-5.01165
800.504	0
800.918	-22.04822
801.331	-1.00249
801.745	3.00647
802.158	-1.00238
802.572	35.07945
802.985	0
803.398	52.11629
803.811	29.07022
804.224	19.04462
804.637	-36.08044
805.05	10.02181
805.462	0
805.875	58.14572
806.288	46.10597
806.7	17.04059
807.112	-14.03073
807.525	41.09601
807.937	-40.09512
808.349	8.01896
808.761	-28.06473
809.173	-26.05932
809.584	-4.00933
809.996	44.10229
810.408	20.04956
810.819	0
811.231	31.07854
811.642	19.04486
812.053	90.20368
812.464	58.13067
812.875	55.13342
813.286	33.08035
813.697	4.00854
814.108	-17.03904
814.519	-23.04785
814.929	-27.06513
815.34	-4.00918
815.75	-35.08545
816.16	-50.11725
816.571	23.05696
816.981	-45.09949
817.391	-6.01368
817.801	27.06454
818.211	7.01584
818.62	-7.01594
819.03	-31.07154
819.44	17.04207
819.849	20.04805
820.259	9.02202
820.668	29.06842
821.077	16.03787
821.486	-8.01799
821.895	31.0706
822.304	19.04817
822.713	14.03102
823.122	61.14424
823.531	-10.0226
823.939	-9.0209
824.348	12.0277
824.756	22.05189
825.164	-2.00474
825.573	31.07367
825.981	23.05397
826.389	-45.1067
826.797	-32.07691
827.205	-43.09376
827.612	-40.0935
828.02	17.03804
828.428	-7.01692
828.835	-23.05844
829.243	-10.02244
829.65	-18.0429
830.057	42.09702
830.464	26.06059
830.871	16.03587
831.278	6.01356
831.685	-17.0351
832.092	-10.0234
832.499	-1.00203
832.905	33.07942
833.312	-1.00212
833.718	-7.01648
834.124	47.10022
834.531	-9.02145
834.937	17.04098
835.343	38.08617
835.749	15.03244
836.155	6.01495
836.561	-35.08045
836.966	8.01841
837.372	13.03125
837.777	-69.16423
838.183	-12.02429
838.588	31.07316
838.993	-56.12859
839.399	-7.01615
839.804	-28.06597
840.209	13.03181
840.613	19.03992
841.018	-55.13212
841.423	-52.12669
841.828	-4.00961
842.232	-35.08096
842.637	-51.11243
843.041	37.09157
843.445	-15.03544
843.849	-9.02118
844.253	-16.03555
844.657	30.07224
845.061	13.02765
845.465	29.06759
845.869	-49.10743
846.272	-16.03702
846.676	18.04115
847.079	20.04873
847.483	-3.00707
847.886	14.03141
848.289	28.07261
848.692	-2.0048
849.095	-49.11064
849.498	-8.01881
849.901	16.03387
850.304	22.04886
850.707	-28.06799
851.109	-15.0353
851.512	40.09328
851.914	29.07082
852.316	-24.05823
852.718	-3.00751
853.121	-5.01163
853.523	-29.0639
853.925	-6.01502
854.326	44.10519
854.728	11.02691
855.13	24.05939
855.531	49.11168
855.933	9.02024
856.334	15.03566
856.736	-42.08798
857.137	-2.00438
857.538	-29.06974
857.939	-7.01657
858.34	23.05225
858.741	-10.02495
859.142	7.0159
859.542	70.17877
859.943	11.02613
860.343	11.02601
860.744	59.13518
861.144	-22.05094
861.544	31.07131
861.945	-32.07741
862.345	-47.10738
862.745	-20.04732
863.145	-30.06629
863.544	57.13729
863.944	-12.0266
864.344	-14.03248
864.743	51.11859
865.143	-38.09358
865.542	-29.06323
865.941	56.13137
866.34	47.10526
866.74	-10.02574
867.139	-15.0343
867.537	-11.02648
867.936	23.05227
868.335	35.0849
868.734	25.06131
869.132	21.04606
869.531	23.05204
869.929	-1.00217
870.327	3.00678
870.726	19.04446
871.124	-13.02829
871.522	-36.08679
871.92	4.0093
872.318	24.05538
872.715	48.11062
873.113	-1.00231
873.511	-2.00474
873.908	55.13432
874.306	5.01184
874.703	-18.04272
875.1	34.08141
875.497	-23.05183
875.894	55.1289
876.291	27.0629
876.688	-20.0492
877.085	-16.03605
877.482	-25.05902
877.878	2.00456
878.275	-21.05066
878.671	-28.05652
879.068	-10.02273
879.464	24.05467
879.86	32.07195
880.256	17.0389
880.652	-12.02902
881.048	-10.02314
881.444	-15.03312
881.84	-12.02885
882.236	-5.01197
882.631	37.08546
883.027	-33.07442
883.422	-32.07811
883.817	22.05306
884.213	10.02444
884.608	43.10026
885.003	-22.0505
885.398	-53.12712
885.793	8.0189
886.188	22.05239
886.582	-23.05504
886.977	3.00667
887.371	10.02391
887.766	-28.06712
888.16	35.08231
888.554	-5.01153
888.949	-15.03517
889.343	7.01585
889.737	1.0026
890.131	18.04293
890.525	-7.01697
890.918	25.06003
891.312	-25.05534
891.706	56.14019
892.099	-14.03374
892.492	69.13606
892.886	-34.07851
893.279	1.00242
893.672	-13.03168
894.065	14.03294
894.458	25.05916
894.851	-17.03872
895.244	5.01216
895.637	6.01365
896.029	-19.04404
896.422	-8.01837
896.814	3.00708
897.206	22.04985
897.599	-6.01367
897.991	31.0706
898.383	21.0462
898.775	5.01049
899.167	16.03543
899.559	35.08289
899.951	5.01102
900.342	-31.07373
900.734	33.07915
901.125	-33.08212
901.517	11.02564
901.908	11.02445
902.299	-14.03262
902.69	-12.02674
903.082	-1.00228
903.473	42.09528
903.863	44.10716
904.254	-12.02604
904.645	-7.01621
905.036	35.08096
905.426	-53.11075
905.817	-40.09339
906.207	20.04502
906.597	11.02424
906.987	-42.10275
907.378	7.01666
907.768	21.05309
908.158	8.01844
908.547	21.05171
908.937	-7.01699
909.327	40.0903
909.717	38.08973
910.106	-13.02951
910.495	13.03085
910.885	-24.05678
911.274	20.04745
911.663	44.10616
912.052	52.11864
912.441	1.00244
912.83	21.0446
913.219	-42.10404
913.608	5.01153
913.997	-25.05969
914.385	-1.00221
914.774	14.03188
915.162	10.02224
915.55	2.00456
915.939	-24.05808
916.327	4.00943
916.715	8.01956
917.103	0
917.491	-26.06004
917.878	-43.09868
918.266	-1.00246
918.654	43.10498
919.041	-31.07773
919.429	19.04222
919.816	33.07831
920.203	30.06831
920.591	-18.04196
920.978	10.02296
921.365	-21.05245
921.752	22.0494
922.139	18.03644
922.525	13.02932
922.912	-54.12489
923.299	20.04716
923.685	-18.04493
924.072	-21.04482
924.458	18.04208
924.844	-3.00701
925.231	-20.04345
925.617	8.01967
926.003	-39.09528
926.389	18.04339
926.774	-11.02664
927.16	-5.01168
927.546	8.01948
927.931	5.01178
928.317	-10.02111
928.702	-32.07077
929.088	13.02899
929.473	7.01692
929.858	17.03953
930.243	-9.02055
930.628	-16.03668
931.013	70.16434
931.398	20.04227
931.783	-12.03015
932.167	3.00687
932.552	-33.07749
932.937	-31.07177
933.321	-53.12664
933.705	41.09849
934.09	-12.02827
934.474	15.03326
934.858	-3.00745
935.242	45.09862
935.626	-42.1024
936.009	-24.06116
936.393	62.14958
936.777	19.04654
937.16	-9.022
937.544	20.04375
937.927	-19.04613
938.311	28.06339
938.694	37.09258
939.077	-26.05834
939.46	32.07392
939.843	10.01879
940.226	-39.0951
940.609	0
940.991	-27.06557
941.374	-42.09702
941.757	38.08754
942.139	-37.07732
942.522	-17.03719
942.904	21.04748
943.286	-1.00238
943.668	-8.01972
944.05	-10.02328
944.432	22.05133
944.814	-3.0069
945.196	17.03959
945.578	-5.01137
945.959	20.0439
946.341	-11.02492
946.722	6.01325
947.104	-19.04243
947.485	-11.02394
947.866	9.02168
948.247	-6.01438
948.628	-11.02511
949.009	-15.03676
949.39	-23.05314
949.771	-7.01511
950.152	51.11774
950.532	-18.04351
950.913	-12.02694
951.293	29.07543
951.674	-18.04075
952.054	10.0235
952.434	-17.03962
952.814	-47.10392
953.194	64.15807
953.574	-23.05276
953.954	-11.02461
954.334	-20.04763
954.714	-21.04869
955.093	-18.04123
955.473	-47.11127
955.853	34.08361
956.232	15.03931
956.611	-35.07768
956.99	-15.036
957.37	-21.05096
957.749	2.00443
958.128	39.09358
958.506	38.09413
958.885	27.06385
959.264	-10.02324
959.643	-4.00853
960.021	37.0862
960.4	3.00645
960.778	-75.17301
961.156	18.04256
961.535	-37.07917
961.913	-16.03432
962.291	6.01484
962.669	-6.01449
963.047	-18.0431
963.424	9.02187
963.802	-77.17925
964.18	-9.02141
964.557	-23.04879
964.935	11.02426
965.312	-5.0125
965.69	32.07474
966.067	-2.00455
966.444	-31.07239
966.821	-21.05125
967.198	-11.02471
967.575	-9.02063
967.952	11.02425
968.329	-42.09656
968.705	-30.05873
969.082	10.02452
969.458	-42.09714
969.835	-23.05282
970.211	57.1377
970.587	-10.02357
970.963	3.00728
971.339	15.03759
971.715	-27.06288
972.091	-15.03481
972.467	-25.05804
972.843	-4.0094
973.219	-6.0133
973.594	-46.11578
973.97	-19.0419
974.345	17.03806
974.721	-27.06134
975.096	-21.04748
975.471	60.13235
975.846	39.08817
976.221	23.05527
976.596	-27.06127
976.971	27.06258
977.346	-31.06682
977.72	8.01924
978.095	29.07109
978.469	15.03359
978.844	-3.00711
979.218	14.03183
979.593	26.05831
979.967	-14.03244
980.341	-46.09909
980.715	11.026
981.089	-28.06581
981.463	-8.01743
981.837	-5.01164
982.21	37.07896
982.584	-30.06814
982.957	6.01429
983.331	-4.00887
983.704	25.05815
984.078	-39.09076
984.451	-35.08064
984.824	20.0462
985.197	3.00682
985.57	-14.03291
985.943	-28.06399
986.316	36.08257
986.688	-13.02937
987.061	-35.07641
987.434	22.05446
987.806	-14.0318
988.179	-34.07516
988.551	-33.07903
988.923	-46.10736
989.295	-17.04009
989.667	-3.00691
990.039	-4.0094
990.411	76.16259
990.783	8.01705
991.155	33.07549
991.527	8.01806
991.898	-4.00935
992.27	-3.00703
992.641	8.0188
993.012	28.06184
993.384	24.05352
993.755	-64.15563
994.126	-8.01816
994.497	-1.00231
994.868	19.04076
995.239	19.04346
995.61	12.0284
995.98	2.00463
996.351	2.00472
996.722	-23.05068
997.092	17.03815
997.462	0
997.833	-51.11384
998.203	20.04506
998.573	7.0166
998.943	-14.03043
999.313	10.02263
999.683	-26.05829
1000.053	-10.02166
1000.423	32.07271
1000.792	10.02464
1001.162	20.04659
1001.531	12.02804
1001.901	-41.09673
1002.27	83.1706
1002.639	-9.02195
1003.009	28.06316
1003.378	-8.01948
1003.747	-27.05982
1004.116	26.0586
1004.485	17.03831
1004.853	23.05498
1005.222	73.17389
1005.591	12.02638
1005.959	24.05101
1006.328	2.00417
1006.696	-10.02294
1007.064	0
1007.433	5.01187
1007.801	14.03198
1008.169	-20.04756
1008.537	46.09406
1008.905	24.05239
1009.273	-5.01164
1009.64	34.07626
1010.008	1.00223
1010.375	63.14156
1010.743	30.06251
1011.11	3.00668
1011.478	-2.00466
1011.845	-50.10923
1012.212	-24.0503
1012.579	-25.05836
1012.946	-9.01976
1013.313	28.06184
1013.68	19.03919
1014.047	13.02953
1014.414	-30.06764
1014.78	23.05437
1015.147	16.03562
1015.513	34.07789
1015.88	-19.04545
1016.246	25.05806
1016.612	-2.00422
1016.978	17.03893
1017.344	33.07746
1017.71	-21.04721
1018.076	10.02195
1018.442	-17.04139
1018.808	19.04481
1019.174	-28.06633
1019.539	23.04744
1019.905	-16.03578
1020.27	8.01882
1020.636	29.06468
1021.001	-14.0313
1021.366	60.13673
1021.731	-1.00245
1022.096	-9.02178
1022.461	-22.04837
1022.826	-12.02688
1023.191	28.06969
1023.556	6.01293
1023.92	-30.06897
1024.285	19.04324
1024.649	25.05746
1025.014	-12.02804
1025.378	9.02164
1025.742	16.03733
1026.107	-13.02706
1026.471	-12.02559
1026.835	-37.0861
1027.199	20.04543
1027.562	61.13182
1027.926	-21.04831
1028.29	14.03359
1028.654	-12.02552
1029.017	45.10373
1029.381	10.02253
1029.744	19.04614
1030.107	-18.03919
1030.471	3.0067
1030.834	-1.00208
1031.197	-45.10087
1031.56	84.18483
1031.923	-21.05169
1032.286	38.0821
1032.648	-7.01559
1033.011	-15.03237
1033.374	-17.03688
1033.736	-17.04267
1034.099	26.05975
1034.461	-11.02665
1034.823	-42.09903
1035.185	-32.07533
1035.548	-3.00685
1035.91	23.05196
1036.272	-14.02983
1036.634	-13.02955
1036.995	62.13625
1037.357	-5.0115
1037.719	42.09509
1038.08	-3.00654
1038.442	45.10161
1038.803	-14.03137
1039.165	-15.036
1039.526	14.03175
1039.887	28.06306
1040.248	36.08514
1040.609	-8.01861
1040.97	-25.05772
1041.331	-15.03535
1041.692	26.05714
1042.053	-51.10804
1042.413	-2.0043
1042.774	-2.00455
1043.134	-1.0022
1043.495	-46.1093
1043.855	24.05454
1044.215	-35.08219
1044.576	-18.04095
1044.936	40.08527
1045.296	13.03034
1045.656	24.05513
1046.016	-27.06059
1046.375	41.09371
1046.735	40.08509
1047.095	3.00658
1047.454	-8.01559
1047.814	-19.04268
1048.173	-47.104
1048.533	29.06205
1048.892	-18.04117
1049.251	37.08709
1049.61	-43.09931
1049.969	35.07742
1050.328	-86.17297
1050.687	-1.00228
1051.046	37.08494
1051.405	-67.1569
1051.763	-4.00865
1052.122	12.02856
1052.48	12.02743
1052.839	6.01324
1053.197	31.06802
1053.555	-51.10497
1053.914	27.06146
1054.272	-1.00226
1054.63	-38.08754
1054.988	-32.07156
1055.345	-51.10113
1055.703	-11.02462
1056.061	2.00489
1056.419	3.00742
1056.776	18.04062
1057.134	-7.0151
1057.491	-15.03544
1057.848	-36.08448
1058.206	30.06546
1058.563	65.13264
1058.92	17.03593
1059.277	-29.06639
1059.634	-52.11288
1059.991	31.06957
1060.348	6.01276
1060.704	-26.05865
1061.061	18.03784
1061.418	43.09801
1061.774	59.138
1062.131	17.04376
1062.487	-69.15173
1062.843	17.03979
1063.199	-19.04508
1063.555	-6.01314
1063.911	-2.00475
1064.267	-12.02234
1064.623	22.05072
1064.979	3.00645
1065.335	-23.05075
1065.691	29.06554
1066.046	-18.03639
1066.402	3.00634
1066.757	-46.11094
1067.112	-29.06647
1067.468	34.07626
1067.823	26.05858
1068.178	22.05013
1068.533	1.00226
1068.888	-20.0444
1069.243	17.03965
1069.598	-9.02022
1069.952	25.05329
1070.307	37.08746
1070.662	-13.02915
1071.016	57.1188
1071.371	-9.01901
1071.725	-13.02835
1072.079	-14.03161
1072.434	-75.17363
1072.788	42.09377
1073.142	39.09054
1073.496	-7.01561
1073.85	0
1074.203	-13.02956
1074.557	-12.03074
1074.911	-15.03318
1075.265	-60.13002
1075.618	40.09152
1075.971	-35.07806
1076.325	0
1076.678	-42.09047
1077.031	-42.08903
1077.385	60.12185
1077.738	-6.01267
1078.091	37.07924
1078.444	-21.04497
1078.796	17.03948
1079.149	-28.06504
1079.502	1.00222
1079.855	-31.06848
1080.207	12.02767
1080.56	-27.06648
1080.912	-53.12041
1081.264	-8.0181
1081.617	-23.05316
1081.969	9.02191
1082.321	2.0046
1082.673	41.08788
1083.025	-55.12237
1083.377	2.00388
1083.728	-51.10974
1084.08	4.00949
1084.432	-63.14086
1084.783	57.12476
1085.135	23.05512
1085.486	-28.06078
1085.838	18.04163
1086.189	0
1086.54	37.08215
1086.891	23.05569
1087.242	10.02264
1087.593	-10.02268
1087.944	2.00419
1088.295	18.03739
1088.646	21.04775
1088.996	-53.12099
1089.347	-53.12275
1089.698	20.04465
1090.048	5.0122
1090.398	40.08642
1090.749	10.02247
1091.099	-4.00964
1091.449	-6.014
1091.799	16.03759
1092.149	41.09594
1092.499	-26.06025
1092.849	10.02407
1093.199	-20.04717
1093.548	-3.00683
1093.898	-14.03328
1094.248	-3.0073
1094.597	10.02458
1094.947	4.01015
1095.296	-36.08389
1095.645	10.02452
1095.994	28.06316
1096.343	12.02885
1096.692	11.02781
1097.041	7.01828
1097.39	-11.026
1097.739	33.0814
1098.088	-22.05569
1098.437	-75.19137
1098.785	-36.09268
1099.134	-6.01496
1099.482	-14.03662
1099.83	-15.03741
1100.179	22.05531
1100.527	-26.06561
1100.875	-49.12455
1101.223	27.06868
1101.571	9.02397
1101.919	-43.10902
1102.267	35.09558
1102.615	3.00964
1102.962	2.00642
1103.31	7.02247
1103.658	-6.01925
