Data from N3 R5 sample 7_Subt2__0__13-32-15-618.txt Node

Date: Thu Sep 18 13:32:15 PDT 2025
User: uwsun
Spectrometer: HDX01956
Trigger mode: 0
Integration Time (sec): 5.000000E-1
Scans to average: 1
Nonlinearity correction enabled: true
Boxcar width: 0
Storing dark spectrum: false
XAxis mode: Wavelengths
Number of Pixels in Spectrum: 2068
>>>>>Begin Spectral Data<<<<<
194.03	-9.02617
194.578	12.03898
195.127	6.01925
195.676	-11.03532
196.225	22.05794
196.773	8.02232
197.321	12.03345
197.87	40.10298
198.418	53.13747
198.966	47.12417
199.513	60.15302
200.061	-10.02563
200.609	22.05821
201.156	-42.09222
201.704	-11.02788
202.251	15.03997
202.798	24.06286
203.345	40.09905
203.892	-13.03305
204.438	52.12403
204.985	4.00962
205.532	89.2378
206.078	36.08862
206.624	26.06469
207.17	44.10189
207.716	-40.09778
208.262	70.13638
208.808	14.0351
209.354	-12.02952
209.899	19.04787
210.445	-2.00507
210.99	-10.02446
211.535	40.0938
212.08	-2.00467
212.625	30.0751
213.17	-2.00508
213.715	28.06332
214.259	53.12377
214.804	49.11985
215.348	-8.01841
215.892	39.0939
216.436	31.07217
216.98	32.06994
217.524	21.04973
218.068	37.09294
218.612	-13.03263
219.155	43.10069
219.698	31.07293
220.242	71.17456
220.785	14.03282
221.328	39.09698
221.871	71.17765
222.414	0
222.956	26.06292
223.499	45.10037
224.041	36.08194
224.583	19.0405
225.126	76.168
225.668	13.03164
226.21	38.09499
226.751	-17.03685
227.293	29.06514
227.835	-4.00973
228.376	35.07923
228.918	38.0951
229.459	50.12517
230	47.11075
230.541	-14.03208
231.082	-8.01945
231.622	51.11624
232.163	28.06824
232.704	10.02468
233.244	6.01486
233.784	41.0986
234.324	41.09069
234.864	3.00675
235.404	42.09779
235.944	4.00936
236.484	-25.06183
237.023	29.06839
237.563	-22.05094
238.102	25.05864
238.641	76.19095
239.18	21.04927
239.719	29.07298
240.258	-15.03351
240.797	59.14027
241.335	-16.03865
241.874	49.09376
242.412	-18.04315
242.95	71.16906
243.488	47.10617
244.026	30.06894
244.564	48.09721
245.102	33.07357
245.64	9.02153
246.177	11.02436
246.715	56.13101
247.252	10.02259
247.789	-46.08212
248.326	7.0166
248.863	-16.0349
249.4	85.19178
249.936	18.03662
250.473	26.06044
251.009	58.1326
251.546	43.0942
252.082	88.19062
252.618	33.07357
253.154	39.0929
253.69	16.03571
254.226	16.03786
254.761	-13.02877
255.297	-10.02199
255.832	20.04679
256.367	18.04191
256.903	-7.01524
257.438	13.03001
257.972	-18.03974
258.507	21.04852
259.042	-19.04036
259.576	6.01294
260.111	26.0593
260.645	16.03455
261.179	16.03689
261.713	22.04822
262.247	23.05329
262.781	32.06703
263.315	30.07306
263.849	48.11886
264.382	25.05661
264.915	81.18797
265.449	24.05854
265.982	1.00224
266.515	50.12072
267.048	38.0801
267.58	38.08052
268.113	44.09482
268.646	71.17443
269.178	3.00669
269.71	18.03879
270.243	44.09917
270.775	42.10609
271.307	-20.04745
271.838	39.09086
272.37	3.0074
272.902	78.17544
273.433	49.10494
273.965	55.13402
274.496	14.03425
275.027	16.0393
275.558	12.02895
276.089	57.14174
276.62	26.06537
277.15	27.06594
277.681	0
278.211	41.09864
278.741	55.12104
279.272	42.09509
279.802	58.14357
280.332	-1.00236
280.861	20.04787
281.391	15.0337
281.921	-16.03802
282.45	62.15499
282.98	56.14508
283.509	47.10435
284.038	-12.02687
284.567	-7.016
285.096	52.1246
285.625	62.141
286.153	3.007
286.682	8.0181
287.21	16.03831
287.739	17.03967
288.267	44.1062
288.795	41.10667
289.323	29.06842
289.851	-1.00233
290.378	36.08028
290.906	18.04379
291.433	31.07695
291.961	0
292.488	35.08662
293.015	67.15726
293.542	6.01512
294.069	26.06358
294.596	30.07369
295.122	19.04524
295.649	67.14714
296.175	6.01431
296.702	43.10215
297.228	-2.00477
297.754	19.04236
298.28	24.05403
298.806	53.12707
299.332	-20.04445
299.857	2.00449
300.383	23.05738
300.908	19.04649
301.433	31.0754
301.958	-10.0227
302.483	73.18265
303.008	1.00245
303.533	-36.09262
304.058	18.04208
304.582	46.10812
305.107	30.07858
305.631	14.03152
306.155	26.06099
306.679	3.00704
307.203	18.04181
307.727	65.15352
308.251	5.01232
308.775	25.05905
309.298	62.14851
309.822	39.09772
310.345	40.0942
310.868	46.10909
311.391	35.08545
311.914	3.00755
312.437	7.01579
312.96	51.1198
313.482	43.10176
314.005	-17.0429
314.527	32.08401
315.049	17.0426
315.571	65.14677
316.093	50.12386
316.615	37.08962
317.137	25.05375
317.659	37.08824
318.18	64.15324
318.702	75.17281
319.223	30.06137
319.744	65.14521
320.265	43.10427
320.786	36.08898
321.307	64.15877
321.828	49.11128
322.348	91.2126
322.869	-16.03742
323.389	-13.02459
323.909	56.12782
324.43	66.15616
324.95	72.1642
325.47	76.18606
325.989	107.25331
326.509	70.1537
327.029	75.16762
327.548	39.0881
328.067	72.172
328.587	88.21727
329.106	53.11943
329.625	29.07465
330.144	32.07301
330.662	48.11097
331.181	70.16293
331.7	61.14161
332.218	116.24955
332.736	55.12693
333.255	66.15246
333.773	74.17414
334.291	38.09344
334.808	49.10793
335.326	58.13057
335.844	55.129
336.361	58.14593
336.879	62.14357
337.396	22.05252
337.913	73.16551
338.43	146.32475
338.947	76.17975
339.464	58.12376
339.981	76.17982
340.497	85.20797
341.014	63.15116
341.53	120.26936
342.046	96.23362
342.562	75.18507
343.078	103.23817
343.594	92.21868
344.11	104.24311
344.626	91.22793
345.141	120.27146
345.657	52.11596
346.172	138.32385
346.687	105.23883
347.202	99.21962
347.717	144.33714
348.232	121.29825
348.747	106.24028
349.261	134.29361
349.776	88.2032
350.29	79.19459
350.805	101.2439
351.319	140.32031
351.833	114.25705
352.347	80.18319
352.861	96.22141
353.374	117.26225
353.888	119.2803
354.401	86.19526
354.915	114.25379
355.428	147.359
355.941	110.2536
356.454	150.32811
356.967	136.31616
357.48	113.25432
357.993	116.28018
358.505	131.31802
359.018	146.34476
359.53	98.23187
360.042	89.19208
360.554	141.33186
361.066	107.25536
361.578	117.25317
362.09	162.37616
362.602	109.23676
363.113	133.29688
363.625	174.3843
364.136	163.34802
364.647	83.19154
365.158	148.33793
365.669	183.43221
366.18	76.17298
366.691	162.34791
367.201	138.31992
367.712	139.30437
368.222	225.50223
368.733	178.37897
369.243	158.33566
369.753	182.40399
370.263	130.30018
370.773	152.36643
371.282	176.40381
371.792	180.39739
372.301	149.35191
372.811	165.41655
373.32	176.36117
373.829	237.53994
374.338	181.3893
374.847	176.38839
375.356	242.55366
375.865	250.50515
376.373	198.43237
376.882	256.61618
377.39	216.50094
377.898	244.57928
378.407	245.51855
378.915	221.4526
379.423	337.74411
379.93	263.56054
380.438	336.769
380.946	352.76568
381.453	316.70926
381.96	368.80762
382.468	418.91038
382.975	439.98345
383.482	390.80357
383.989	441.02995
384.495	470.97622
385.002	473.88761
385.509	438.92193
386.015	570.99999
386.521	550.06989
387.028	574.1294
387.534	599.10484
388.04	621.2579
388.546	604.14055
389.051	660.21182
389.557	722.39047
390.063	837.56643
390.568	772.49975
391.073	803.4539
391.578	782.5257
392.084	819.43027
392.589	911.53053
393.093	928.6718
393.598	1010.70066
394.103	1182.0043
394.607	1279.07857
395.112	1382.27774
395.616	1447.25977
396.12	1608.23007
396.624	1742.33819
397.128	1912.50164
397.632	2097.42026
398.136	2259.44014
398.639	2488.5627
399.143	2722.74359
399.646	3165.29343
400.15	3457.03486
400.653	3830.71983
401.156	4219.09367
401.659	4918.87804
402.162	6280.16362
402.664	8213.18418
403.167	11862.44785
403.67	23652.19099
404.172	51098.94314
404.674	37291.05854
405.176	4428.40989
405.678	533.47942
406.18	0
406.682	0
407.184	6962.89417
407.686	50953.82939
408.187	35260.33223
408.688	20460.45425
409.19	13893.03399
409.691	11242.48999
410.192	9431.71493
410.693	8175.07834
411.194	7408.64764
411.694	7048.34771
412.195	6457.27009
412.696	5799.16181
413.196	5338.8839
413.696	5259.56591
414.196	5313.0793
414.696	5250.66888
415.196	4995.60377
415.696	4472.82396
416.196	3726.7342
416.695	2828.37919
417.195	2428.5484
417.694	2281.87498
418.194	2110.00216
418.693	1972.31003
419.192	1948.47253
419.691	1950.47682
420.19	1816.4348
420.688	1840.59003
421.187	1714.88067
421.685	1665.29648
422.184	1500.22053
422.682	1352.9387
423.18	1084.80992
423.678	955.63785
424.176	896.5688
424.674	798.36389
425.172	776.44742
425.669	809.60122
426.167	749.39179
426.664	676.2612
427.161	544.05015
427.659	594.23797
428.156	532.95879
428.652	491.08434
429.149	465.99058
429.646	384.74529
430.143	411.87861
430.639	392.82911
431.135	365.81199
431.632	338.69643
432.128	359.78505
432.624	314.73048
433.12	326.67956
433.616	295.58718
434.111	248.55071
434.607	244.54182
435.103	220.4229
435.598	290.54457
436.093	213.46029
436.588	243.50644
437.083	236.49283
437.578	177.37857
438.073	110.25955
438.568	198.45228
439.062	164.32925
439.557	144.31765
440.051	119.25683
440.546	128.27868
441.04	137.30619
441.534	140.33827
442.028	167.37755
442.522	202.45602
443.015	128.26529
443.509	129.30161
444.002	158.36716
444.496	102.20884
444.989	146.34115
445.482	100.23724
445.975	85.18675
446.468	125.25553
446.961	102.2062
447.454	114.24176
447.947	122.28003
448.439	139.3246
448.931	99.21413
449.424	66.15749
449.916	27.06276
450.408	124.2717
450.9	120.27698
451.392	65.15898
451.884	80.17344
452.375	48.11423
452.867	86.18517
453.358	11.02401
453.849	56.11414
454.341	66.14333
454.832	61.12668
455.323	49.11564
455.814	61.13385
456.304	56.12358
456.795	69.14956
457.285	52.10994
457.776	20.04316
458.266	84.19273
458.756	66.15022
459.247	37.08467
459.737	65.15066
460.226	64.13828
460.716	78.1794
461.206	23.05276
461.695	83.20021
462.185	72.16387
462.674	62.13505
463.163	4.00851
463.653	104.20812
464.142	48.11071
464.63	61.14285
465.119	44.09917
465.608	50.1102
466.096	46.09666
466.585	33.07229
467.073	33.07531
467.561	80.18715
468.05	40.08853
468.538	92.2186
469.026	64.14814
469.513	41.08313
470.001	38.08288
470.489	-9.02072
470.976	23.0513
471.463	47.11397
471.951	20.04843
472.438	46.10448
472.925	-21.04746
473.412	6.01414
473.899	54.11972
474.385	53.12523
474.872	12.02704
475.359	60.14092
475.845	9.01806
476.331	2.00416
476.817	-4.00938
477.303	24.05387
477.789	31.07202
478.275	29.0699
478.761	15.03485
479.247	-4.00864
479.732	33.08026
480.218	26.06561
480.703	58.14078
481.188	-18.03737
481.673	29.06447
482.158	16.03335
482.643	32.07869
483.128	-42.09346
483.612	-21.04767
484.097	17.04025
484.581	-2.00444
485.066	-25.05907
485.55	-14.02966
486.034	39.08237
486.518	71.16052
487.002	11.02622
487.486	-8.01908
487.969	34.08159
488.453	32.07857
488.936	-22.04822
489.42	-12.02594
489.903	13.03186
490.386	41.08503
490.869	11.02276
491.352	38.08911
491.835	-26.05172
492.318	-20.04445
492.8	-58.11671
493.283	38.09441
493.765	11.02649
494.247	-34.07695
494.73	45.0957
495.212	23.05356
495.694	-25.05723
496.175	-27.06298
496.657	110.25208
497.139	-91.1496
497.62	-21.0492
498.102	-11.02684
498.583	2.00482
499.064	-5.01104
499.545	-3.00666
500.026	-14.03058
500.507	-6.01341
500.988	-41.09905
501.469	-47.11508
501.949	-65.15673
502.43	-21.04871
502.91	-32.06445
503.39	20.04851
503.87	-5.01152
504.35	-32.07298
504.83	-16.03427
505.31	-18.04292
505.79	-46.10833
506.269	-15.03395
506.749	-55.12343
507.228	-47.10859
507.707	-2.00431
508.187	-19.04392
508.666	-45.1081
509.145	-59.13589
509.623	-23.05274
510.102	-47.11148
510.581	-19.04435
511.059	36.08849
511.538	-50.12688
512.016	-15.0353
512.494	-60.14229
512.972	-40.09435
513.45	-16.0368
513.928	16.03784
514.406	19.04561
514.884	-31.07946
515.361	-10.02368
515.839	-15.03328
516.316	-43.10101
516.793	-58.14436
517.27	-31.07415
517.747	-12.03025
518.224	-60.13612
518.701	16.03473
519.178	8.01975
519.654	-88.20288
520.131	-63.15237
520.607	-65.15916
521.083	-4.00898
521.56	-50.11578
522.036	-3.00645
522.512	-10.02408
522.987	-10.02355
523.463	-9.02103
523.939	-24.05766
524.414	-23.05155
524.89	1.0023
525.365	20.04449
525.84	15.03573
526.315	-24.0563
526.79	-28.06138
527.265	-31.06843
527.74	-42.10056
528.215	9.02075
528.689	-20.04404
529.164	-100.21143
529.638	-23.05821
530.112	-22.05161
530.587	-19.04029
531.061	-28.06676
531.534	-58.13771
532.008	-9.0213
532.482	-72.15989
532.956	-7.01778
533.429	-97.22741
533.903	-48.1034
534.376	-21.04527
534.849	-16.03649
535.322	-30.06955
535.795	-43.10345
536.268	-29.06903
536.741	-20.04701
537.213	22.04959
537.686	-118.28533
538.158	-3.00659
538.631	-54.12841
539.103	-56.12394
539.575	-47.09599
540.047	-58.12542
540.519	-73.17108
540.991	-35.08334
541.463	-8.01905
541.934	-55.12465
542.406	-22.05165
542.877	-54.11992
543.348	-110.25814
543.82	-38.09137
544.291	-86.19574
544.762	-28.06509
545.233	-59.14805
545.703	-14.03048
546.174	-46.10605
546.645	-20.04792
547.115	-61.14592
547.585	-29.06647
548.056	-16.03867
548.526	-62.14499
548.996	-63.14984
549.466	-61.1462
549.935	-23.05451
550.405	-34.07431
550.875	-70.16376
551.344	-39.09315
551.814	-101.22769
552.283	-51.10851
552.752	-68.15665
553.221	-47.10087
553.69	-23.05045
554.159	-36.08875
554.628	-54.11932
555.096	-54.13533
555.565	-83.18343
556.033	-40.09229
556.502	-45.10715
556.97	-52.11312
557.438	-27.06288
557.906	-53.12401
558.374	-69.15657
558.842	-65.15418
559.31	-60.13163
559.777	-66.15905
560.245	-48.10965
560.712	-69.15517
561.18	-125.27568
561.647	-62.13625
562.114	-46.10347
562.581	-56.13699
563.048	-102.23074
563.514	-35.0851
563.981	-72.16235
564.448	-23.05081
564.914	-76.17459
565.381	-81.17991
565.847	-78.18004
566.313	-52.11883
566.779	-74.16727
567.245	-62.14368
567.711	-42.09999
568.176	-38.08642
568.642	-65.16293
569.108	-78.19074
569.573	-123.28566
570.038	-58.1215
570.504	-51.11464
570.969	-90.22376
571.434	-46.10079
571.899	-45.10641
572.363	-71.15999
572.828	-64.14366
573.293	-62.14117
573.757	-45.10286
574.222	-62.13928
574.686	-95.21451
575.15	-98.23384
575.614	-65.14749
576.078	-66.15337
576.542	-48.10867
577.006	-58.13078
577.469	-96.23458
577.933	-131.29278
578.396	-50.11903
578.86	-80.18605
579.323	-65.15376
579.786	-94.20153
580.249	-73.16598
580.712	-64.15371
581.175	-76.18647
581.637	-40.09178
582.1	-109.23727
582.563	-122.25421
583.025	-78.18811
583.487	-58.11504
583.95	-90.19362
584.412	-58.11919
584.874	-84.20205
585.336	-56.13173
585.797	-98.21038
586.259	-131.30352
586.721	-70.16318
587.182	-31.06989
587.643	-57.1275
588.105	-17.03961
588.566	-45.0932
589.027	-27.06473
589.488	-40.0892
589.949	-41.09661
590.41	-20.0387
590.87	-67.14776
591.331	-36.07481
591.791	-66.14845
592.252	-70.15861
592.712	-46.10854
593.172	9.0197
593.632	-38.07911
594.092	39.08378
594.552	0
595.011	18.0405
595.471	10.02169
595.931	24.05161
596.39	32.07451
596.849	34.07629
597.308	60.12402
597.768	50.12313
598.227	53.12324
598.685	62.13401
599.144	76.16996
599.603	116.26092
600.062	91.1802
600.52	97.20684
600.978	206.45992
601.437	110.23787
601.895	218.42613
602.353	158.32409
602.811	224.45822
603.269	239.52664
603.727	250.55399
604.184	250.51952
604.642	233.52804
605.099	304.63906
605.557	288.63526
606.014	392.7452
606.471	412.93682
606.928	469.91875
607.385	448.99142
607.842	505.02116
608.299	485.98694
608.755	526.10138
609.212	555.06451
609.668	560.07127
610.125	590.21055
610.581	564.11959
611.037	662.25029
611.493	639.26018
611.949	649.3243
612.405	724.18084
612.861	749.4132
613.316	804.58055
613.772	804.49308
614.227	749.45673
614.683	832.40541
615.138	854.63174
615.593	772.44493
616.048	771.40435
616.503	825.64587
616.958	809.66615
617.412	807.54812
617.867	792.43285
618.321	781.23962
618.776	840.46511
619.23	811.5588
619.684	777.39529
620.138	773.41441
620.592	810.59012
621.046	803.50935
621.5	744.48579
621.954	772.38594
622.407	764.36312
622.861	706.40002
623.314	750.38847
623.768	723.39074
624.221	675.08194
624.674	644.22099
625.127	654.27924
625.58	615.13839
626.033	642.14796
626.485	608.22844
626.938	642.27055
627.39	606.18967
627.843	573.11127
628.295	598.16786
628.747	552.12327
629.199	625.20308
629.651	537.04629
630.103	515.02191
630.555	493.88006
631.006	521.04828
631.458	488.98061
631.909	516.00315
632.361	492.97908
632.812	479.96541
633.263	474.86517
633.714	404.73961
634.165	422.88161
634.616	411.85616
635.067	453.85175
635.518	436.89511
635.968	453.76735
636.419	454.83579
636.869	390.8126
637.319	402.81786
637.769	442.86647
638.219	406.83879
638.669	468.9803
639.119	419.89765
639.569	496.05127
640.019	451.90229
640.468	463.87655
640.918	446.93711
641.367	475.92303
641.816	504.97028
642.265	548.07865
642.714	503.0106
643.163	472.92397
643.612	495.05029
644.061	493.88052
644.51	527.03407
644.958	513.96411
645.406	543.12374
645.855	552.15846
646.303	523.04023
646.751	588.14015
647.199	534.01354
647.647	606.19247
648.095	559.08201
648.543	551.92133
648.99	575.18052
649.438	610.2105
649.885	607.29395
650.333	543.85139
650.78	599.25808
651.227	543.15032
651.674	596.14963
652.121	504.04871
652.568	572.19311
653.015	505.09019
653.461	580.1766
653.908	541.0756
654.354	482.98641
654.801	517.05121
655.247	547.00773
655.693	534.2209
656.139	551.13116
656.585	483.01364
657.031	509.04056
657.477	495.92707
657.922	543.08109
658.368	439.95307
658.813	405.80838
659.259	477.00675
659.704	454.93711
660.149	437.89574
660.594	484.00389
661.039	432.87209
661.484	467.97842
661.929	480.97432
662.373	444.01116
662.818	443.98587
663.262	394.84355
663.707	392.88847
664.151	451.98828
664.595	389.84238
665.039	351.78538
665.483	448.02522
665.927	366.76531
666.371	354.74481
666.814	356.7622
667.258	426.90693
667.701	370.69036
668.145	349.78123
668.588	356.79279
669.031	382.81326
669.474	364.78673
669.917	372.72476
670.36	349.77865
670.803	365.78771
671.245	353.65292
671.688	402.87034
672.13	346.6911
672.573	395.90817
673.015	356.76582
673.457	367.71621
673.899	348.75537
674.341	303.66485
674.783	408.87842
675.225	368.81408
675.666	371.80718
676.108	371.71782
676.549	365.76947
676.991	348.67993
677.432	310.53974
677.873	346.7142
678.314	333.7162
678.755	357.78925
679.196	333.69184
679.637	324.70987
680.078	382.79204
680.518	317.65155
680.959	363.77903
681.399	292.65675
681.839	373.81325
682.28	343.77254
682.72	350.71239
683.16	361.8154
683.6	361.73127
684.039	327.59999
684.479	353.78432
684.919	331.69719
685.358	309.7119
685.798	323.76989
686.237	338.73367
686.676	406.82825
687.115	320.67832
687.554	385.81377
687.993	345.6656
688.432	394.80633
688.871	349.70696
689.309	416.90795
689.748	402.72963
690.186	407.85009
690.625	396.8416
691.063	385.83514
691.501	469.02184
691.939	364.82
692.377	439.95104
692.815	380.82482
693.253	361.76706
693.69	380.73506
694.128	494.05979
694.565	441.92967
695.003	438.99472
695.44	389.80889
695.877	420.87821
696.314	441.81572
696.751	439.86608
697.188	441.89454
697.625	434.85923
698.061	442.93689
698.498	461.97695
698.934	434.91231
699.371	481.99528
699.807	521.0661
700.243	514.08855
700.679	551.05784
701.115	494.99724
701.551	534.08856
701.987	503.95556
702.422	472.97644
702.858	516.05084
703.294	513.98548
703.729	576.21688
704.164	597.23403
704.599	624.14271
705.035	566.07493
705.47	615.29173
705.904	561.1061
706.339	604.15784
706.774	628.22307
707.209	620.19258
707.643	668.3406
708.078	646.31846
708.512	615.34446
708.946	631.26012
709.38	631.24263
709.814	683.26956
710.248	616.25032
710.682	719.42485
711.116	724.44446
711.549	674.46149
711.983	642.22134
712.416	734.39398
712.85	794.63486
713.283	783.49768
713.716	826.67034
714.149	751.43429
714.582	797.42469
715.015	826.66043
715.448	848.69532
715.881	798.33104
716.313	881.64001
716.746	882.65121
717.178	843.61264
717.61	945.90296
718.043	883.73648
718.475	913.73079
718.907	969.8853
719.339	987.69742
719.77	1059.93512
720.202	1051.0436
720.634	1086.02257
721.065	1042.86145
721.497	1082.01808
721.928	1114.07999
722.359	1118.0639
722.79	1073.93813
723.221	1119.10012
723.652	1191.26949
724.083	1211.92572
724.514	1140.85201
724.945	1210.05642
725.375	1275.10437
725.806	1212.16927
726.236	1312.43167
726.666	1315.15769
727.096	1326.28718
727.526	1383.51636
727.956	1412.15458
728.386	1375.31783
728.816	1395.51666
729.246	1444.44468
729.675	1472.52574
730.105	1496.47915
730.534	1508.33224
730.964	1539.59614
731.393	1596.54702
731.822	1621.79554
732.251	1600.75692
732.68	1605.33438
733.109	1614.63406
733.537	1554.48079
733.966	1626.64211
734.395	1653.36564
734.823	1709.30577
735.251	1678.58908
735.68	1721.74932
736.108	1642.72599
736.536	1694.50095
736.964	1618.36718
737.392	1711.72705
737.82	1775.60893
738.247	1682.51438
738.675	1777.54909
739.102	1740.84163
739.53	1732.90788
739.957	1663.81888
740.384	1762.67634
740.811	1707.8402
741.238	1758.6608
741.665	1757.54787
742.092	1715.51642
742.519	1706.76873
742.945	1746.60516
743.372	1764.78167
743.798	1691.85755
744.225	1687.5167
744.651	1631.67893
745.077	1669.70737
745.503	1645.56038
745.929	1605.47593
746.355	1616.56039
746.781	1606.61511
747.207	1619.48618
747.632	1582.5757
748.058	1613.61572
748.483	1638.31998
748.908	1547.57896
749.334	1552.53485
749.759	1500.32513
750.184	1544.41476
750.609	1546.50547
751.033	1472.24307
751.458	1559.24173
751.883	1501.48953
752.307	1474.36794
752.732	1506.62131
753.156	1428.43038
753.58	1425.26999
754.005	1460.60186
754.429	1316.09807
754.853	1353.38016
755.277	1365.24521
755.7	1323.32112
756.124	1302.35715
756.548	1316.20049
756.971	1210.127
757.394	1304.43825
757.818	1282.43806
758.241	1226.2673
758.664	1265.36107
759.087	1221.96602
759.51	1167.14663
759.933	1194.11075
760.356	1204.28605
760.778	1231.25236
761.201	1094.93357
761.623	1067.89206
762.046	991.71701
762.468	1145.99939
762.89	1076.99934
763.312	1038.89809
763.734	1058.92601
764.156	1060.99487
764.578	961.6429
765	986.84629
765.421	997.02364
765.843	1004.07894
766.264	962.76235
766.686	921.84441
767.107	913.75854
767.528	919.87427
767.949	916.84493
768.37	868.67614
768.791	846.60552
769.212	885.81058
769.632	801.47681
770.053	784.71102
770.473	837.62506
770.894	718.45369
771.314	774.45367
771.734	725.34979
772.154	713.52413
772.575	758.39354
772.994	677.25277
773.414	642.23853
773.834	656.3825
774.254	673.3522
774.673	635.27692
775.093	643.3435
775.512	607.27155
775.931	658.41827
776.351	586.22127
776.77	600.24273
777.189	529.05512
777.607	556.22479
778.026	573.22455
778.445	507.116
778.864	500.10494
779.282	485.99143
779.701	495.08133
780.119	424.93715
780.537	456.9906
780.955	426.94864
781.373	463.99318
781.791	499.95581
782.209	468.92655
782.627	472.10097
783.045	428.84894
783.462	368.83206
783.88	417.96409
784.297	381.85144
784.715	435.00318
785.132	368.78585
785.549	400.89813
785.966	359.80063
786.383	380.8336
786.8	358.73067
787.217	278.58904
787.633	331.74277
788.05	298.60959
788.466	299.62037
788.883	317.73818
789.299	327.69179
789.715	324.70868
790.131	272.60776
790.547	241.53572
790.963	276.6195
791.379	259.59791
791.795	309.62021
792.21	214.45086
792.626	272.57733
793.041	229.51074
793.457	207.46511
793.872	249.5284
794.287	236.52602
794.702	226.50332
795.117	196.44356
795.532	235.54597
795.947	199.43059
796.362	203.43492
796.776	170.34949
797.191	180.40221
797.605	208.45535
798.02	218.48832
798.434	185.3672
798.848	155.34999
799.262	221.5106
799.676	140.3118
800.09	131.29701
800.504	151.33706
800.918	132.27994
801.331	132.3205
801.745	109.2298
802.158	124.28781
802.572	113.25245
802.985	135.29636
803.398	120.26459
803.811	118.28091
804.224	134.30757
804.637	90.19587
805.05	126.26803
805.462	106.24106
805.875	120.29813
806.288	137.30985
806.7	96.22573
807.112	109.23303
807.525	112.25862
807.937	70.16293
808.349	68.15933
808.761	15.03438
809.173	74.16542
809.584	72.16546
809.996	66.15277
810.408	43.10611
810.819	60.13241
811.231	78.19597
811.642	88.20498
812.053	46.10504
812.464	74.16617
812.875	85.20503
813.286	67.1621
813.697	60.12658
814.108	41.09307
814.519	73.14862
814.929	30.07158
815.34	38.08649
815.75	95.22629
816.16	-6.01395
816.571	45.111
816.981	21.04579
817.391	42.09482
817.801	75.17762
818.211	58.12987
818.62	-27.06174
819.03	35.07971
819.44	65.15945
819.849	59.1407
820.259	48.11659
820.668	65.15227
821.077	40.09424
821.486	49.10893
821.895	20.04565
822.304	46.11607
822.713	47.10344
823.122	14.03341
823.531	38.08505
823.939	27.06226
824.348	97.2201
824.756	14.03307
825.164	45.10571
825.573	55.13011
825.981	-1.00236
826.389	-44.10431
826.797	57.13468
827.205	29.06227
827.612	-19.04423
828.02	55.12211
828.428	28.06725
828.835	6.01517
829.243	17.03793
829.65	-14.03334
830.057	32.07407
830.464	71.16398
830.871	41.09145
831.278	10.02259
831.685	-4.00823
832.092	58.13393
832.499	-4.00812
832.905	11.02658
833.312	-1.00212
833.718	9.02112
834.124	23.0493
834.531	3.00714
834.937	-19.04611
835.343	17.03872
835.749	21.04536
836.155	2.00499
836.561	-23.05274
836.966	7.01611
837.372	-2.00482
837.777	-33.078
838.183	-28.05689
838.588	47.11058
838.993	-15.03416
839.399	-27.06256
839.804	18.04203
840.209	-5.01227
840.613	68.14131
841.018	-39.0934
841.423	-6.01449
841.828	-23.05548
842.232	-57.13243
842.637	11.02393
843.041	37.09157
843.445	-57.13578
843.849	-14.03298
844.253	-11.02441
844.657	20.04825
845.061	11.0234
845.465	31.07222
845.869	-12.0261
846.272	-22.05096
846.676	47.10682
847.079	10.02441
847.483	50.11665
847.886	-11.02481
848.289	41.10609
848.692	35.08344
849.095	-46.10381
849.498	-21.0495
849.901	22.04651
850.304	-15.03357
850.707	16.03853
851.109	-18.04239
851.512	35.0817
851.914	28.0684
852.316	-8.01935
852.718	-16.04014
853.121	-1.00232
853.523	-15.03296
853.925	-12.03006
854.326	39.09333
854.728	-7.01718
855.13	2.00497
855.531	-6.01383
855.933	16.03593
856.334	5.01191
856.736	-16.03332
857.137	0
857.538	-33.07942
857.939	-13.03081
858.34	10.02278
858.741	0
859.142	13.0295
859.542	38.09759
859.943	6.01427
860.343	-10.02374
860.744	39.08972
861.144	-39.09061
861.544	-5.01158
861.945	-35.08471
862.345	-43.09817
862.745	-32.07589
863.145	-46.10198
863.544	45.10863
863.944	9.01987
864.344	-44.10269
864.743	37.08627
865.143	-16.03924
865.542	-18.03916
865.941	19.04489
866.34	64.14283
866.74	-20.05156
867.139	28.06347
867.537	-47.11393
867.936	49.11078
868.335	31.07526
868.734	52.12688
869.132	-2.00441
869.531	23.05204
869.929	63.13463
870.327	-46.10499
870.726	21.04912
871.124	-11.02392
871.522	-30.07224
871.92	18.04173
872.318	34.07829
872.715	24.05557
873.113	-14.03244
873.511	7.01655
873.908	30.07361
874.306	-7.01661
874.703	40.09387
875.1	16.03844
875.497	2.00448
875.894	22.05189
876.291	22.05131
876.688	0
877.085	9.02017
877.482	-16.03771
877.878	33.07479
878.275	-20.04823
878.671	-23.04638
879.068	-18.04098
879.464	28.06373
879.86	23.05181
880.256	-2.00459
880.652	-13.03144
881.048	-27.06268
881.444	-34.07538
881.84	-13.03126
882.236	28.06658
882.631	27.06248
883.027	7.01566
883.422	-30.0732
883.817	-14.03399
884.213	25.06092
884.608	15.03517
885.003	-3.00686
885.398	-33.07885
885.793	0
886.188	31.0737
886.582	-33.07912
886.977	19.04211
887.371	9.02152
887.766	-7.01671
888.16	35.08231
888.554	-8.01847
888.949	-82.19476
889.343	26.05865
889.737	12.03114
890.131	4.00957
890.525	-20.0486
890.918	5.01205
891.312	-12.02649
891.706	50.12531
892.099	8.0192
892.492	-3.00602
892.886	0
893.279	-14.03402
893.672	-1.00243
894.065	-33.07837
894.458	21.04973
894.851	-10.02274
895.244	16.03882
895.637	-22.05034
896.029	7.01614
896.422	-22.05066
896.814	-24.05692
897.206	25.05661
897.599	20.04534
897.991	8.0183
898.383	7.01544
898.775	10.02095
899.167	3.00666
899.559	-10.02389
899.951	9.01982
900.342	-54.129
900.734	22.05288
901.125	-5.01238
901.517	25.05811
901.908	44.09714
902.299	4.00929
902.69	-3.00667
903.082	26.05896
903.473	-9.02063
903.863	9.02206
904.254	-1.00216
904.645	-11.0255
905.036	-2.00466
905.426	-32.06656
905.817	-23.05352
906.207	-49.11186
906.597	-3.00663
906.987	-24.05852
907.378	-28.06707
907.768	-9.02288
908.158	36.08253
908.547	-4.00989
908.937	-40.09771
909.327	-23.05259
909.717	30.07095
910.106	2.00453
910.495	38.08973
910.885	-61.14536
911.274	-8.01908
911.663	51.12288
912.052	4.00921
912.441	31.07526
912.83	7.01491
913.219	-30.07415
913.608	-7.01619
913.997	-25.05969
914.385	2.00443
914.774	-42.09671
915.162	-6.01339
915.55	16.03636
915.939	-19.04594
916.327	11.02589
916.715	2.00489
917.103	12.02752
917.491	-1.0023
917.878	-38.08712
918.266	16.03927
918.654	51.12432
919.041	-36.09035
919.429	29.06431
919.816	12.02859
920.203	17.03881
920.591	-33.07716
920.978	26.05951
921.365	-19.04744
921.752	7.01577
922.139	98.19474
922.525	-6.01358
922.912	-16.03673
923.299	16.03775
923.685	-34.08512
924.072	-11.02343
924.458	-22.05183
924.844	26.06044
925.231	-22.04782
925.617	38.09293
926.003	34.08194
926.389	36.08649
926.774	26.06254
927.16	7.01631
927.546	-26.06372
927.931	-3.00708
928.317	-17.03595
928.702	3.00659
929.088	-21.04717
929.473	-1.00242
929.858	1.00233
930.243	11.02502
930.628	-21.04819
931.013	41.0968
931.398	13.02752
931.783	18.04498
932.167	-34.07842
932.552	-29.06804
932.937	9.02067
933.321	-20.04749
933.705	17.04102
934.09	38.08865
934.474	26.05752
934.858	22.0544
935.242	6.01326
935.626	-23.05588
936.009	-52.13318
936.393	14.03408
936.777	22.05386
937.16	-49.12069
937.544	13.02848
937.927	15.03618
938.311	38.08586
938.694	50.12481
939.077	-2.00447
939.46	55.12647
939.843	-11.02077
940.226	-44.1074
940.609	18.03826
940.991	3.00724
941.374	19.04336
941.757	4.00928
942.139	-2.00415
942.522	-26.05699
942.904	23.05198
943.286	-36.08636
943.668	-25.0618
944.05	-22.05135
944.432	11.02572
944.814	-2.0046
945.196	-2.00468
945.578	-3.00682
945.959	23.05045
946.341	-11.02492
946.722	17.03746
947.104	-32.07165
947.485	42.09039
947.866	-4.00966
948.247	-9.02159
948.628	2.00455
949.009	38.0922
949.39	-38.08806
949.771	-5.01079
950.152	11.0256
950.532	35.08375
950.913	-23.05174
951.293	-7.01832
951.674	-17.03848
952.054	2.00471
952.434	-71.16724
952.814	-40.08831
953.194	23.05724
953.574	-28.0643
953.954	7.0156
954.334	-4.0095
954.714	-14.03242
955.093	-58.13393
955.473	-21.04947
955.853	-18.04469
956.232	-2.00526
956.611	-48.10681
956.99	21.05006
957.37	-11.02664
957.749	-23.05117
958.128	30.07211
958.506	15.03731
958.885	13.03082
959.264	-18.0419
959.643	54.11367
960.021	3.00704
960.4	29.062
960.778	-15.03419
961.156	-26.06199
961.535	-52.11163
961.913	-37.07972
962.291	0
962.669	-4.00965
963.047	-30.072
963.424	16.03884
963.802	-50.11578
964.18	44.10358
964.557	24.05039
964.935	13.02866
965.312	6.01497
965.69	-4.00941
966.067	3.00681
966.444	-50.1172
966.821	0
967.198	-24.05405
967.575	-8.01833
967.952	29.06369
968.329	-12.02742
968.705	-10.01948
969.082	6.01472
969.458	-21.04837
969.835	9.02054
970.211	-18.0441
970.587	3.00705
970.963	7.01697
971.339	5.01255
971.715	-44.10281
972.091	-7.01622
972.467	-41.09548
972.843	-42.09941
973.219	11.0243
973.594	-9.0225
973.97	39.08497
974.345	15.03359
974.721	-21.04765
975.096	-16.03614
975.471	47.10396
975.846	11.02501
976.221	-1.00241
976.596	-40.091
976.971	20.04642
977.346	-27.05815
977.72	-9.02172
978.095	2.00493
978.469	40.08912
978.844	-7.0166
979.218	23.05219
979.593	6.01351
979.967	39.08943
980.341	-1.00213
980.715	-29.06908
981.089	-31.07291
981.463	16.03469
981.837	-11.02565
982.21	65.13788
982.584	-53.12095
982.957	4.00953
983.331	17.03754
983.704	29.0674
984.078	-22.05102
984.451	-40.09226
984.824	6.0139
985.197	-2.00455
985.57	-54.12791
985.943	-55.12637
986.316	33.07573
986.688	-44.10002
987.061	-14.03043
987.434	55.13532
987.806	-15.03408
988.179	1.00219
988.551	6.01426
988.923	-39.0909
989.295	-3.00706
989.667	18.04127
990.039	12.02811
990.411	31.06696
990.783	-25.05368
991.155	-3.00691
991.527	9.02031
991.898	-16.0375
992.27	-50.11826
992.641	-3.00707
993.012	30.06623
993.384	24.05352
993.755	-9.02166
994.126	-22.05009
994.497	-46.10732
994.868	23.0493
995.239	17.0389
995.61	-28.06679
995.98	4.00925
996.351	-13.03078
996.722	20.04367
997.092	18.04039
997.462	18.03984
997.833	-5.01105
998.203	-6.01359
998.573	3.00712
998.943	-34.07421
999.313	18.04067
999.683	-81.18365
1000.053	-10.02166
1000.423	48.10872
1000.792	25.06144
1001.162	27.06281
1001.531	36.08372
1001.901	-15.03521
1002.27	17.03546
1002.639	5.01216
1003.009	21.04744
1003.378	10.02427
1003.747	-35.07768
1004.116	-2.00453
1004.485	37.08304
1004.853	30.07161
1005.222	24.05771
1005.591	-11.0243
1005.959	23.04889
1006.328	-63.13334
1006.696	2.00458
1007.064	43.10164
1007.433	5.01187
1007.801	-44.10168
1008.169	-38.09067
1008.537	41.08393
1008.905	5.01096
1009.273	-1.00233
1009.64	-47.10717
1010.008	-23.05151
1010.375	32.07236
1010.743	10.02093
1011.11	4.00891
1011.478	-21.0491
1011.845	-1.00216
1012.212	-52.10965
1012.579	-7.01628
1012.946	-39.08616
1013.313	-10.02226
1013.68	-17.03535
1014.047	7.01592
1014.414	-26.05858
1014.78	33.07785
1015.147	-6.01342
1015.513	38.08698
1015.88	8.01904
1016.246	22.05112
1016.612	21.04408
1016.978	-46.10669
1017.344	27.06345
1017.71	-21.04721
1018.076	36.07858
1018.442	-4.00972
1018.808	-8.01896
1019.174	-15.03544
1019.539	-2.00415
1019.905	1.00223
1020.27	-3.00707
1020.636	26.05803
1021.001	-40.0899
1021.366	54.1232
1021.731	29.07075
1022.096	4.00966
1022.461	-11.02413
1022.826	19.04229
1023.191	-2.00501
1023.556	-33.07171
1023.92	-14.03208
1024.285	12.02735
1024.649	-5.01156
1025.014	14.03255
1025.378	43.1027
1025.742	11.02569
1026.107	-69.1454
1026.471	-19.04058
1026.835	-46.10723
1027.199	-16.03661
1027.562	22.04794
1027.926	-6.01376
1028.29	25.05985
1028.654	-39.08341
1029.017	4.0093
1029.381	19.04273
1029.744	53.12789
1030.107	-21.04575
1030.471	-26.05846
1030.834	-77.16262
1031.197	-8.0178
1031.56	5.01118
1031.923	6.01469
1032.286	31.06708
1032.648	35.07729
1033.011	4.0086
1033.374	-47.10261
1033.736	-38.09575
1034.099	9.02075
1034.461	-14.03394
1034.823	-43.1014
1035.185	-41.09669
1035.548	-11.02517
1035.91	58.13008
1036.272	5.01061
1036.634	31.06983
1036.995	30.06637
1037.357	14.03208
1037.719	-10.02288
1038.08	-2.00436
1038.442	19.04313
1038.803	-40.09012
1039.165	2.00479
1039.526	31.07006
1039.887	20.04511
1040.248	-6.01431
1040.609	36.08303
1040.97	-11.02532
1041.331	-35.08279
1041.692	3.00662
1042.053	-28.05902
1042.413	-26.05613
1042.774	-18.04105
1043.134	-16.03531
1043.495	-37.08776
1043.855	6.01368
1044.215	-4.00934
1044.576	-25.05696
1044.936	50.10636
1045.296	6.01402
1045.656	40.09159
1046.016	-36.08094
1046.375	11.02529
1046.735	5.01072
1047.095	-6.01319
1047.454	50.09611
1047.814	-17.03817
1048.173	-65.14437
1048.533	6.0129
1048.892	-18.04117
1049.251	13.03074
1049.61	-39.09
1049.969	21.04659
1050.328	-7.01382
1050.687	-30.06889
1051.046	34.0781
1051.405	-10.02316
1051.763	36.07721
1052.122	20.04752
1052.48	-24.05527
1052.839	15.03303
1053.197	33.07238
1053.555	-24.0491
1053.914	31.07051
1054.272	-2.00452
1054.63	-65.15054
1054.988	-40.0896
1055.345	-65.12932
1055.703	-23.0516
1056.061	-71.17578
1056.419	-15.03721
1056.776	-28.06378
1057.134	-3.00647
1057.491	9.02117
1057.848	-17.03975
1058.206	22.04808
1058.563	56.1145
1058.92	-11.02339
1059.277	-56.1289
1059.634	-25.05396
1059.991	37.08293
1060.348	24.05083
1060.704	-38.08593
1061.061	-31.06587
1061.418	-7.01612
1061.774	58.13569
1062.131	52.13304
1062.487	-50.10951
1062.843	-26.06137
1063.199	19.04475
1063.555	18.03921
1063.911	-1.00238
1064.267	56.10251
1064.623	20.04613
1064.979	-36.07801
1065.335	-56.12441
1065.691	61.13695
1066.046	-1.00201
1066.402	-14.02969
1066.757	48.1137
1067.112	-2.00456
1067.468	-9.02036
1067.823	35.07871
1068.178	23.0524
1068.533	-20.0453
1068.888	12.02646
1069.243	-29.06826
1069.598	-58.13163
1069.952	-23.04953
1070.307	23.05451
1070.662	-48.10841
1071.016	13.02736
1071.371	-10.02112
1071.725	-37.08109
1072.079	3.00675
1072.434	-32.07345
1072.788	-5.01127
1073.142	90.20683
1073.496	-57.12839
1073.85	-38.0827
1074.203	-25.05698
1074.557	27.0687
1074.911	7.01541
1075.265	-56.12125
1075.618	40.09152
1075.971	7.01548
1076.325	-33.07999
1076.678	-19.04073
1077.031	36.07501
1077.385	28.05728
1077.738	10.02104
1078.091	20.04299
1078.444	-48.1034
1078.796	3.00699
1079.149	-56.1308
1079.502	-17.03789
1079.855	-8.01759
1080.207	19.04374
1080.56	-19.04671
1080.912	-36.08151
1081.264	0
1081.617	14.03212
1081.969	17.04132
1082.321	23.05266
1082.673	-18.03907
1083.025	-27.05972
1083.377	-305.63508
1083.728	-3.00639
1084.08	1.00237
1084.432	-36.08004
1084.783	64.13988
1085.135	47.11213
1085.486	9.01938
1085.838	-24.05597
1086.189	16.03637
1086.54	31.06891
1086.891	43.10372
1087.242	-36.08227
1087.593	-9.02041
1087.944	3.00629
1088.295	-11.023
1088.646	-7.01601
1088.996	3.00677
1089.347	-18.0414
1089.698	4.00896
1090.048	-19.04658
1090.398	19.04124
1090.749	0
1091.099	-3.00723
1091.449	-17.03975
1091.799	-6.01416
1092.149	24.05634
1092.499	-16.03701
1092.849	-41.09965
1093.199	2.0047
1093.548	-16.0365
1093.898	-18.04282
1094.248	5.01216
1094.597	-4.00986
1094.947	5.01268
1095.296	-10.02318
1095.645	-2.00491
1095.994	8.01812
1096.343	48.11462
1096.692	-5.01268
1097.041	-10.02618
1097.39	9.02119
1097.739	31.0765
1098.088	-1.00252
1098.437	-33.08358
1098.785	-17.04362
1099.134	-42.10541
1099.482	-35.09187
1099.83	-1.00249
1100.179	7.01765
1100.527	10.02507
1100.875	-24.06073
1101.223	-9.02304
1101.571	-15.04011
1101.919	-36.09116
1102.267	3.00823
1102.615	3.00964
1102.962	9.02886
1103.31	10.03209
1103.658	4.01282
