Data from N3 R5 sample 11_Subt2__3__13-34-43-115.txt Node

Date: Thu Sep 18 13:34:43 PDT 2025
User: uwsun
Spectrometer: HDX01956
Trigger mode: 0
Integration Time (sec): 5.000000E-1
Scans to average: 1
Nonlinearity correction enabled: true
Boxcar width: 0
Storing dark spectrum: false
XAxis mode: Wavelengths
Number of Pixels in Spectrum: 2068
>>>>>Begin Spectral Data<<<<<
194.03	3.00871
194.578	9.02924
195.127	10.03206
195.676	1.00321
196.225	11.02902
196.773	25.06958
197.321	10.02789
197.87	-14.03638
198.418	93.23955
198.966	35.09265
199.513	65.16562
200.061	-14.03591
200.609	25.06611
201.156	-13.02837
201.704	0
202.251	28.07446
202.798	13.03411
203.345	45.11133
203.892	26.06565
204.438	19.04561
204.985	46.10972
205.532	80.21407
206.078	25.06167
206.624	41.10173
207.17	33.07658
207.716	-13.03162
208.262	57.11139
208.808	26.06504
209.354	-34.08398
209.899	43.10786
210.445	31.0781
210.99	5.0122
211.535	32.07516
212.08	22.05112
212.625	2.00503
213.17	-4.01017
213.715	23.05206
214.259	23.05403
214.804	-1.00247
215.348	9.02065
215.892	5.01212
216.436	42.09756
216.98	1.0022
217.524	5.01188
218.068	26.06544
218.612	37.09204
219.155	21.04939
219.698	40.09394
220.242	16.03974
220.785	11.0258
221.328	37.09204
221.871	41.10314
222.414	-17.04192
222.956	17.04121
223.499	25.05599
224.041	32.07289
224.583	81.17032
225.126	79.17452
225.668	29.07038
226.21	37.09251
226.751	-32.06958
227.293	2.00452
227.835	-6.01461
228.376	48.10836
228.918	28.0702
229.459	53.13261
230	34.08032
230.541	-18.04128
231.082	32.0772
231.622	11.02527
232.163	11.02689
232.704	-10.02477
233.244	55.13497
233.784	-14.03402
234.324	-11.0246
234.864	-5.01127
235.404	0
235.944	-28.06592
236.484	11.02702
237.023	26.06135
237.563	11.0253
238.102	15.03525
238.641	34.08607
239.18	8.01882
239.719	46.11541
240.258	-10.02232
240.797	86.2034
241.335	-14.0338
241.874	76.14447
242.412	17.04048
242.95	50.11954
243.488	48.10841
244.026	16.03687
244.564	44.08919
245.102	34.07579
245.64	69.16316
246.177	13.02878
246.715	18.04242
247.252	-1.00226
247.789	26.04555
248.326	-18.0429
248.863	30.06479
249.4	73.16511
249.936	32.0649
250.473	47.10881
251.009	64.14614
251.546	16.03525
252.082	106.22873
252.618	36.08021
253.154	23.05495
253.69	29.06455
254.226	21.04964
254.761	-13.02877
255.297	38.08273
255.832	0
256.367	48.1111
256.903	9.01952
257.438	23.05299
257.972	-20.04417
258.507	53.12168
259.042	-19.04036
259.576	34.07289
260.111	-4.00918
260.645	65.1389
261.179	-40.09325
261.713	-17.03757
262.247	49.11295
262.781	71.14745
263.315	27.06579
263.849	3.00749
264.382	2.00455
264.915	21.04931
265.449	-4.00981
265.982	-3.00672
266.515	18.04372
267.048	41.08636
267.58	-7.01498
268.113	48.10335
268.646	78.19138
269.178	9.02006
269.71	35.07515
270.243	29.06556
270.775	36.09103
271.307	-18.04269
271.838	35.08161
272.37	43.10529
272.902	47.10639
273.433	28.06024
273.965	75.18207
274.496	-34.08392
275.027	30.0735
275.558	17.04098
276.089	56.13928
276.62	1.00253
277.15	-39.09642
277.681	8.01694
278.211	21.05071
278.741	63.13842
279.272	54.12196
279.802	64.15825
280.332	61.14229
280.861	34.08116
281.391	-6.01354
281.921	-29.06908
282.45	77.19196
282.98	44.11422
283.509	31.06906
284.038	-37.08327
284.567	6.01368
285.096	22.05302
285.625	21.04815
286.153	7.01632
286.682	33.07427
287.21	46.10951
287.739	4.00936
288.267	51.12293
288.795	72.18633
289.323	21.04962
289.851	24.05557
290.378	18.04029
290.906	29.0704
291.433	43.1065
291.961	-26.05872
292.488	17.04221
293.015	26.06152
293.542	9.02267
294.069	34.08302
294.596	15.03695
295.122	62.14641
295.649	43.09491
296.175	36.08534
296.702	-9.02159
297.228	-15.0359
297.754	20.04458
298.28	17.03832
298.806	70.16729
299.332	25.05504
299.857	19.04254
300.383	8.02001
300.908	52.12645
301.433	59.14275
301.958	12.02711
302.483	62.15544
303.008	37.09006
303.533	-21.05389
304.058	18.04208
304.582	-14.03329
305.107	54.14086
305.631	35.07845
306.155	31.07265
306.679	-10.02354
307.203	64.14731
307.727	76.17912
308.251	88.21343
308.775	38.08953
309.298	44.10575
309.822	31.07779
310.345	24.0567
310.868	24.05716
311.391	34.08302
311.914	32.08008
312.437	20.045
312.96	97.22581
313.482	43.10176
314.005	58.14441
314.527	31.0814
315.049	25.06255
315.571	92.20659
316.093	36.08941
316.615	48.11602
317.137	-12.026
317.659	14.03353
318.18	54.12954
318.702	76.17507
319.223	58.11789
319.744	59.13197
320.265	47.11389
320.786	43.10615
321.307	52.12928
321.828	68.15383
322.348	38.0897
322.869	-4.00933
323.389	-38.07231
323.909	72.16381
324.43	40.09512
324.95	61.13943
325.47	71.17398
325.989	82.19506
326.509	40.08838
327.029	76.16982
327.548	70.15713
328.067	38.09137
328.587	55.13662
329.106	74.16604
329.625	48.12315
330.144	30.06847
330.662	59.1361
331.181	109.25174
331.7	55.12784
332.218	122.26212
332.736	38.08799
333.255	77.17748
333.773	95.22264
334.291	41.10076
334.808	81.17722
335.326	84.18809
335.844	90.20964
336.361	69.17327
336.879	120.27467
337.396	23.05489
337.913	52.1184
338.43	106.23774
338.947	61.14469
339.464	83.17614
339.981	103.24242
340.497	99.2416
341.014	45.10834
341.53	111.24962
342.046	92.22405
342.562	113.27689
343.078	88.20409
343.594	123.29062
344.11	119.27735
344.626	119.29656
345.141	151.33943
345.657	136.29799
346.172	97.22946
346.687	95.21653
347.202	127.28009
347.717	111.26156
348.232	131.3223
348.747	109.24693
349.261	178.38639
349.776	86.19866
350.29	125.30527
350.805	102.24627
351.319	126.28909
351.833	105.23719
352.347	59.13567
352.861	103.23722
353.374	118.26443
353.888	123.2895
354.401	133.29909
354.915	161.35492
355.428	156.38034
355.941	133.30522
356.454	152.33234
356.967	142.32972
357.48	159.35448
357.993	141.33895
358.505	148.35814
359.018	106.25225
359.53	132.31025
360.042	87.18785
360.554	140.32957
361.066	136.32277
361.578	158.33888
362.09	156.36265
362.602	145.31254
363.113	132.29471
363.625	186.40977
364.136	139.29832
364.647	107.24575
365.158	168.38205
365.669	174.41167
366.18	60.137
366.691	203.4321
367.201	152.3514
367.712	134.29373
368.222	241.53616
368.733	159.33992
369.243	146.31098
369.753	180.39971
370.263	130.30018
370.773	212.50526
371.282	232.5263
371.792	176.38888
372.301	193.45194
372.811	176.44344
373.32	187.38279
373.829	200.45905
374.338	217.46311
374.847	199.43703
375.356	235.53841
375.865	240.48605
376.373	247.53376
376.882	284.67994
377.39	243.56053
377.898	216.51558
378.407	216.46008
378.915	238.48554
379.423	272.60876
379.93	270.57459
380.438	298.68724
380.946	330.72119
381.453	389.85998
381.96	333.7362
382.468	414.90244
382.975	443.99159
383.482	420.85954
383.989	405.95454
384.495	476.98736
385.002	462.86932
385.509	508.05095
386.015	563.98952
386.521	547.0648
387.028	576.13281
387.534	619.1361
388.04	581.18749
388.546	575.09338
389.051	717.29788
389.557	717.38248
390.063	830.55598
390.568	768.49338
391.073	845.5138
391.578	807.56524
392.084	847.46843
392.589	919.54066
393.093	1025.80142
393.598	1078.7822
394.103	1161.9808
394.607	1213.00697
395.112	1408.30433
395.616	1520.32512
396.12	1660.26541
396.624	1704.31456
397.128	1872.48056
397.632	2129.43001
398.136	2359.45704
398.639	2506.56417
399.143	2679.74312
399.646	3144.29952
400.15	3561.98935
400.653	3958.65207
401.156	4265.06754
401.659	5014.82992
402.162	6316.16854
402.664	8303.53963
403.167	12055.86422
403.67	24131.4589
404.172	51069.5648
404.674	37291.05854
405.176	4428.40989
405.678	533.47942
406.18	0
406.682	0
407.184	6962.89417
407.686	50953.82939
408.187	35831.46979
408.688	21182.86993
409.19	14663.48717
409.691	11685.45936
410.192	9695.74346
410.693	8507.89804
411.194	7591.89675
411.694	7154.43682
412.195	6447.26806
412.696	5883.15165
413.196	5565.83706
413.696	5450.49356
414.196	5394.05544
414.696	5277.65748
415.196	5010.59672
415.696	4493.81233
416.196	3713.74073
416.695	2933.36159
417.195	2421.54754
417.694	2376.87255
418.194	2166.00957
418.693	2104.3535
419.192	1991.49187
419.691	1991.49529
420.19	1862.46054
420.688	1877.61266
421.187	1787.90852
421.685	1673.30181
422.184	1553.26331
422.682	1276.872
423.18	1108.83806
423.678	987.67847
424.176	874.539
424.674	891.48544
425.172	839.54083
425.669	815.61085
426.167	788.45025
426.664	652.22355
427.161	614.16571
427.659	563.18132
428.156	615.08345
428.652	519.13959
429.149	471.00015
429.646	420.80816
430.143	447.94811
430.639	409.86184
431.135	342.76446
431.632	324.66969
432.128	412.89084
432.624	300.69984
433.12	308.64461
433.616	304.60383
434.111	275.60723
434.607	247.54814
435.103	262.49854
435.598	230.43829
436.093	250.53596
436.588	222.46483
437.083	232.48491
437.578	203.43173
438.073	153.358
438.568	233.52846
439.062	162.32538
439.557	174.38141
440.051	152.32573
440.546	146.31666
441.04	117.26257
441.534	169.4061
442.028	176.39716
442.522	134.30671
443.015	143.29538
443.509	156.3628
444.002	136.31741
444.496	82.16866
444.989	124.291
445.482	128.30203
445.975	85.18675
446.468	150.3049
446.961	74.15055
447.454	66.14144
447.947	151.34458
448.439	138.32233
448.931	111.23946
449.424	45.10781
449.916	82.18852
450.408	146.31841
450.9	57.13322
451.392	78.19031
451.884	55.11988
452.375	38.0906
452.867	91.19573
453.358	79.16992
453.849	65.13221
454.341	101.2177
454.832	97.19982
455.323	82.19228
455.814	47.10344
456.304	84.18429
456.795	-9.01983
457.285	41.08689
457.776	34.07314
458.266	67.15425
458.756	13.02991
459.247	34.07785
459.737	81.18715
460.226	88.18915
460.716	68.15671
461.206	40.09145
461.695	95.22863
462.185	59.13464
462.674	79.17145
463.163	31.06559
463.653	52.10531
464.142	42.09698
464.63	63.14747
465.119	54.12146
465.608	74.16228
466.096	-11.0234
466.585	7.01542
467.073	-20.04613
467.561	92.21472
468.05	29.06433
468.538	67.15996
469.026	37.0861
469.513	37.07509
470.001	17.03724
470.489	50.11375
470.976	27.06017
471.463	55.13317
471.951	47.11324
472.438	17.03884
472.925	-29.06564
473.412	10.02355
473.899	67.14814
474.385	75.17645
474.872	24.05394
475.359	38.08963
475.845	3.00603
476.331	37.07643
476.817	44.10217
477.303	78.17314
477.789	42.09737
478.275	47.1129
478.761	5.01164
479.247	4.00863
479.732	83.19998
480.218	27.06812
480.703	50.12154
481.188	4.00826
481.673	9.02009
482.158	1.00209
482.643	13.03208
483.128	-3.00662
483.612	7.0158
484.097	8.01897
484.581	-28.06249
485.066	50.11642
485.55	-20.04243
486.034	59.12406
486.518	14.03202
487.002	6.01432
487.486	25.05925
487.969	29.06966
488.453	32.07857
488.936	-7.0153
489.42	33.07064
489.903	11.02696
490.386	21.04375
490.869	-10.02079
491.352	-1.00236
491.835	-16.03175
492.318	-21.04668
492.8	-43.08623
493.283	62.15336
493.765	14.0337
494.247	-21.0474
494.73	7.01501
495.212	5.01169
495.694	-36.0826
496.175	-28.06532
496.657	64.14802
497.139	-72.11774
497.62	-47.11066
498.102	17.04127
498.583	-38.09223
499.064	33.07226
499.545	8.01771
500.026	-2.00436
500.507	-56.12648
500.988	-2.0048
501.469	-46.11261
501.949	-57.13723
502.43	-37.0861
502.91	-5.01001
503.39	-20.04887
503.87	-28.06481
504.35	-8.01816
504.83	-13.02783
505.31	-1.00238
505.79	-30.07043
506.269	39.08731
506.749	-44.09852
507.228	-20.04596
507.707	-38.08249
508.187	11.02527
508.666	-81.1959
509.145	-42.0964
509.623	-31.0712
510.102	-8.01883
510.581	-14.03265
511.059	39.09581
511.538	17.04263
512.016	8.01874
512.494	-60.14229
512.972	5.01169
513.45	-42.0971
513.928	14.03312
514.406	32.07662
514.884	6.01528
515.361	24.05645
515.839	-17.03773
516.316	-19.04442
516.793	-43.10673
517.27	5.01188
517.747	5.01256
518.224	0
518.701	11.0239
519.178	1.00247
519.654	-43.09824
520.131	-26.06244
520.607	-16.03882
521.083	1.00224
521.56	-4.00918
522.036	19.04064
522.512	30.07169
522.987	23.05382
523.463	-9.02103
523.939	6.01433
524.414	14.03114
524.89	-32.07395
525.365	10.02229
525.84	43.10188
526.315	-67.15849
526.79	-18.03937
527.265	-52.11528
527.74	-22.05248
528.215	-5.01156
528.689	18.03932
529.164	-75.1577
529.638	7.01762
530.112	-1.00234
530.587	-6.01269
531.061	-12.02852
531.534	-25.05898
532.008	-22.05219
532.482	-32.07047
532.956	-12.03051
533.429	-91.2131
533.903	-39.08385
534.376	-32.06914
534.849	1.00227
535.322	2.00461
535.795	-22.05272
536.268	-21.04991
536.741	12.02803
537.213	1.00226
537.686	-45.10731
538.158	-68.15132
538.631	-73.17422
539.103	-62.1374
539.575	-13.02635
540.047	-12.02569
540.519	-49.1143
540.991	-53.12664
541.463	3.00713
541.934	-19.04275
542.406	-57.13473
542.877	-10.022
543.348	-65.1512
543.82	-58.13998
544.291	-39.08792
544.762	-30.06977
545.233	3.00744
545.703	-24.05236
546.174	-35.08051
546.645	-31.07444
547.115	-49.11694
547.585	-30.06878
548.056	-44.10692
548.526	-41.09548
548.996	-32.07565
549.466	-66.15833
549.935	-2.00472
550.405	-17.03702
550.875	-41.09537
551.344	15.03546
551.814	-53.11831
552.283	-33.06994
552.752	-70.16132
553.221	-53.1139
553.69	-30.0659
554.159	-13.03191
554.628	-41.09035
555.096	-65.16322
555.565	-29.06337
556.033	14.03195
556.502	-65.15537
556.97	-20.04321
557.438	-16.03718
557.906	-23.0535
558.374	-29.06527
558.842	-28.06594
559.31	-16.03478
559.777	-36.08626
560.245	-14.03176
560.712	-68.15289
561.18	-28.0605
561.647	-43.09412
562.114	3.00668
562.581	15.03621
563.048	-1.00222
563.514	17.04093
563.981	45.09904
564.448	50.10877
564.914	46.10309
565.381	42.0909
565.847	83.18543
566.313	30.06742
566.779	122.26472
567.245	95.21329
567.711	127.2925
568.176	148.32387
568.642	109.26461
569.108	165.38517
569.573	100.22197
570.038	211.41568
570.504	201.42841
570.969	200.4708
571.434	235.48432
571.899	281.62229
572.363	286.59724
572.828	308.63833
573.293	312.65645
573.757	300.63787
574.222	369.75534
574.686	292.60707
575.15	322.70609
575.614	357.74037
576.078	406.85496
576.542	431.88025
577.006	451.91065
577.469	482.04778
577.933	383.76483
578.396	494.05022
578.86	398.83774
579.323	444.94606
579.786	485.90969
580.249	462.93607
580.712	446.9664
581.175	447.98941
581.637	493.00779
582.1	417.80606
582.563	408.74995
583.025	449.97394
583.487	382.67992
583.95	389.75049
584.412	404.74372
584.874	362.79646
585.336	378.81349
585.797	369.71224
586.259	302.63933
586.721	300.64814
587.182	364.75405
587.643	336.69044
588.105	323.70186
588.566	259.49991
589.027	332.74119
589.488	274.57117
589.949	242.53872
590.41	319.56733
590.87	283.57826
591.331	279.53904
591.791	171.36589
592.252	199.42617
592.712	233.51987
593.172	186.39187
593.632	204.40179
594.092	225.46392
594.552	181.3601
595.011	196.42492
595.471	160.33591
595.931	149.31178
596.39	189.42641
596.849	141.3094
597.308	158.3194
597.768	135.32724
598.227	158.35975
598.685	100.21439
599.144	127.28103
599.603	129.28938
600.062	91.1802
600.52	127.26904
600.978	174.39105
601.437	154.32987
601.895	175.34557
602.353	159.32607
602.811	136.28376
603.269	98.22233
603.727	102.233
604.184	135.28774
604.642	110.25552
605.099	151.32813
605.557	158.358
606.014	160.32137
606.471	170.40548
606.928	203.4227
607.385	175.40931
607.842	247.52988
608.299	232.49931
608.755	185.41722
609.212	226.4686
609.668	210.4364
610.125	203.4535
610.581	204.43962
611.037	265.54983
611.493	235.50805
611.949	226.50603
612.405	271.49873
612.861	248.52593
613.316	261.57921
613.772	254.53678
614.227	273.59171
614.683	324.62343
615.138	300.65064
615.593	235.49869
616.048	266.5471
616.503	274.61703
616.958	303.69557
617.412	290.62627
617.867	266.54636
618.321	284.5157
618.776	240.48539
619.23	327.70239
619.684	283.57327
620.138	270.55733
620.592	238.5307
621.046	242.51814
621.5	239.5337
621.954	256.52107
622.407	246.49821
622.861	198.43968
623.314	257.5349
623.768	207.44809
624.221	218.39544
624.674	153.32525
625.127	219.47305
625.58	165.34021
626.033	152.30657
626.485	196.43398
626.938	188.41209
627.39	147.32025
627.843	123.26455
628.295	175.37656
628.747	174.38511
629.199	174.37175
629.651	126.2699
630.103	172.36923
630.555	138.26898
631.006	132.28983
631.458	106.23177
631.909	127.27022
632.361	59.12925
632.812	116.25331
633.263	126.25027
633.714	89.17591
634.165	56.12648
634.616	66.14803
635.067	94.19238
635.518	47.10496
635.968	127.23418
636.419	79.15915
636.869	76.1694
637.319	93.20253
637.769	93.19736
638.219	94.20779
638.669	105.23758
639.119	91.20875
639.569	121.2779
640.019	119.25639
640.468	65.13505
640.918	110.24823
641.367	90.19095
641.816	113.23802
642.265	117.25403
642.714	99.21779
643.163	59.12679
643.612	116.2669
644.061	79.15622
644.51	85.18447
644.958	131.26938
645.406	112.2545
645.855	125.28743
646.303	119.25936
646.751	112.24219
647.199	96.20199
647.647	148.32305
648.095	93.20037
648.543	102.19163
648.99	156.35103
649.438	109.2419
649.885	158.37006
650.333	138.24191
650.78	180.41348
651.227	139.3209
651.674	125.26874
652.121	78.17796
652.568	105.24202
653.015	75.17707
653.461	138.30862
653.908	110.24102
654.354	99.22017
654.801	128.28377
655.247	131.26695
655.693	90.22441
656.139	89.20203
656.585	119.27024
657.031	120.26737
657.477	119.2436
657.922	116.25427
658.368	63.1477
658.813	47.10161
659.259	121.27579
659.704	63.14144
660.149	91.20111
660.594	100.22557
661.039	94.20449
661.484	83.18864
661.929	107.23568
662.373	100.24399
662.818	100.23834
663.262	54.1241
663.707	66.15947
664.151	123.28814
664.595	98.22539
665.039	49.11645
665.483	121.29561
665.927	104.23008
666.371	90.20036
666.814	97.2193
667.258	63.14469
667.701	73.14625
668.145	60.14229
668.588	117.27344
669.031	82.18595
669.474	23.05333
669.917	83.17283
670.36	44.10435
670.803	93.2124
671.245	89.1755
671.688	93.21462
672.13	-6.01296
672.573	136.32885
673.015	78.17782
673.457	93.19331
673.899	70.16093
674.341	45.1041
674.783	41.09522
675.225	103.24044
675.666	57.13228
676.108	83.17167
676.549	93.20777
676.991	54.11287
677.432	69.12781
677.873	72.15776
678.314	-5.01153
678.755	81.18938
679.196	52.1148
679.637	67.15474
680.078	44.09812
680.518	31.06782
680.959	38.08726
681.399	-14.03346
681.839	15.03518
682.28	92.21784
682.72	6.01317
683.16	62.14856
683.6	105.22516
684.039	15.02969
684.479	37.08759
684.919	68.15151
685.358	56.13552
685.798	42.10549
686.237	21.04866
686.676	64.1407
687.115	74.16529
687.554	106.23774
687.993	39.08078
688.432	86.18828
688.871	41.08891
689.309	143.33014
689.748	78.15326
690.186	0
690.625	131.29447
691.063	95.2188
691.501	58.1376
691.939	26.06261
692.377	45.10567
692.815	29.06764
693.253	4.00916
693.69	-3.00634
694.128	55.12935
694.565	53.12124
695.003	51.12488
695.44	17.03828
695.877	45.1019
696.314	77.15541
696.751	46.09913
697.188	34.07538
697.625	15.03261
698.061	42.09679
698.498	62.14282
698.934	11.02527
699.371	23.05246
699.807	85.19138
700.243	72.16745
700.679	85.1818
701.115	61.13538
701.551	26.0592
701.987	35.07408
702.422	2.00457
702.858	17.03861
703.294	64.13626
703.729	44.1039
704.164	52.12074
704.599	-19.0405
705.035	67.14293
705.47	68.1602
705.904	19.04229
706.339	33.07208
706.774	15.03351
707.209	-36.08028
707.643	25.05767
708.078	20.04666
708.512	57.13941
708.946	15.03427
709.38	-18.0409
709.814	20.04336
710.248	-25.05822
710.682	43.09876
711.116	27.06263
711.549	-33.08236
711.983	-24.05312
712.416	32.07124
712.85	76.18183
713.283	14.03179
713.716	54.12856
714.149	20.045
714.582	48.10251
715.015	16.03818
715.448	-18.04321
715.881	10.02033
716.313	23.05198
716.746	13.02958
717.178	0
717.61	3.00735
718.043	-9.02142
718.475	18.0416
718.907	-32.07709
719.339	-21.04591
719.77	56.12833
720.202	-24.05862
720.634	44.10322
721.065	13.02941
721.497	40.09394
721.928	-14.03346
722.359	3.00709
722.79	31.07094
723.221	-17.04085
723.652	48.11686
724.083	2.00429
724.514	-21.04534
724.945	-5.0113
725.375	64.14135
725.806	-28.06617
726.236	28.0685
726.666	8.01794
727.096	-23.05399
727.526	24.05871
727.956	-14.03051
728.386	-20.04657
728.816	-18.0442
729.246	21.04931
729.675	-8.01918
730.105	21.04904
730.534	9.0201
730.964	22.05246
731.393	-8.01865
731.822	18.0443
732.251	35.08548
732.68	-43.09483
733.109	31.07311
733.537	-24.05568
733.966	-27.06434
734.395	-22.04825
734.823	-19.04048
735.251	6.01384
735.68	37.08763
736.108	-33.08014
736.536	9.0202
736.964	-1.0022
737.392	-15.03576
737.82	16.03633
738.247	-33.07515
738.675	-7.01572
739.102	28.06768
739.53	19.04682
739.957	-62.15415
740.384	5.0116
740.811	1.00245
741.238	-29.06754
741.665	29.06484
742.092	16.03586
742.519	-13.03133
742.945	21.04784
743.372	-3.00715
743.798	-21.05197
744.225	-7.01585
744.651	-1.00239
745.077	56.13224
745.503	-43.10014
745.929	23.05213
746.355	2.00465
746.781	-14.0332
747.207	16.0363
747.632	0
748.058	-26.06171
748.483	-25.0543
748.908	-28.06694
749.334	2.00469
749.759	-23.0517
750.184	-14.03189
750.609	-20.04679
751.033	-7.01541
751.458	71.15015
751.883	-13.03061
752.307	69.15536
752.732	35.08462
753.156	-25.05928
753.58	-2.0045
754.005	6.01471
754.429	-50.11113
754.853	13.03091
755.277	0
755.7	-13.03082
756.124	12.02887
756.548	-3.00684
756.971	-14.03253
757.394	-20.04962
757.818	24.05958
758.241	-15.03635
758.664	12.02934
759.087	5.01085
759.51	33.07803
759.933	-30.07002
760.356	-4.00983
760.778	72.17035
761.201	-14.03192
761.623	-22.05009
762.046	-40.08838
762.468	11.02497
762.89	13.03055
763.312	28.0643
763.734	-2.00462
764.156	6.01422
764.578	-32.06941
765	5.01164
765.421	25.06201
765.843	-3.00761
766.264	-42.09648
766.686	25.06044
767.107	-8.01883
767.528	-15.03707
767.949	-25.06124
768.37	-30.07043
768.791	16.03653
769.212	15.03673
769.632	-47.10517
770.053	-4.01018
770.473	-9.02101
770.894	-15.03548
771.314	32.07115
771.734	-17.03752
772.154	-2.00494
772.575	30.06532
772.994	6.01298
773.414	-65.14683
773.834	24.05764
774.254	-51.11966
774.673	20.04596
775.093	14.03335
775.512	-43.1031
775.931	28.06855
776.351	-32.07592
776.77	-11.02592
777.189	-35.07906
777.607	-28.06928
778.026	16.03835
778.445	-3.00732
778.864	-22.05398
779.282	-14.03185
779.701	22.05294
780.119	-39.0945
780.537	-30.07189
780.955	10.02418
781.373	-14.03311
781.791	10.02142
782.209	63.13655
782.627	37.09381
783.045	30.06504
783.462	9.02183
783.88	-7.01754
784.297	-14.03383
784.715	21.05251
785.132	-31.07191
785.549	31.07486
785.966	-31.07469
786.383	-32.07627
786.8	20.04395
787.217	9.02019
787.633	-26.06261
788.05	-30.06593
788.466	-4.00886
788.883	24.0591
789.299	-31.07071
789.715	16.03727
790.131	-21.04975
790.547	7.01632
790.963	13.03075
791.379	17.04113
791.795	6.01289
792.21	12.0264
792.626	8.01796
793.041	-65.15376
793.457	-16.03759
793.872	-5.0112
794.287	29.0674
794.702	9.02094
795.117	-18.04251
795.532	11.02668
795.947	46.10279
796.362	26.05783
796.776	23.04885
797.191	-37.08637
797.605	18.04098
798.02	4.00935
798.434	15.03096
798.848	-16.03739
799.262	36.08623
799.676	4.00916
800.09	-24.05612
800.504	18.04128
800.918	4.00872
801.331	-22.05496
801.745	-7.01513
802.158	-17.04056
802.572	-29.06669
802.985	19.04273
803.398	7.0158
803.811	26.06299
804.224	-5.0118
804.637	-75.16894
805.05	25.05435
805.462	21.04858
805.875	18.04555
806.288	18.0417
806.7	18.04297
807.112	16.0349
807.525	5.01179
807.937	-29.06881
808.349	-7.01664
808.761	-14.03228
809.173	-32.0731
809.584	6.01397
809.996	-14.03292
810.408	-20.04992
810.819	-27.06067
811.231	3.00764
811.642	54.12663
812.053	25.05733
812.464	52.1173
812.875	-40.09876
813.286	-32.07886
813.697	-24.05157
814.108	-16.03674
814.519	-11.02282
814.929	-28.06755
815.34	-44.1018
815.75	-31.07562
816.16	-47.11015
816.571	-13.03241
816.981	-24.05283
817.391	32.07239
817.801	54.12841
818.211	7.01584
818.62	-37.08477
819.03	-14.0322
819.44	-7.0174
819.849	10.02407
820.259	5.01224
820.668	8.01895
821.077	-17.04049
821.486	33.0736
821.895	-37.08542
822.304	-6.01528
822.713	-12.02674
823.122	15.03579
823.531	-15.03394
823.939	3.00695
824.348	27.06214
824.756	-8.01898
825.164	6.0142
825.573	-54.13043
825.981	8.01883
826.389	-32.07568
826.797	-7.01674
827.205	9.01941
827.612	-37.08644
828.02	40.08909
828.428	-25.06065
828.835	20.05043
829.243	28.06233
829.65	-45.10781
830.057	68.15627
830.464	70.1617
830.871	22.04926
831.278	-31.0706
831.685	-26.05379
832.092	27.06273
832.499	-9.0183
832.905	24.05786
833.312	3.00636
833.718	-35.08283
834.124	-19.0411
834.531	-17.04059
834.937	-35.08519
835.343	79.17766
835.749	36.07751
836.155	11.02738
836.561	-79.18318
836.966	-4.00923
837.372	-27.0654
837.777	-4.0094
838.183	-36.07328
838.588	17.04023
838.993	13.02944
839.399	-24.05557
839.804	-17.03997
840.209	11.02692
840.613	2.00422
841.018	-54.12969
841.423	-43.10459
841.828	7.01679
842.232	-3.0069
842.637	-23.05041
843.041	58.14299
843.445	-40.09497
843.849	-22.05191
844.253	-22.04894
844.657	10.02417
845.061	-22.04715
845.465	89.20498
845.869	0
846.272	-19.04399
846.676	25.05707
847.079	6.01466
847.483	3.00706
847.886	-21.04746
848.289	39.10095
848.692	4.00959
849.095	-53.11977
849.498	-13.0306
849.901	-31.0663
850.304	-17.03806
850.707	-44.10716
851.109	-15.0353
851.512	14.03282
851.914	63.15288
852.316	9.0217
852.718	19.04737
853.121	-13.03028
853.523	-18.03957
853.925	-12.03006
854.326	48.11467
854.728	-25.06158
855.13	20.04953
855.531	59.1342
855.933	24.05381
856.334	12.02855
856.736	-31.06478
857.137	10.02183
857.538	-28.06732
857.939	42.09849
858.34	29.0658
858.741	7.01741
859.142	2.00455
859.542	65.16615
859.943	24.05687
860.343	-24.05714
860.744	27.06226
861.144	32.0733
861.544	27.06216
861.945	-22.05312
862.345	-63.1444
862.745	-9.02125
863.145	-58.12891
863.544	21.05092
863.944	-19.04218
864.344	-16.03714
864.743	53.12319
865.143	1.00244
865.542	-60.13169
865.941	18.04254
866.34	62.13843
866.74	-6.01543
867.139	11.02502
867.537	11.02637
867.936	9.02051
868.335	17.04138
868.734	15.03685
869.132	-5.01103
869.531	-2.00455
869.929	26.05601
870.327	-7.01585
870.726	59.13697
871.124	20.04321
871.522	-33.07951
871.92	-1.00233
872.318	14.03237
872.715	26.06018
873.113	8.01846
873.511	-34.08104
873.908	16.03936
874.306	5.01184
874.703	38.08921
875.1	2.00482
875.497	-13.02923
875.894	16.03778
876.291	17.03968
876.688	-19.04673
877.085	-32.07233
877.482	-6.01411
877.878	36.08154
878.275	-19.04581
878.671	-38.07689
879.068	19.04294
879.464	7.016
879.86	24.05405
880.256	-11.02531
880.652	-24.05817
881.048	25.05744
881.444	17.03729
881.84	-45.10888
882.236	27.06422
882.631	35.08087
883.027	-18.04047
883.422	-16.03894
883.817	-9.02183
884.213	-32.07881
884.608	-16.03774
885.003	3.00685
885.398	-18.04288
885.793	2.00473
886.188	0
886.582	-23.05504
886.977	25.05534
887.371	-10.024
887.766	-10.02389
888.16	18.04247
888.554	6.01381
888.949	-32.07527
889.343	-6.01362
889.737	-2.0052
890.131	-18.04323
890.525	1.00242
890.918	28.0672
891.312	-41.09107
891.706	44.11039
892.099	32.07644
892.492	14.02796
892.886	-34.07851
893.279	-29.07067
893.672	-22.0537
894.065	1.00236
894.458	-2.00476
894.851	-15.03415
895.244	-20.04885
895.637	17.03859
896.029	35.08026
896.422	-21.04835
896.814	16.03765
897.206	-4.00911
897.599	-45.10335
897.991	49.11119
898.383	-20.04438
898.775	6.01258
899.167	-9.02003
899.559	3.00715
899.951	25.05486
900.342	-53.12659
900.734	6.01446
901.125	7.01729
901.517	54.12479
901.908	-1.00223
902.299	-6.01396
902.69	-7.01558
903.082	-9.02055
903.473	26.05918
903.863	46.11199
904.254	5.01081
904.645	-35.08151
905.036	6.01396
905.426	-1.00207
905.817	-5.01159
906.207	-32.0728
906.597	24.05274
906.987	-23.05607
907.378	-6.01431
907.768	11.02786
908.158	43.09844
908.547	-15.03718
908.937	-24.05845
909.327	-23.05259
909.717	-17.04057
910.106	-22.05003
910.495	36.08504
910.885	-59.14054
911.274	37.08749
911.663	61.1467
912.052	20.04593
912.441	25.06076
912.83	-6.01282
913.219	-33.08161
913.608	-2.00462
913.997	-15.03574
914.385	-17.03778
914.774	8.01824
915.162	22.04881
915.55	-5.01141
915.939	-16.03866
916.327	43.10058
916.715	9.022
917.103	-6.01381
917.491	-1.0023
917.878	-59.13583
918.266	19.04661
918.654	12.02946
919.041	-16.04001
919.429	4.00892
919.816	-13.03112
920.203	-17.03908
920.591	-61.1434
920.978	20.04583
921.365	-14.03492
921.752	-5.01129
922.139	18.03644
922.525	-44.10039
922.912	-14.03212
923.299	13.03069
923.685	19.04711
924.072	-15.03197
924.458	-3.00704
924.844	-2.00468
925.231	-11.02385
925.617	0
926.003	-1.00243
926.389	11.02655
926.774	6.01449
927.16	-8.01869
927.546	-34.08345
927.931	15.03528
928.317	14.02941
928.702	-5.01099
929.088	-28.06298
929.473	22.05302
929.858	0
930.243	-26.05958
930.628	-32.0736
931.013	39.09211
931.398	-11.0234
931.783	5.01252
932.167	0
932.552	-3.007
932.937	-16.03693
933.321	-24.05703
933.705	27.06503
934.09	4.00939
934.474	3.00667
934.858	13.0322
935.242	18.03967
935.626	-24.05832
936.009	-2.00508
936.393	33.08005
936.777	8.01964
937.16	1.00244
937.544	18.03939
937.927	-24.05832
938.311	12.02726
938.694	13.03267
939.077	-29.06511
939.46	53.12192
939.843	5.00941
940.226	-48.11725
940.609	-17.03641
940.991	-26.06313
941.374	-29.06682
941.757	15.03471
942.139	-7.01453
942.522	6.01306
942.904	56.1257
943.286	-47.11299
943.668	-1.00246
944.05	-22.05135
944.432	39.09068
944.814	-35.081
945.196	6.014
945.578	-31.07086
945.959	3.00661
946.341	2.00452
946.722	66.14394
947.104	8.01777
947.485	-7.01522
947.866	25.06005
948.247	-15.03602
948.628	-32.07336
949.009	7.01708
949.39	-69.16088
949.771	-44.09572
950.152	63.1451
950.532	0
950.913	-26.05853
951.293	-2.00523
951.674	-3.00677
952.054	-30.07104
952.434	-13.03028
952.814	-63.13976
953.194	63.15563
953.574	-28.0643
953.954	-18.04032
954.334	16.03784
954.714	11.02534
955.093	-45.10364
955.473	-31.07316
955.853	-4.00991
956.232	8.02099
956.611	-40.08886
956.99	4.00957
957.37	5.01207
957.749	-46.10283
958.128	16.03856
958.506	3.00748
958.885	-35.08375
959.264	1.00232
959.643	-7.01493
960.021	-2.0047
960.4	4.0086
960.778	-38.08701
961.156	-28.06679
961.535	-39.08349
961.913	-45.09712
962.291	6.01484
962.669	-29.07032
963.047	-21.05031
963.424	51.12297
963.802	-1.00229
964.18	20.0473
964.557	-23.04879
964.935	2.00442
965.312	5.01248
965.69	-29.06855
966.067	-40.09163
966.444	25.05774
966.821	36.08692
967.198	-44.0995
967.575	13.02967
967.952	24.05276
968.329	-18.04118
968.705	3.00583
969.082	37.09026
969.458	-25.05763
969.835	0
970.211	32.07767
970.587	1.00235
970.963	-3.00729
971.339	-6.01509
971.715	-57.13353
972.091	17.0392
972.467	-24.05571
972.843	-39.09226
973.219	23.05068
973.594	1.0025
973.97	30.06548
974.345	-5.01124
974.721	2.00452
975.096	-26.05884
975.471	6.01339
975.846	59.13284
976.221	-13.03145
976.596	18.04047
976.971	5.01164
977.346	-18.03869
977.72	2.00482
978.095	-8.01974
978.469	56.12436
978.844	22.05189
979.218	46.10389
979.593	0
979.967	41.09398
980.341	-67.14498
980.715	2.00474
981.089	-13.03047
981.463	34.07343
981.837	41.09462
982.21	22.04711
982.584	-20.04534
982.957	6.01429
983.331	38.08354
983.704	15.03496
984.078	-6.01387
984.451	24.05465
984.824	-4.00928
985.197	-14.03195
985.57	1.00234
985.943	-6.01365
986.316	25.05746
986.688	26.05827
987.061	5.01082
987.434	-5.01244
987.806	0
988.179	-9.01979
988.551	21.04977
988.923	-19.04411
989.295	23.05382
989.667	33.07543
990.039	37.08624
990.411	24.05192
990.783	-5.01069
991.155	-15.03464
991.527	-26.0591
991.898	-52.12275
992.27	-7.01642
992.641	9.02115
993.012	98.21328
993.384	-10.02246
993.755	-9.02166
994.126	-32.07301
994.497	-4.00925
994.868	18.03862
995.239	27.06166
995.61	-45.10768
995.98	7.01619
996.351	20.04705
996.722	-19.04183
997.092	13.0292
997.462	-20.04462
997.833	16.03522
998.203	3.00678
998.573	63.14782
998.943	-45.09845
999.313	36.08104
999.683	-30.06731
1000.053	33.07083
1000.423	1.00229
1000.792	0
1001.162	28.06512
1001.531	-17.03995
1001.901	-29.06826
1002.27	34.07066
1002.639	-6.01462
1003.009	1.00227
1003.378	-8.01948
1003.747	23.05043
1004.116	-12.02726
1004.485	25.05624
1004.853	-4.00961
1005.222	8.01929
1005.591	27.05917
1005.959	47.09939
1006.328	-69.14624
1006.696	28.06375
1007.064	-11.02627
1007.433	33.07791
1007.801	-35.08074
1008.169	-8.01898
1008.537	43.08798
1008.905	16.03498
1009.273	-3.00698
1009.64	2.00452
1010.008	-12.02681
1010.375	44.09925
1010.743	-15.03157
1011.11	-14.0313
1011.478	21.04869
1011.845	9.01942
1012.212	-37.07776
1012.579	12.02781
1012.946	-11.02416
1013.313	32.07062
1013.68	-12.02493
1014.047	15.03406
1014.414	-24.05405
1014.78	-29.06924
1015.147	-27.06064
1015.513	40.09152
1015.88	-13.03106
1016.246	56.12926
1016.612	7.01474
1016.978	-18.04151
1017.344	16.03768
1017.71	7.01564
1018.076	6.01318
1018.442	16.03872
1018.808	-23.05468
1019.174	-21.04968
1019.539	17.03512
1019.905	4.00891
1020.27	-16.03781
1020.636	34.07575
1021.001	-11.02457
1021.366	81.1838
1021.731	-20.04924
1022.096	8.0193
1022.461	-37.0816
1022.826	29.06441
1023.191	19.04737
1023.556	-41.08925
1023.92	14.0319
1024.285	-28.06432
1024.649	9.02075
1025.014	-5.01167
1025.378	9.02164
1025.742	-6.01406
1026.107	15.03103
1026.471	-47.101
1026.835	-27.06271
1027.199	-51.11751
1027.562	38.08252
1027.926	25.05698
1028.29	24.05746
1028.654	6.01271
1029.017	48.11057
1029.381	22.04944
1029.744	-3.00732
1030.107	-12.02609
1030.471	-23.05168
1030.834	-9.01872
1031.197	-1.00222
1031.56	4.00895
1031.923	-34.08388
1032.286	-3.00654
1032.648	-11.02452
1033.011	10.02147
1033.374	-18.03906
1033.736	-22.05527
1034.099	68.15496
1034.461	-13.03151
1034.823	-63.14915
1035.185	-64.1516
1035.548	2.00456
1035.91	48.10788
1036.272	-2.00425
1036.634	-23.05238
1036.995	45.09924
1037.357	-5.0115
1037.719	4.00913
1038.08	-41.09008
1038.442	52.11725
1038.803	4.00893
1039.165	28.06666
1039.526	18.04079
1039.887	3.00679
1040.248	54.12727
1040.609	23.05318
1040.97	-38.08796
1041.331	-72.17154
1041.692	-33.07342
1042.053	24.05001
1042.413	5.01072
1042.774	13.02946
1043.134	-20.04417
1043.495	-29.06868
1043.855	-18.04125
1044.215	-16.03743
1044.576	19.0429
1044.936	63.13364
1045.296	5.01169
1045.656	16.03681
1046.016	-58.13099
1046.375	8.01841
1046.735	30.06396
1047.095	3.00658
1047.454	47.09041
1047.814	-6.01344
1048.173	-20.04401
1048.533	21.04501
1048.892	-1.00228
1049.251	13.03074
1049.61	-55.12733
1049.969	16.03553
1050.328	-49.09771
1050.687	11.02505
1051.046	60.13711
1051.405	-10.02316
1051.763	-3.00649
1052.122	21.04989
1052.48	-42.09706
1052.839	-12.02657
1053.197	36.07891
1053.555	-23.04704
1053.914	-6.01375
1054.272	8.01805
1054.63	-45.10381
1054.988	-26.05807
1055.345	-53.10515
1055.703	-35.07871
1056.061	3.00733
1056.419	-8.01982
1056.776	-4.00907
1057.134	-25.05414
1057.491	-13.0307
1057.848	10.02326
1058.206	-6.01319
1058.563	42.08615
1058.92	1.00212
1059.277	-66.15222
1059.634	-53.11507
1059.991	23.0517
1060.348	22.04662
1060.704	0
1061.061	-16.03389
1061.418	1.0023
1061.774	38.08925
1062.131	16.04119
1062.487	-35.07641
1062.843	14.03279
1063.199	18.04241
1063.555	-19.04171
1063.911	-24.05729
1064.267	-16.02982
1064.623	-11.02553
1064.979	-18.03886
1065.335	-16.03525
1065.691	62.13917
1066.046	-23.04655
1066.402	27.05675
1066.757	16.03813
1067.112	12.02728
1067.468	31.06957
1067.823	32.07201
1068.178	30.06825
1068.533	-26.05896
1068.888	-5.01106
1069.243	14.03268
1069.598	-31.06997
1069.952	5.0107
1070.307	31.07336
1070.662	-17.03815
1071.016	-29.0616
1071.371	-30.06365
1071.725	-69.15224
1072.079	-2.0045
1072.434	-10.02285
1072.788	12.02696
1073.142	40.09284
1073.496	10.02222
1073.85	12.02584
1074.203	-6.01362
1074.557	11.02807
1074.911	4.00881
1075.265	1.00214
1075.618	19.04366
1075.971	-18.04001
1076.325	-22.05322
1076.678	30.06362
1077.031	12.02514
1077.385	83.16767
1077.738	53.11046
1078.091	33.07073
1078.444	-54.11647
1078.796	12.0279
1079.149	-44.10253
1079.502	-16.03565
1079.855	44.09568
1080.207	36.0826
1080.56	-45.11117
1080.912	-48.10894
1081.264	-20.04535
1081.617	12.02754
1081.969	55.13272
1082.321	14.03211
1082.673	41.08788
1083.025	-23.05083
1083.377	8.0155
1083.728	-60.12936
1084.08	17.04023
1084.432	-71.15901
1084.783	43.0944
1085.135	1.00241
1085.486	-6.01296
1085.838	-29.0677
1086.189	2.00456
1086.54	21.04678
1086.891	13.03154
1087.242	11.0249
1087.593	-29.06602
1087.944	6.01256
1088.295	-54.11397
1088.646	-27.06199
1088.996	3.00677
1089.347	-30.06916
1089.698	-17.03825
1090.048	15.03654
1090.398	45.09712
1090.749	30.06715
1091.099	20.04798
1091.449	7.01629
1091.799	25.05864
1092.149	3.00707
1092.499	21.04821
1092.849	9.02167
1093.199	0
1093.548	-9.0205
1093.898	16.03781
1094.248	34.08222
1094.597	-47.11675
1094.947	12.0304
1095.296	-31.07217
1095.645	-28.06913
1095.994	29.0654
1096.343	8.01925
1096.692	-10.02538
1097.041	-6.0157
1097.39	-28.0664
1097.739	-22.05482
1098.088	-12.03032
1098.437	-2.00504
1098.785	12.03064
1099.134	-11.02745
1099.482	-14.03662
1099.83	-12.02991
1100.179	-3.00758
1100.527	22.05504
1100.875	-49.12455
1101.223	56.14171
1101.571	-14.03743
1101.919	-34.08607
1102.267	16.04383
1102.615	16.05135
1102.962	7.02245
1103.31	17.05451
1103.658	9.02882
