Data from N3 R5 sample 1_Subt2__2__14-22-43-051.txt Node

Date: Thu Sep 18 14:22:43 PDT 2025
User: uwsun
Spectrometer: HDX01956
Trigger mode: 0
Integration Time (sec): 5.000000E-1
Scans to average: 1
Nonlinearity correction enabled: true
Boxcar width: 0
Storing dark spectrum: false
XAxis mode: Wavelengths
Number of Pixels in Spectrum: 2068
>>>>>Begin Spectral Data<<<<<
194.03	65.18697
194.578	74.23865
195.127	55.17539
195.676	37.11813
196.225	79.20603
196.773	99.27234
197.321	120.3289
197.87	142.35906
198.418	190.48111
198.966	190.48981
199.513	209.51893
200.061	182.45066
200.609	166.42854
201.156	88.18793
201.704	128.31638
202.251	169.43878
202.798	184.46873
203.345	167.40388
203.892	148.36554
204.438	174.40529
204.985	173.40257
205.532	216.56493
206.078	161.38717
206.624	174.42121
207.17	227.50649
207.716	151.35595
208.262	161.30687
208.808	183.44474
209.354	120.28798
209.899	163.39999
210.445	190.46495
210.99	128.30507
211.535	193.43899
212.08	160.36165
212.625	146.35782
213.17	125.31049
213.715	157.34567
214.259	232.52267
214.804	161.38556
215.348	143.3192
215.892	177.41496
216.436	204.45865
216.98	171.36272
217.524	161.37095
218.068	182.44521
218.612	167.40556
219.155	190.43208
219.698	131.30219
220.242	175.42195
220.785	191.43216
221.328	130.3179
221.871	163.40103
222.414	132.31653
222.956	142.3361
223.499	131.28697
224.041	134.29893
224.583	169.34846
225.126	179.38715
225.668	149.35341
226.21	139.3411
226.751	114.24018
227.293	140.30727
227.835	119.28291
228.376	152.33585
228.918	160.39154
229.459	176.43053
230	164.37763
230.541	122.27193
231.082	205.47834
231.622	191.42299
232.163	156.37109
232.704	170.40718
233.244	113.27432
233.784	143.33722
234.324	184.39481
234.864	117.25717
235.404	163.37046
235.944	121.27656
236.484	150.35901
237.023	156.35878
237.563	152.33978
238.102	131.30087
238.641	181.44613
239.18	165.37622
239.719	169.41456
240.258	127.27539
240.797	169.39326
241.335	133.31218
241.874	188.34763
242.412	141.32772
242.95	154.36083
243.488	179.39344
244.026	185.41193
244.564	213.41507
245.102	146.31787
245.64	155.3604
246.177	152.32672
246.715	141.32435
247.252	164.35873
247.789	27.04729
248.326	89.20776
248.863	161.33793
249.4	221.48473
249.936	142.28073
250.473	120.27378
251.009	190.4228
251.546	181.38494
252.082	168.35768
252.618	199.42838
253.154	165.3835
253.69	195.41905
254.226	145.33449
254.761	100.21606
255.297	152.32292
255.832	161.36621
256.367	140.31812
256.903	115.24383
257.438	139.31284
257.972	136.29056
258.507	186.41561
259.042	94.19473
259.576	134.28107
260.111	146.32489
260.645	220.45432
261.179	130.29288
261.713	125.26805
262.247	188.4213
262.781	159.32371
263.315	139.3316
263.849	170.41153
264.382	162.3566
264.915	175.39853
265.449	133.31778
265.982	151.32729
266.515	181.42616
267.048	185.37733
267.58	133.27596
268.113	172.36046
268.646	182.43792
269.178	115.25065
269.71	186.38635
270.243	167.36691
270.775	170.41956
271.307	170.38848
271.838	199.44897
272.37	195.46394
272.902	207.45326
273.433	131.27557
273.965	252.59135
274.496	146.34837
275.027	146.34997
275.558	168.39332
276.089	182.44223
276.62	109.26996
277.15	147.35096
277.681	91.18915
278.211	176.41254
278.741	174.37336
279.272	175.38546
279.802	196.47285
280.332	200.45372
280.861	209.48211
281.391	163.35511
281.921	190.43348
282.45	219.53182
282.98	221.55611
283.509	198.42577
284.038	158.34137
284.567	197.43173
285.096	167.39137
285.625	270.58808
286.153	169.38129
286.682	159.3486
287.21	169.3928
287.739	176.39781
288.267	188.44135
288.795	204.51582
289.323	200.45611
289.851	188.42112
290.378	193.41636
290.906	181.42683
291.433	171.41356
291.961	221.4739
292.488	198.47533
293.015	211.48129
293.542	189.4607
294.069	188.44583
294.596	237.55974
295.122	187.43085
295.649	250.52786
296.175	202.46346
296.702	187.43188
297.228	193.44343
297.754	157.34001
298.28	221.47737
298.806	196.45707
299.332	186.39566
299.857	170.36871
300.383	222.53375
300.908	257.60084
301.433	239.55855
301.958	148.3251
302.483	218.53108
303.008	222.52157
303.533	187.46228
304.058	260.57879
304.582	230.52113
305.107	197.50123
305.631	221.47635
306.155	239.53723
306.679	216.48603
307.203	268.59165
307.727	238.5432
308.251	231.54514
308.775	229.51939
309.298	242.55967
309.822	226.54707
310.345	320.71234
310.868	247.56294
311.391	264.61684
311.914	249.59854
312.437	231.49726
312.96	235.53213
313.482	259.58719
314.005	275.65751
314.527	258.65117
315.049	270.64544
315.571	307.65886
316.093	286.67767
316.615	285.65792
317.137	242.49594
317.659	276.62789
318.18	287.65779
318.702	287.63319
319.223	241.46942
319.744	348.73187
320.265	324.74392
320.786	292.6876
321.307	354.8313
321.828	308.66258
322.348	373.8229
322.869	226.50332
323.389	288.50461
323.909	305.66106
324.43	323.72602
324.95	389.83015
325.47	369.85383
325.989	395.88272
326.509	301.62871
327.029	364.76484
327.548	322.68524
328.067	326.74071
328.587	350.82223
329.106	352.74451
329.625	344.8364
330.144	324.69549
330.662	392.84398
331.181	422.91363
331.7	380.82623
332.218	439.87869
332.736	436.92942
333.255	393.8485
333.773	417.91533
334.291	421.96135
334.808	374.76748
335.326	406.84857
335.844	448.9695
336.361	401.94622
336.879	426.91481
337.396	415.91554
337.913	391.82898
338.43	481.99528
338.947	438.96283
339.464	440.86092
339.981	486.05604
340.497	495.11594
341.014	460.01766
341.53	554.13042
342.046	540.20192
342.562	498.13025
343.078	558.17107
343.594	538.16626
344.11	494.06389
344.626	523.20458
345.141	581.18856
345.657	534.0698
346.172	530.14596
346.687	550.13597
347.202	555.11221
347.717	613.30054
348.232	592.32924
348.747	572.17144
349.261	584.15612
349.776	551.15254
350.29	586.30498
350.805	589.2881
351.319	631.29859
351.833	580.18089
352.347	586.20287
352.861	648.32734
353.374	626.25387
353.888	640.3517
354.401	654.31125
354.915	653.28904
355.428	663.45988
355.941	672.37284
356.454	713.37213
356.967	675.39924
357.48	705.39185
357.993	720.53679
358.505	728.56528
359.018	695.46319
359.53	766.57432
360.042	653.23718
360.554	719.49852
361.066	701.47907
361.578	766.42591
362.09	735.5102
362.602	771.43701
363.113	731.42774
363.625	830.57969
364.136	777.43677
364.647	741.48287
365.158	800.58375
365.669	831.71226
366.18	735.4471
366.691	815.50267
367.201	827.65215
367.712	807.51614
368.222	850.64995
368.733	820.50096
369.243	858.54384
369.753	845.61491
370.263	814.62051
370.773	916.88376
371.282	953.84272
371.792	908.69747
372.301	945.88294
372.811	957.06455
373.32	953.61351
373.829	1014.94452
374.338	1045.82998
374.847	1109.96879
375.356	1131.12064
375.865	1189.89055
376.373	1216.08327
376.882	1226.39985
377.39	1254.30548
377.898	1253.38908
378.407	1259.07667
378.915	1341.05915
379.423	1459.46825
379.93	1477.32694
380.438	1521.65101
380.946	1648.60864
381.453	1616.66355
381.96	1831.7997
382.468	1911.86792
382.975	2080.11358
383.482	2000.67871
383.989	2134.35232
384.495	2205.87657
385.002	2332.50114
385.509	2317.9445
386.015	2597.35114
386.521	2805.77296
387.028	2764.85425
387.534	2907.57252
388.04	2984.04557
388.546	3077.66011
389.051	3269.54404
389.557	3507.79191
390.063	3834.66002
390.568	3886.7596
391.073	4155.27928
391.578	4204.64686
392.084	4293.03769
392.589	4492.85341
393.093	4847.03801
393.598	5192.60668
394.103	5777.59468
394.607	6273.36231
395.112	6869.49408
395.616	7251.44422
396.12	7868.66519
396.624	8747.87758
397.128	9306.04395
397.632	10505.92543
398.136	11488.50824
398.639	12086.74318
399.143	13589.93534
399.646	15278.71498
400.15	16970.52712
400.653	18979.41912
401.156	21115.95458
401.659	24855.58729
402.162	30424.07948
402.664	40290.23792
403.167	57639.17993
403.67	59978.41649
404.172	55487.84425
404.674	37291.05854
405.176	4428.40989
405.678	533.47942
406.18	0
406.682	0
407.184	6962.89417
407.686	50953.82939
408.187	59237.6763
408.688	61091.12691
409.19	61923.45898
409.691	56808.95431
410.192	47970.36188
410.693	41528.77636
411.194	37404.47196
411.694	34894.25406
412.195	32255.94019
412.696	29028.54237
413.196	27062.92636
413.696	26010.90418
414.196	26228.33446
414.696	25642.52126
415.196	24216.98535
415.696	22093.8776
416.196	18101.74812
416.695	14086.16855
417.195	12074.68595
417.694	11418.22481
418.194	10782.68805
418.693	10065.35505
419.192	9824.45671
419.691	9537.63817
420.19	9307.04832
420.688	8966.32261
421.187	8641.65126
421.685	8107.93799
422.184	7415.40404
422.682	6515.93975
423.18	5563.48096
423.678	4914.77644
424.176	4546.01239
424.674	4312.89105
425.172	4079.44361
425.669	3782.96209
426.167	3584.6091
426.664	3193.66126
427.161	2976.71435
427.659	2801.16372
428.156	2622.4185
428.652	2440.27672
429.149	2371.04379
429.646	2224.52553
430.143	2143.91728
430.639	2003.78486
431.135	1869.87857
431.632	1781.50943
432.128	1707.6824
432.624	1565.7395
433.12	1554.36934
433.616	1471.14242
434.111	1399.36487
434.607	1303.2562
435.103	1427.96582
435.598	1261.81323
436.093	1227.07708
436.588	1191.96284
437.083	1137.9024
437.578	1129.9188
438.073	950.87147
438.568	999.91065
439.062	936.54577
439.557	925.70506
440.051	915.63699
440.546	851.56683
441.04	780.50956
441.534	868.80416
442.028	833.62497
442.522	786.56035
443.015	738.32002
443.509	759.55186
444.002	719.48259
444.496	677.20477
444.989	772.57883
445.482	672.41502
445.975	676.29862
446.468	719.27109
446.961	682.19457
447.454	600.13576
447.947	699.41614
448.439	708.46544
448.931	666.26401
449.424	550.18775
449.916	638.30093
450.408	639.24601
450.9	556.16943
451.392	589.29677
451.884	545.06241
452.375	548.17584
452.867	571.09948
453.358	528.02408
453.849	553.99997
454.341	563.09132
454.832	524.97583
455.323	563.19327
455.814	447.90092
456.304	485.97391
456.795	517.01154
457.285	456.87871
457.776	459.89703
458.266	537.11775
458.756	444.93291
459.247	441.92681
459.737	491.03953
460.226	492.9654
460.716	470.9958
461.206	402.85175
461.695	510.12801
462.185	450.94552
462.674	372.75683
463.163	388.75665
463.653	409.76068
464.142	400.8575
464.63	407.88812
465.119	451.93154
465.608	371.76253
466.096	392.76082
466.585	303.62586
467.073	347.74149
467.561	376.8283
468.05	318.66289
468.538	385.86286
469.026	380.82412
469.513	355.66812
470.001	283.58508
470.489	340.72795
470.976	302.63457
471.463	332.76167
471.951	351.7967
472.438	312.67031
472.925	249.53163
473.412	268.59932
473.899	295.62109
474.385	251.57021
474.872	230.495
475.359	274.61652
475.845	284.53357
476.331	252.4954
476.817	233.52073
477.303	241.51678
477.789	235.5239
478.275	238.55086
478.761	246.54536
479.247	204.42109
479.732	249.581
480.218	232.56371
480.703	252.58927
481.188	214.42129
481.673	182.3917
482.158	220.4378
482.643	216.51301
483.128	142.30391
483.612	135.29673
484.097	202.46104
484.581	137.2953
485.066	187.42362
485.55	122.25081
486.034	197.40162
486.518	171.3787
487.002	160.37048
487.486	143.33119
487.969	187.43566
488.453	239.56424
488.936	107.22816
489.42	161.3351
489.903	119.28585
490.386	229.45496
490.869	122.24617
491.352	111.25657
491.835	114.21935
492.318	145.3112
492.8	137.26329
493.283	178.43089
493.765	106.2507
494.247	114.25021
494.73	108.22654
495.212	117.26742
495.694	129.28617
496.175	120.27179
496.657	170.38488
497.139	75.1176
497.62	106.24213
498.102	129.30657
498.583	59.14059
499.064	71.15422
499.545	134.28877
500.026	127.26916
500.507	39.08637
500.988	75.17721
501.469	30.07241
501.949	42.09922
502.43	55.12566
502.91	83.16274
503.39	95.22716
503.87	89.20121
504.35	60.13429
504.83	89.18631
505.31	67.15714
505.79	74.1702
506.269	83.18412
506.749	44.09673
507.228	114.25494
507.707	132.27615
508.187	60.13651
508.666	44.1039
509.145	58.13046
509.623	69.1553
510.102	88.20328
510.581	70.16055
511.059	95.23097
511.538	113.27843
512.016	103.23685
512.494	94.21628
512.972	120.27422
513.45	92.20702
513.928	56.13142
514.406	79.18746
514.884	91.22826
515.361	146.33525
515.839	117.25241
516.316	64.1472
516.793	90.21795
517.27	143.33066
517.747	102.25184
518.224	98.21518
518.701	120.25471
519.178	159.38164
519.654	52.11653
520.131	57.13473
520.607	107.2536
521.083	83.18297
521.56	83.18711
522.036	123.25715
522.512	96.22652
522.987	117.26871
523.463	113.25766
523.939	131.30544
524.414	95.20776
524.89	67.15178
525.365	137.29733
525.84	125.29145
526.315	85.19514
526.79	84.17978
527.265	81.17459
527.74	93.21693
528.215	111.25074
528.689	135.28761
529.164	33.06774
529.638	110.27179
530.112	54.12479
530.587	93.19236
531.061	103.2394
531.534	78.18033
532.008	81.18834
532.482	3.00656
532.956	102.25405
533.429	42.09579
533.903	26.05512
534.376	83.17491
534.849	98.21835
535.322	71.1613
535.795	64.15084
536.268	78.18183
536.741	63.14568
537.213	96.2131
537.686	44.10314
538.158	65.14065
538.631	66.15331
539.103	45.0975
539.575	89.17616
540.047	57.12022
540.519	47.10756
540.991	26.06118
541.463	58.13638
541.934	56.12405
542.406	29.0674
542.877	18.03937
543.348	20.04574
543.82	80.18803
544.291	62.13688
544.762	33.07579
545.233	98.23893
545.703	54.11587
546.174	110.24569
546.645	95.22264
547.115	46.10778
547.585	95.21232
548.056	51.12172
548.526	74.16842
548.996	74.17135
549.466	45.10567
549.935	108.24948
550.405	92.19571
550.875	54.12325
551.344	94.21878
551.814	55.12003
552.283	68.14093
552.752	114.25305
553.221	71.1485
553.69	102.21783
554.159	118.28264
554.628	59.12728
555.096	91.22207
555.565	78.16657
556.033	92.20668
556.502	61.14229
556.97	57.12112
557.438	73.16665
557.906	80.1823
558.374	47.10413
558.842	6.01404
559.31	50.10715
559.777	14.03323
560.245	8.01807
560.712	-36.08041
561.18	19.04064
561.647	31.06679
562.114	2.00445
562.581	37.08895
563.048	15.03312
563.514	-9.02178
563.981	4.00888
564.448	48.10446
564.914	3.00678
565.381	-35.077
565.847	32.07224
566.313	29.06519
566.779	53.11669
567.245	25.05694
567.711	44.10302
568.176	88.19501
568.642	22.05428
569.108	27.06473
569.573	-17.03865
570.038	78.15847
570.504	82.17929
570.969	22.05358
571.434	12.02597
571.899	23.05367
572.363	22.04863
572.828	6.01327
573.293	52.11567
573.757	52.11653
574.222	52.11408
574.686	59.12903
575.15	8.0187
575.614	39.08662
576.078	37.08423
576.542	54.11972
577.006	72.15803
577.469	54.12826
577.933	3.00652
578.396	83.19253
578.86	13.02968
579.323	30.06966
579.786	51.10591
580.249	46.10207
580.712	29.06842
581.175	36.08649
581.637	64.14378
582.1	11.02333
582.563	14.02829
583.025	17.04026
583.487	32.06214
583.95	28.05871
584.412	18.03635
584.874	49.11488
585.336	27.06248
585.797	60.12441
586.259	-7.01582
586.721	27.06174
587.182	35.07784
587.643	55.12018
588.105	54.12405
588.566	18.03675
589.027	65.15311
589.488	29.06374
589.949	31.07202
590.41	64.12136
590.87	-1.00217
591.331	-15.03103
591.791	-14.03115
592.252	20.04449
592.712	47.1089
593.172	5.01095
593.632	32.06558
594.092	7.01514
594.552	11.02275
595.011	57.12724
595.471	37.07979
595.931	13.02802
596.39	59.13665
596.849	35.07852
597.308	-12.0252
597.768	-10.0249
598.227	54.12554
598.685	11.02404
599.144	-8.0182
599.603	85.1924
600.062	3.00606
600.52	-25.05472
600.978	27.06251
601.437	51.11168
601.895	20.04093
602.353	4.00849
602.811	20.0428
603.269	22.05068
603.727	3.00699
604.184	16.03498
604.642	-26.06202
605.099	27.06022
605.557	12.028
606.014	29.06001
606.471	53.12924
606.928	66.14162
607.385	69.16474
607.842	115.25373
608.299	30.06737
608.755	26.06054
609.212	52.11201
609.668	22.04763
610.125	71.16294
610.581	20.0448
611.037	61.13233
611.493	-2.00454
611.949	31.0722
612.405	65.12582
612.861	-41.09243
613.316	6.01402
613.772	5.01114
614.227	-6.01378
614.683	63.12885
615.138	4.00922
615.593	-20.0448
616.048	-32.07023
616.503	-20.04774
616.958	-1.00243
617.412	7.01603
617.867	11.02389
618.321	-23.04503
618.776	3.0064
619.23	50.1138
619.684	-9.01945
620.138	10.02185
620.592	-25.05877
621.046	-21.04752
621.5	-15.03525
621.954	-9.01942
622.407	7.01495
622.861	-14.03246
623.314	-4.00881
623.768	-11.02492
624.221	47.08897
624.674	-44.09755
625.127	13.02932
625.58	-37.07975
626.033	4.00834
626.485	-6.01384
626.938	22.04991
627.39	-2.00449
627.843	-21.04657
628.295	-13.0291
628.747	27.06159
629.199	21.04635
629.651	-40.08875
630.103	44.09706
630.555	-5.01008
631.006	-2.00452
631.458	-38.08561
631.909	3.00656
632.361	-57.12792
632.812	-14.03141
633.263	-55.11386
633.714	-75.15395
634.165	-62.14339
634.616	-14.03192
635.067	-50.10567
635.518	-41.09322
635.968	-21.04016
636.419	-14.02881
636.869	2.00453
637.319	-23.05132
637.769	-19.04131
638.219	7.01575
638.669	9.02076
639.119	-29.06812
639.569	3.00705
640.019	-5.01106
640.468	-57.12165
640.918	-37.086
641.367	-15.03255
641.816	-11.0238
642.265	29.06415
642.714	4.00898
643.163	-51.11219
643.612	-14.03305
644.061	-55.11218
644.51	3.00662
644.958	-15.03186
645.406	-6.01396
645.855	-48.11418
646.303	-25.05615
646.751	-40.08931
647.199	-70.15267
647.647	28.06267
648.095	-27.05967
648.543	37.07063
648.99	-8.01861
649.438	31.06991
649.885	8.01929
650.333	-25.04571
650.78	46.1085
651.227	5.01185
651.674	36.07888
652.121	-60.1407
652.568	-45.10682
653.015	1.00239
653.461	7.01608
653.908	18.0402
654.354	-57.13086
654.801	-13.02967
655.247	19.0397
655.693	-24.06108
656.139	5.01154
656.585	0
657.031	-14.03206
657.477	-8.01685
657.922	27.06029
658.368	-4.0095
658.813	-27.0593
659.259	-46.10837
659.704	44.09917
660.149	-8.01805
660.594	-6.01383
661.039	15.03318
661.484	41.09398
661.929	-23.05204
662.373	19.04706
662.818	-15.03654
663.262	19.04397
663.707	-27.06638
664.151	22.05256
664.595	11.02574
665.039	-37.08939
665.483	52.12867
665.927	5.01129
666.371	-21.04783
666.814	24.05507
667.258	39.09
667.701	52.10468
668.145	4.00959
668.588	25.05948
669.031	20.04593
669.474	-2.00466
669.917	-16.03405
670.36	-25.06008
670.803	37.08546
671.245	28.05601
671.688	-2.0047
672.13	-52.11346
672.573	9.02228
673.015	1.00232
673.457	-3.00637
673.899	-4.00933
674.341	17.03954
674.783	-21.04937
675.225	2.00476
675.666	-10.02351
676.108	3.00632
676.549	-13.02968
676.991	-15.03183
677.432	-49.09344
677.873	-13.02899
678.314	-37.0859
678.755	25.05909
679.196	41.09073
679.637	-7.01641
680.078	-6.01352
680.518	-10.02207
680.959	21.04839
681.399	-5.01193
681.839	-16.03775
682.28	12.02885
682.72	-8.01761
683.16	11.02661
683.6	35.07619
684.039	1.00199
684.479	5.01191
684.919	-9.02037
685.358	14.03415
685.798	-15.03806
686.237	-6.01398
686.676	68.14937
687.115	41.0922
687.554	22.05019
687.993	-41.08644
688.432	14.03112
688.871	9.01965
689.309	92.21455
689.748	8.01598
690.186	23.05213
690.625	53.12104
691.063	23.05373
691.501	46.10938
691.939	14.03379
692.377	34.08001
692.815	48.11154
693.253	-12.02757
693.69	17.03575
694.128	17.04028
694.565	-6.01389
695.003	33.08107
695.44	-21.04765
695.877	59.13322
696.314	36.07334
696.751	11.02388
697.188	26.05774
697.625	38.08221
698.061	9.02088
698.498	43.09943
698.934	12.02757
699.371	14.03199
699.807	31.07057
700.243	-9.02127
700.679	54.11627
701.115	12.0269
701.551	71.16019
701.987	-2.00427
702.422	24.05462
702.858	-8.01826
703.294	36.07711
703.729	36.08514
704.164	47.10924
704.599	-7.01488
705.035	29.06237
705.47	27.06412
705.904	-22.04938
706.339	9.01976
706.774	14.03128
707.209	-24.05339
707.643	24.05538
708.078	18.04201
708.512	40.09814
708.946	-20.04602
709.38	22.04959
709.814	37.07992
710.248	-36.08402
710.682	22.05074
711.116	17.03951
711.549	-14.03482
711.983	-18.03979
712.416	-11.02471
712.85	36.08679
713.283	11.02499
713.716	27.06461
714.149	-20.04537
714.582	35.07496
715.015	4.00957
715.448	14.03341
715.881	12.02438
716.313	30.0677
716.746	38.08603
717.178	-28.06489
717.61	30.07312
718.043	-37.08854
718.475	6.0139
718.907	-3.00719
719.339	-11.024
719.77	33.07597
720.202	-13.03169
720.634	6.01418
721.065	-12.02729
721.497	14.03305
721.928	-4.00954
722.359	0
722.79	-13.03001
723.221	-42.10141
723.652	26.06356
724.083	-57.12387
724.514	-17.03667
724.945	-15.03398
725.375	-19.04269
725.806	-26.06142
726.236	19.04656
726.666	24.05365
727.096	-45.10608
727.526	0
727.956	-1.00217
728.386	-46.10766
728.816	-9.02206
729.246	20.04697
729.675	44.10443
730.105	12.02807
730.534	31.06891
730.964	-39.09407
731.393	-34.07967
731.822	49.11989
732.251	13.03188
732.68	-23.05051
733.109	-13.03092
733.537	-16.03706
733.966	12.02838
734.395	-35.07696
734.823	6.01271
735.251	-19.04406
735.68	9.02143
736.108	-16.03873
736.536	16.03586
736.964	27.05907
737.392	6.01425
737.82	31.07017
738.247	-12.02721
738.675	26.05798
739.102	28.06768
739.53	11.02714
739.957	-33.08161
740.384	25.05779
740.811	42.10194
741.238	-45.10513
741.665	36.08038
742.092	-39.08839
742.519	22.05268
742.945	6.01371
743.372	36.08521
743.798	0
744.225	-28.06368
744.651	-16.03837
745.077	14.03333
745.503	-5.01156
745.929	-29.06642
746.355	24.05553
746.781	-34.08094
747.207	-13.02967
747.632	-11.02595
748.058	-19.04503
748.483	-72.15796
748.908	11.0261
749.334	-18.04237
749.759	-36.08114
750.184	-31.07086
750.609	-34.07976
751.033	-27.05967
751.458	68.1439
751.883	-31.07325
752.307	77.17309
752.732	-3.0073
753.156	17.03998
753.58	-3.00675
754.005	8.01961
754.429	-52.11562
754.853	5.01191
755.277	41.09243
755.7	28.06586
756.124	43.10286
756.548	16.03634
756.971	30.06911
757.394	-15.03718
757.818	41.10147
758.241	-54.13181
758.664	34.0828
759.087	45.09679
759.51	1.00238
759.933	21.04852
760.356	10.02451
760.778	23.05493
761.201	-6.01366
761.623	17.0384
762.046	-16.03518
762.468	36.08131
762.89	16.03758
763.312	-12.02778
763.734	6.01384
764.156	18.04256
764.578	-3.00647
765	-22.05147
765.421	32.07927
765.843	34.08567
766.264	6.01365
766.686	29.07006
767.107	54.12554
767.528	37.09056
767.949	-8.01953
768.37	9.02097
768.791	-33.0761
769.212	55.13367
769.632	-11.02443
770.053	17.04312
770.473	7.01629
770.894	-27.06402
771.314	-15.03368
771.734	-66.14717
772.154	-6.01483
772.575	9.01968
772.994	-23.05007
773.414	-26.05827
773.834	16.03849
774.254	-3.00697
774.673	-14.03239
775.093	20.04759
775.512	10.02373
775.931	51.12432
776.351	-14.0331
776.77	45.10488
777.189	30.06687
777.607	-14.03455
778.026	26.06221
778.445	4.00975
778.864	29.07048
779.282	-48.10996
779.701	-6.01451
780.119	-26.06285
780.537	-30.07189
780.955	-8.01941
781.373	25.05868
781.791	3.00644
782.209	40.08713
782.627	1.00255
783.045	0
783.462	-62.1524
783.88	19.04738
784.297	9.02165
784.715	48.11943
785.132	-46.10702
785.549	50.12031
785.966	-9.02159
786.383	17.04014
786.8	-15.03321
787.217	-7.01575
787.633	-36.08685
788.05	-34.07478
788.466	24.05285
788.883	37.0909
789.299	3.0068
789.715	25.05813
790.131	-9.02127
790.547	-54.12737
790.963	28.06604
791.379	-10.02432
791.795	-6.01292
792.21	-25.05544
792.626	-13.02931
793.041	-41.09654
793.457	3.00702
793.872	-14.03141
794.287	26.06047
794.702	9.02094
795.117	-36.08531
795.532	21.05085
795.947	-25.05668
796.362	31.06888
796.776	-37.07962
797.191	-15.03486
797.605	22.05005
798.02	24.0559
798.434	-48.10046
798.848	15.03484
799.262	54.1289
799.676	-27.06221
800.09	-32.07495
800.504	3.0069
800.918	4.00872
801.331	-7.01744
801.745	-8.0173
802.158	-29.06934
802.572	3.00685
802.985	38.08512
803.398	23.05174
803.811	5.01216
804.224	6.01412
804.637	-98.22178
805.05	14.03051
805.462	9.02087
805.875	39.09832
806.288	33.07622
806.7	10.02391
807.112	32.06955
807.525	59.13768
807.937	-6.01417
808.349	-9.02141
808.761	-64.14902
809.173	-15.03415
809.584	-5.01167
809.996	-45.10645
810.408	-3.00747
810.819	50.11057
811.231	23.05836
811.642	60.14053
812.053	50.11408
812.464	19.04315
812.875	-2.0049
813.286	24.05854
813.697	-3.00642
814.108	-3.00687
814.519	12.02477
814.929	-16.03851
815.34	-12.02759
815.75	4.00969
816.16	-18.04194
816.571	62.15246
816.981	-2.00438
817.391	5.01137
817.801	5.012
818.211	9.02036
818.62	-45.10327
819.03	-29.0669
819.44	12.02973
819.849	10.02407
820.259	42.10213
820.668	19.04491
821.077	50.11757
821.486	-23.05189
821.895	-11.02526
822.304	3.00763
822.713	-12.02674
823.122	15.03579
823.531	42.09393
823.939	23.05308
824.348	53.12134
824.756	6.0142
825.164	-17.04042
825.573	2.00478
825.981	41.09586
826.389	-15.03536
826.797	22.05233
827.205	-25.0543
827.612	-12.0279
828.02	19.0425
828.428	-13.03146
828.835	6.01517
829.243	22.04904
829.65	-13.03095
830.057	62.14265
830.464	37.08603
830.871	9.02021
831.278	-15.03405
831.685	-23.04755
832.092	44.10189
832.499	25.05043
832.905	52.1247
833.312	18.03801
833.718	-3.00706
834.124	18.03862
834.531	-9.02145
834.937	-18.04367
835.343	17.03872
835.749	3.00651
836.155	21.05218
836.561	-74.17142
836.966	9.0207
837.372	-2.00482
837.777	-7.01646
838.183	-33.06712
838.588	36.08488
838.993	-14.03188
839.399	-12.02772
839.804	8.01872
840.209	9.02204
840.613	14.02944
841.018	-15.03576
841.423	-3.00724
841.828	-1.0024
842.232	-7.0161
842.637	-34.07469
843.041	14.03479
843.445	-16.03781
843.849	13.03047
844.253	1.00221
844.657	-19.04618
845.061	11.0234
845.465	68.15727
845.869	20.04321
846.272	-24.05562
846.676	28.06388
847.079	37.08986
847.483	39.09118
847.886	-25.05654
848.289	21.05453
848.692	-22.05302
849.095	-37.08334
849.498	-8.01881
849.901	-4.00851
850.304	14.03114
850.707	6.01448
851.109	-26.06133
851.512	33.07707
851.914	61.14809
852.316	10.02411
852.718	12.02995
853.121	-6.01395
853.523	-36.07945
853.925	-10.02504
854.326	7.01685
854.728	22.05372
855.13	16.03965
855.531	68.15439
855.933	-4.00902
856.334	-4.00954
856.736	-38.07953
857.137	-23.05056
857.538	-12.02877
857.939	-15.03557
858.34	-11.02516
858.741	-10.02495
859.142	57.12818
859.542	54.1383
859.943	7.01664
860.343	25.05896
860.744	-28.06527
861.144	-3.00692
861.544	20.04611
861.945	-42.10179
862.345	-49.112
862.745	-11.02598
863.145	-15.03304
863.544	26.06299
863.944	17.03746
864.344	4.00925
864.743	40.09321
865.143	3.00733
865.542	48.10295
865.941	26.06135
866.34	-18.04085
866.74	14.03588
867.139	17.03862
867.537	-7.01684
867.936	11.02506
868.335	60.14487
868.734	41.10024
869.132	43.09388
869.531	22.04979
869.929	48.10291
870.327	6.01355
870.726	7.01642
871.124	16.0346
871.522	-31.07466
871.92	5.01162
872.318	30.06914
872.715	43.09919
873.113	22.05062
873.511	-1.00237
873.908	27.06628
874.306	15.03544
874.703	-27.06419
875.1	-9.02173
875.497	-6.01347
875.894	5.01183
876.291	22.05131
876.688	-30.07393
877.085	6.01346
877.482	-15.03535
877.878	-5.01142
878.275	-25.06035
878.671	-38.07689
879.068	18.04069
879.464	24.05467
879.86	-27.06144
880.256	-2.00459
880.652	-10.02417
881.048	-25.05802
881.444	-35.07761
881.84	-20.04816
882.236	22.05237
882.631	-2.00466
883.027	-40.09034
883.422	2.00485
883.817	5.0121
884.213	-12.02944
884.608	-3.00706
885.003	45.1019
885.398	-3.00713
885.793	-48.11462
886.188	43.10199
886.582	-46.11056
886.977	31.06854
887.371	-8.01919
887.766	5.01191
888.16	14.03306
888.554	28.06417
888.949	8.01867
889.343	-4.00908
889.737	13.03373
890.131	-1.00239
890.525	-5.01212
890.918	36.08626
891.312	-25.05534
891.706	44.11039
892.099	-9.02167
892.492	14.02796
892.886	-45.10414
893.279	-28.06822
893.672	-2.00486
894.065	11.0259
894.458	2.00475
894.851	0
895.244	-39.0956
895.637	18.04085
896.029	-5.01156
896.422	-5.01147
896.814	15.0353
897.206	14.03177
897.599	-15.03424
897.991	-23.05295
898.383	2.00442
898.775	-19.04006
899.167	26.05745
899.559	-16.03827
899.951	-34.07553
900.342	-20.04747
900.734	27.06483
901.125	-30.07461
901.517	38.0881
901.908	3.00668
902.299	9.02088
902.69	16.03544
903.082	-15.0343
903.473	19.04331
903.863	1.00245
904.254	2.00433
904.645	6.01386
905.036	37.08556
905.426	-42.08755
905.817	-1.00232
906.207	-14.03174
906.597	4.00883
906.987	-41.10028
907.378	-23.05504
907.768	13.03291
908.158	16.03683
908.547	-11.02724
908.937	-31.0756
909.327	11.02498
909.717	16.03794
910.106	17.03836
910.495	76.17815
910.885	-29.06868
911.274	47.11092
911.663	29.07016
912.052	-8.01847
912.441	27.0656
912.83	-26.05579
913.219	8.01964
913.608	25.05744
913.997	-19.04531
914.385	3.00664
914.774	17.03868
915.162	-43.0967
915.55	13.02956
915.939	-27.06537
916.327	-1.00236
916.715	4.00979
917.103	-2.0046
917.491	-10.02302
917.878	-15.03423
918.266	-15.03703
918.654	37.09043
919.041	13.03234
919.429	-23.05155
919.816	37.08773
920.203	1.00229
920.591	15.03474
920.978	-8.01844
921.365	-17.04243
921.752	21.04717
922.139	56.11237
922.525	18.04055
922.912	-6.01374
923.299	62.14499
923.685	9.02236
924.072	-13.0277
924.458	-14.03293
924.844	-30.07051
925.231	-51.11153
925.617	8.01967
926.003	9.02179
926.389	28.06737
926.774	9.02172
927.16	11.02561
927.546	19.04618
927.931	32.07501
928.317	-16.03383
928.702	-7.0154
929.088	6.0134
929.473	-17.04127
929.858	-3.007
930.243	10.02275
930.628	-14.03208
931.013	33.07803
931.398	8.01695
931.783	-11.02763
932.167	1.00229
932.552	-20.04684
932.937	-17.03925
933.321	-42.10014
933.705	50.1199
934.09	-12.02827
934.474	8.01777
934.858	40.09858
935.242	35.07687
935.626	11.02655
936.009	23.05813
936.393	72.17338
936.777	-3.00738
937.16	-58.1431
937.544	28.06114
937.927	7.01691
938.311	55.12384
938.694	34.08512
939.077	-45.10136
939.46	60.13783
939.843	8.01504
940.226	-19.04616
940.609	-15.03211
940.991	-10.02421
941.374	-11.02525
941.757	33.0761
942.139	-48.10055
942.522	-7.01528
942.904	29.06546
943.286	-1.00238
943.668	9.02211
944.05	-13.03029
944.432	54.12519
944.814	-3.0069
945.196	-34.07998
945.578	19.04299
945.959	-22.04871
946.341	-37.08426
946.722	8.01766
947.104	-12.02676
947.485	-22.048
947.866	19.04569
948.247	-14.03361
948.628	-8.01825
949.009	-15.03676
949.39	-51.11849
949.771	-23.04981
950.152	9.02095
950.532	35.08375
950.913	-33.07439
951.293	31.0806
951.674	-6.01355
952.054	3.00706
952.434	-50.11729
952.814	-29.06388
953.194	57.14097
953.574	-34.07817
953.954	-23.05157
954.334	41.0965
954.714	-6.01387
955.093	-24.05504
955.473	-43.10172
955.853	15.03701
956.232	7.01837
956.611	-30.06651
956.99	7.01673
957.37	-30.07293
957.749	-24.05341
958.128	-9.02179
958.506	7.01744
958.885	-29.06932
959.264	20.0462
959.643	48.10117
960.021	-5.01175
960.4	53.11272
960.778	-33.07549
961.156	4.00948
961.535	-22.04692
961.913	-53.11458
962.291	-17.04221
962.669	-26.06301
963.047	-48.11559
963.424	3.0073
963.802	-14.03219
964.18	-16.03811
964.557	-13.02752
964.935	56.12234
965.312	13.0324
965.69	-43.10192
966.067	7.01588
966.444	6.01391
966.821	-5.01217
967.198	-61.13842
967.575	-14.03212
967.952	28.06151
968.329	1.00228
968.705	-20.03906
969.082	27.06599
969.458	-21.04837
969.835	2.00457
970.211	6.01463
970.587	24.05619
970.963	-4.00972
971.339	3.00753
971.715	-23.05352
972.091	61.13943
972.467	-59.13789
972.843	7.01641
973.219	10.0221
973.594	-30.07529
973.97	26.0568
974.345	-2.00449
974.721	41.09186
975.096	-49.11141
975.471	24.05334
975.846	48.10832
976.221	-3.00724
976.596	12.02701
976.971	49.11308
977.346	-54.11697
977.72	-14.03382
978.095	36.08813
978.469	31.0692
978.844	-10.02373
979.218	18.04089
979.593	49.10938
979.967	27.06206
980.341	7.01491
980.715	-34.08107
981.089	-46.1085
981.463	54.11612
981.837	21.04866
982.21	40.08531
982.584	-33.075
982.957	9.02143
983.331	62.13562
983.704	2.00467
984.078	-36.08372
984.451	-45.10389
984.824	13.03007
985.197	27.06112
985.57	-46.10879
985.943	-15.03419
986.316	34.07801
986.688	-15.0339
987.061	15.0324
987.434	23.05692
987.806	17.03837
988.179	-22.04851
988.551	2.00476
988.923	-24.05577
989.295	61.14167
989.667	16.0367
990.039	44.10241
990.411	3.00652
990.783	53.11188
991.155	-5.01153
991.527	-9.02039
991.898	-30.07051
992.27	12.02804
992.641	21.04923
993.012	38.08375
993.384	-2.00448
993.755	-44.1066
994.126	27.06087
994.497	-28.06509
994.868	89.18805
995.239	58.13163
995.61	-39.09322
995.98	4.00925
996.351	6.01415
996.722	8.01751
997.092	12.02696
997.462	-32.07156
997.833	20.04399
998.203	12.02708
998.573	5.01186
998.943	-27.05885
999.313	-1.00227
999.683	-76.17214
1000.053	9.01942
1000.423	6.01371
1000.792	17.04184
1001.162	-6.01405
1001.531	3.00702
1001.901	-24.05643
1002.27	-12.02519
1002.639	-9.02195
1003.009	41.09224
1003.378	5.01215
1003.747	-2.00441
1004.116	-6.01361
1004.485	4.00904
1004.853	-13.03129
1005.222	45.10777
1005.591	-3.00662
1005.959	57.12028
1006.328	-28.05881
1006.696	8.01829
1007.064	35.08286
1007.433	38.08963
1007.801	6.01373
1008.169	-21.04995
1008.537	45.09203
1008.905	-3.00659
1009.273	15.03478
1009.64	-12.02717
1010.008	-28.06277
1010.375	39.08806
1010.743	14.02928
1011.11	-46.10351
1011.478	-9.02099
1011.845	-12.026
1012.212	-13.02718
1012.579	-7.01628
1012.946	-16.03518
1013.313	2.00444
1013.68	20.04125
1014.047	17.03859
1014.414	16.03574
1014.78	10.0237
1015.147	16.03562
1015.513	39.08925
1015.88	-24.05746
1016.246	47.10868
1016.612	22.04617
1016.978	-2.0046
1017.344	61.1424
1017.71	-62.14054
1018.076	22.04816
1018.442	1.00243
1018.808	-1.00237
1019.174	-8.01888
1019.539	-4.0083
1019.905	4.00891
1020.27	6.01412
1020.636	13.02909
1021.001	-34.07632
1021.366	46.10512
1021.731	52.12631
1022.096	23.05533
1022.461	-48.1061
1022.826	26.05779
1023.191	12.02995
1023.556	-26.05642
1023.92	-13.02979
1024.285	-29.06663
1024.649	34.07801
1025.014	0
1025.378	74.17569
1025.742	-7.01641
1026.107	-15.03123
1026.471	-13.02773
1026.835	-59.13789
1027.199	-23.0527
1027.562	50.10831
1027.926	2.00458
1028.29	14.03359
1028.654	7.01482
1029.017	25.05785
1029.381	48.1073
1029.744	12.02918
1030.107	-45.09854
1030.471	-31.06977
1030.834	-26.0543
1031.197	-17.03789
1031.56	40.08883
1031.923	-45.11125
1032.286	26.05632
1032.648	65.14263
1033.011	-15.03237
1033.374	15.03232
1033.736	-16.04016
1034.099	-5.01156
1034.461	22.05298
1034.823	-14.03283
1035.185	4.00935
1035.548	-18.04125
1035.91	17.03845
1036.272	1.00212
1036.634	2.00453
1036.995	61.13408
1037.357	-11.02533
1037.719	14.03188
1038.08	-22.04814
1038.442	54.12171
1038.803	-42.09466
1039.165	21.05006
1039.526	-30.06864
1039.887	45.10099
1040.248	29.06868
1040.609	30.06927
1040.97	11.02521
1041.331	-61.14502
1041.692	3.00662
1042.053	6.01255
1042.413	-9.01936
1042.774	21.04752
1043.134	-13.02867
1043.495	-3.00707
1043.855	30.06809
1044.215	42.09714
1044.576	7.01585
1044.936	57.12107
1045.296	45.10435
1045.656	-8.0185
1046.016	-36.08094
1046.375	7.01611
1046.735	2.00429
1047.095	51.11073
1047.454	64.12261
1047.814	12.02678
1048.173	10.02186
1048.533	5.01075
1048.892	-29.06647
1049.251	31.07305
1049.61	-35.08071
1049.969	23.051
1050.328	-75.15047
1050.687	-33.07582
1051.046	-7.01621
1051.405	-31.07208
1051.763	-15.03253
1052.122	5.01191
1052.48	-50.11573
1052.839	-16.03546
1053.197	22.04837
1053.555	-52.10705
1053.914	24.05467
1054.272	26.05843
1054.63	-80.18583
1054.988	-32.07156
1055.345	20.039
1055.703	-18.04034
1056.061	-22.05398
1056.419	12.02962
1056.776	-13.02952
1057.134	11.02364
1057.491	-10.02361
1057.848	-15.03506
1058.206	-39.08634
1058.563	49.10035
1058.92	-18.03834
1059.277	-55.12657
1059.634	-43.09316
1059.991	56.12503
1060.348	2.00426
1060.704	-3.00674
1061.061	4.00843
1061.418	-27.06241
1061.774	52.12179
1062.131	34.08726
1062.487	-32.06982
1062.843	-9.02117
1063.199	26.06116
1063.555	-2.00437
1063.911	-6.01427
1064.267	-22.04107
1064.623	-37.0863
1064.979	19.04069
1065.335	-44.09751
1065.691	76.1701
1066.046	-38.07717
1066.402	-18.03821
1066.757	-22.05282
1067.112	-33.0757
1067.468	36.08071
1067.823	43.09654
1068.178	4.00915
1068.533	49.10942
1068.888	-48.10717
1069.243	-10.02345
1069.598	-43.09729
1069.952	-14.03009
1070.307	-9.02146
1070.662	-13.02915
1071.016	33.06914
1071.371	-19.04022
1071.725	-23.05026
1072.079	-58.13212
1072.434	-21.0481
1072.788	22.04932
1073.142	108.2473
1073.496	12.02665
1073.85	-27.05862
1074.203	16.03617
1074.557	8.02042
1074.911	28.06138
1075.265	-4.00856
1075.618	12.02761
1075.971	3.00664
1076.325	-25.06051
1076.678	1.00213
1077.031	-29.0613
1077.385	60.12185
1077.738	16.03362
1078.091	5.01078
1078.444	-50.10775
1078.796	16.03717
1079.149	-62.14499
1079.502	-50.11219
1079.855	12.02627
1080.207	-2.00462
1080.56	-45.11117
1080.912	-35.07923
1081.264	4.00903
1081.617	19.04355
1081.969	18.04374
1082.321	-1.0023
1082.673	25.05377
1083.025	-38.08425
1083.377	-2.00388
1083.728	30.06343
1084.08	29.06847
1084.432	-61.13633
1084.783	79.17211
1085.135	34.08132
1085.486	-27.0586
1085.838	-32.07474
1086.189	-15.03431
1086.54	20.04456
1086.891	9.02185
1087.242	-35.07997
1087.593	-10.02268
1087.944	-15.03155
1088.295	-15.03139
1088.646	33.07485
1088.996	-55.12561
1089.347	-31.07148
1089.698	-28.06314
1090.048	-38.09348
1090.398	43.09285
1090.749	39.08713
1091.099	19.04559
1091.449	-12.02803
1091.799	9.02117
1092.149	25.05868
1092.499	1.00231
1092.849	-7.0169
1093.199	47.10941
1093.548	22.04981
1093.898	6.01421
1094.248	13.03156
1094.597	-2.00493
1094.947	-10.02543
1095.296	-24.05579
1095.645	-14.03448
1095.994	27.06092
1096.343	51.12172
1096.692	-9.02284
1097.041	-9.02356
1097.39	-8.0189
1097.739	5.0124
1098.088	-56.14261
1098.437	-49.12446
1098.785	24.06114
1099.134	-42.10541
1099.482	-34.08923
1099.83	-1.00249
1100.179	0
1100.527	-4.01005
1100.875	-72.18375
1101.223	35.0889
1101.571	-20.05352
1101.919	-36.09116
1102.267	-2.00549
1102.615	8.0257
1102.962	9.02886
1103.31	7.02247
1103.658	0
