Data from N3 R5 sample 8_Subt2__3__13-33-07-108.txt Node

Date: Thu Sep 18 13:33:07 PDT 2025
User: uwsun
Spectrometer: HDX01956
Trigger mode: 0
Integration Time (sec): 5.000000E-1
Scans to average: 1
Nonlinearity correction enabled: true
Boxcar width: 0
Storing dark spectrum: false
XAxis mode: Wavelengths
Number of Pixels in Spectrum: 2068
>>>>>Begin Spectral Data<<<<<
194.03	-7.02035
194.578	9.02924
195.127	7.02245
195.676	-7.02247
196.225	21.05531
196.773	18.05015
197.321	42.11654
197.87	50.1285
198.418	69.17848
198.966	54.14249
199.513	85.21582
200.061	8.02044
200.609	14.03709
201.156	-4.00871
201.704	33.08299
202.251	20.05325
202.798	43.11226
203.345	72.17725
203.892	4.01014
204.438	33.079
204.985	50.11917
205.532	115.30595
206.078	56.13735
206.624	55.13612
207.17	26.06042
207.716	22.05316
208.262	35.06876
208.808	43.10724
209.354	30.07323
209.899	24.06041
210.445	29.07308
210.99	75.18057
211.535	69.16088
212.08	62.14294
212.625	20.05016
213.17	40.1009
213.715	40.09023
214.259	92.2132
214.804	27.06631
215.348	53.12051
215.892	63.15099
216.436	53.12285
216.98	15.0329
217.524	49.11542
218.068	77.19203
218.612	12.02999
219.155	7.01651
219.698	43.10093
220.242	72.17698
220.785	61.14167
221.328	58.14373
221.871	59.14794
222.414	18.0441
222.956	47.11329
223.499	39.08709
224.041	9.0206
224.583	52.11004
225.126	87.19187
225.668	31.0752
226.21	25.06264
226.751	6.01294
227.293	45.10074
227.835	13.03154
228.376	70.15732
228.918	70.17416
229.459	66.16475
230	52.12241
230.541	16.03645
231.082	46.11069
231.622	45.10269
232.163	98.23572
232.704	28.06888
233.244	84.20503
233.784	69.16505
234.324	108.23554
234.864	-31.07026
235.404	23.05375
235.944	69.15936
236.484	11.02702
237.023	72.16837
237.563	61.13892
238.102	31.07262
238.641	54.13621
239.18	8.01882
239.719	86.2142
240.258	52.11456
240.797	76.18009
241.335	4.00962
241.874	109.20554
242.412	46.10892
242.95	48.1148
243.488	50.11288
244.026	65.14833
244.564	85.17069
245.102	37.08242
245.64	25.05962
246.177	51.11201
246.715	46.10783
247.252	50.112
247.789	-9.01591
248.326	29.0685
248.863	40.0862
249.4	84.18956
249.936	17.03459
250.473	88.20207
251.009	53.12129
251.546	59.12881
252.082	116.24977
252.618	102.22415
253.154	25.05971
253.69	75.16534
254.226	-7.01664
254.761	19.04176
255.297	34.07409
255.832	-4.0094
256.367	34.07892
256.903	57.12239
257.438	25.05758
257.972	25.0547
258.507	83.18941
259.042	10.02111
259.576	51.10894
260.111	39.08871
260.645	94.19961
261.179	26.05982
261.713	20.04386
262.247	73.16746
262.781	51.10639
263.315	55.13332
263.849	46.11395
264.382	39.08806
264.915	73.16967
265.449	51.12376
265.982	30.0667
266.515	78.18733
267.048	45.0947
267.58	27.05735
268.113	54.11612
268.646	51.12576
269.178	14.03117
269.71	27.05807
270.243	63.14144
270.775	53.13361
271.307	4.00945
271.838	69.15981
272.37	44.10772
272.902	110.2458
273.433	57.12186
273.965	71.17249
274.496	0
275.027	37.09053
275.558	40.09599
276.089	75.18589
276.62	26.06537
277.15	65.15762
277.681	55.11524
278.211	36.08669
278.741	69.15141
279.272	43.09733
279.802	89.21905
280.332	78.18133
280.861	45.10719
281.391	44.09828
281.921	-2.00474
282.45	147.3618
282.98	62.16045
283.509	61.13504
284.038	16.03562
284.567	-15.03434
285.096	94.22344
285.625	100.22567
286.153	8.01864
286.682	25.05636
287.21	75.17755
287.739	45.10443
288.267	91.21768
288.795	84.21693
289.323	66.15458
289.851	52.11974
290.378	44.09795
290.906	119.284
291.433	80.19679
291.961	57.12655
292.488	85.20844
293.015	42.09907
293.542	89.22099
294.069	109.26243
294.596	81.19708
295.122	59.13941
295.649	95.20741
296.175	42.09945
296.702	35.08328
297.228	-9.02151
297.754	98.21491
298.28	36.08084
298.806	77.18377
299.332	33.07254
299.857	44.09799
300.383	44.10935
300.908	58.14088
301.433	141.33586
301.958	62.13866
302.483	95.23675
303.008	53.12862
303.533	20.05095
304.058	47.10924
304.582	73.17068
305.107	107.27657
305.631	96.21247
306.155	98.22665
306.679	73.16907
307.203	75.17225
307.727	90.21154
308.251	105.25385
308.775	84.19613
309.298	95.22612
309.822	87.2161
310.345	104.24187
310.868	57.13489
311.391	81.19605
311.914	66.16415
312.437	63.14051
312.96	121.28035
313.482	98.22944
314.005	66.16409
314.527	88.22884
315.049	97.23954
315.571	165.36496
316.093	138.33633
316.615	114.27212
317.137	78.16578
317.659	96.22634
318.18	112.26571
318.702	103.23599
319.223	119.23852
319.744	161.35254
320.265	75.18077
320.786	107.26102
321.307	110.27059
321.828	166.36801
322.348	130.30138
322.869	78.17904
323.389	411.69693
323.909	114.25715
324.43	128.29921
324.95	134.30177
325.47	151.3645
325.989	170.39754
326.509	103.22459
327.029	113.25057
327.548	111.24706
328.067	98.23294
328.587	185.44859
329.106	74.16604
329.625	122.30893
330.144	134.29942
330.662	140.31774
331.181	159.36356
331.7	152.34651
332.218	202.42651
332.736	126.28666
333.255	118.26976
333.773	174.40146
334.291	151.36354
334.808	132.28568
335.326	170.3739
335.844	190.43383
336.361	202.49505
336.879	176.3983
337.396	165.38305
337.913	167.37139
338.43	198.43566
338.947	220.50576
339.464	202.41753
339.981	186.43068
340.497	207.49495
341.014	164.38591
341.53	219.48156
342.046	209.49782
342.562	224.53753
343.078	206.46657
343.594	220.51001
344.11	237.5395
344.626	241.58722
345.141	233.51493
345.657	227.48781
346.172	204.47255
346.687	174.39024
347.202	213.46128
347.717	201.46532
348.232	276.66079
348.747	200.44468
349.261	274.58259
349.776	210.47311
350.29	233.55753
350.805	231.54409
351.319	278.61834
351.833	275.5996
352.347	200.44689
352.861	227.50984
353.374	263.57174
353.888	273.6237
354.401	303.65757
354.915	317.67592
355.428	290.68926
355.941	301.66741
356.454	323.68064
356.967	289.65147
357.48	294.63709
357.993	272.63753
358.505	299.70285
359.018	258.59596
359.53	280.63905
360.042	269.55813
360.554	267.61294
361.066	301.69153
361.578	312.64691
362.09	306.69021
362.602	275.57618
363.113	264.5733
363.625	352.74842
364.136	291.60404
364.647	266.59141
365.158	338.7421
365.669	389.88186
366.18	287.62524
366.691	355.73063
367.201	376.83038
367.712	391.81052
368.222	365.79109
368.733	372.75855
369.243	328.67096
369.753	404.85523
370.263	362.79713
370.773	393.90393
371.282	335.74402
371.792	382.80761
372.301	409.91701
372.811	372.90411
373.32	379.74208
373.829	394.86904
374.338	415.84758
374.847	434.90588
375.356	463.01003
375.865	541.01862
376.373	524.06329
376.882	538.22315
377.39	527.14456
377.898	558.24204
378.407	526.04305
378.915	577.08494
379.423	650.33924
379.93	642.25395
380.438	720.5182
380.946	704.4149
381.453	709.46064
381.96	768.54158
382.468	819.6301
382.975	882.79346
383.482	882.6155
383.989	930.96479
384.495	994.82293
385.002	1054.69734
385.509	1069.93775
386.015	1173.73818
386.521	1087.84914
387.028	1271.09773
387.534	1318.00403
388.04	1364.30103
388.546	1352.09623
389.051	1427.12853
389.557	1523.38229
390.063	1704.52802
390.568	1691.58598
391.073	1761.44052
391.578	1877.74307
392.084	1859.39924
392.589	1995.41679
393.093	2100.70745
393.598	2345.6179
394.103	2558.85395
394.607	2804.79992
395.112	2969.96589
395.616	3169.78317
396.12	3523.38302
396.624	3880.26147
397.128	4063.28395
397.632	4677.69787
398.136	5078.44509
398.639	5391.40681
399.143	5968.37968
399.646	6729.92527
400.15	7583.23372
400.653	8437.27249
401.156	9303.33093
401.659	10881.2522
402.162	13442.4088
402.664	17899.8215
403.167	25614.38939
403.67	50711.80899
404.172	53992.58545
404.674	37291.05854
405.176	4428.40989
405.678	533.47942
406.18	0
406.682	0
407.184	6962.89417
407.686	50953.82939
408.187	59237.6763
408.688	45786.7524
409.19	31592.9036
409.691	25187.35433
410.192	20989.09943
410.693	18179.84629
411.194	16575.54813
411.694	15477.80849
412.195	14134.26814
412.696	13014.8887
413.196	11983.43352
413.696	11692.91419
414.196	11651.70498
414.696	11363.83016
415.196	10711.75397
415.696	9688.62794
416.196	7956.55612
416.695	6145.94841
417.195	5318.43177
417.694	5111.6766
418.194	4721.06118
418.693	4461.71778
419.192	4308.07777
419.691	4293.09142
420.19	4083.24951
420.688	3913.57034
421.187	3874.51542
421.685	3524.43038
422.184	3222.61281
422.682	2763.41106
423.18	2423.6736
423.678	2181.58933
424.176	1974.52686
424.674	1814.2951
425.172	1812.54513
425.669	1688.67111
426.167	1572.34098
426.664	1423.17599
427.161	1280.04375
427.659	1234.20992
428.156	1154.75389
428.652	1075.08543
429.149	962.82694
429.646	939.58201
430.143	899.71745
430.639	886.67014
431.135	760.55005
431.632	754.40701
432.128	753.50761
432.624	646.4019
433.12	735.39148
433.616	654.19174
434.111	685.38078
434.607	562.16339
435.103	584.02308
435.598	548.9639
436.093	544.09037
436.588	531.03408
437.083	515.00715
437.578	470.94139
438.073	416.92292
438.568	431.93809
439.062	444.8338
439.557	387.81011
440.051	383.77974
440.546	427.8705
441.04	309.66601
441.534	417.95452
442.028	323.70694
442.522	335.73567
443.015	303.60339
443.509	361.80542
444.002	323.72602
444.496	236.46854
444.989	318.71786
445.482	315.71616
445.975	271.57207
446.468	292.57431
446.961	222.43642
447.454	252.5183
447.947	287.6369
448.439	341.76458
448.931	270.56258
449.424	229.52929
449.916	260.57639
450.408	242.51702
450.9	201.45645
451.392	218.51796
451.884	172.36556
452.375	194.44867
452.867	189.39793
453.358	180.37873
453.849	213.41863
454.341	243.50779
454.832	253.50288
455.323	238.54101
455.814	153.32922
456.304	182.39103
456.795	135.28849
457.285	164.33822
457.776	173.36103
458.266	211.47176
458.756	153.34209
459.247	172.3829
459.737	208.46841
460.226	205.42952
460.716	193.43366
461.206	147.32881
461.695	217.51012
462.185	183.40714
462.674	166.35358
463.163	146.3011
463.653	137.27205
464.142	171.3847
464.63	146.33619
465.119	173.37962
465.608	146.31531
466.096	155.31786
466.585	125.26851
467.073	106.23833
467.561	171.39289
468.05	120.26116
468.538	197.45859
469.026	143.32579
469.513	125.24857
470.001	128.27383
470.489	103.23182
470.976	126.27503
471.463	126.30099
471.951	173.40685
472.438	118.26411
472.925	76.16835
473.412	99.2291
473.899	175.37818
474.385	90.21113
474.872	51.11398
475.359	126.29211
475.845	158.30606
476.331	129.26096
476.817	64.14802
477.303	99.21879
477.789	92.21117
478.275	75.1792
478.761	107.24407
479.247	80.16973
479.732	145.34525
480.218	87.21713
480.703	151.36009
481.188	80.16246
481.673	95.20829
482.158	111.2265
482.643	62.15161
483.128	17.03737
483.612	41.0919
484.097	76.17787
484.581	-2.00444
485.066	48.11181
485.55	64.1333
486.034	91.18999
486.518	79.17831
487.002	59.13935
487.486	48.11326
487.969	80.19031
488.453	90.21861
488.936	75.16104
489.42	27.05787
489.903	85.2055
490.386	17.03545
490.869	20.0413
491.352	39.09144
491.835	13.02562
492.318	67.14622
492.8	10.01981
493.283	74.18264
493.765	45.10768
494.247	15.03361
494.73	15.03211
495.212	42.09745
495.694	9.02046
496.175	1.00232
496.657	75.17308
497.139	-25.04034
497.62	30.06958
498.102	32.07747
498.583	7.01685
499.064	70.15208
499.545	13.02874
500.026	1.00218
500.507	24.05332
500.988	-19.04571
501.469	17.04113
501.949	20.04745
502.43	16.03684
502.91	-2.004
503.39	-6.01462
503.87	-1.0023
504.35	-31.07069
504.83	-16.03427
505.31	27.06382
505.79	21.04881
506.269	-18.04077
506.749	-24.05352
507.228	-7.01604
507.707	34.07267
508.187	-4.00922
508.666	-29.06945
509.145	-25.05719
509.623	12.02732
510.102	-17.04009
510.581	14.03247
511.059	26.06403
511.538	-37.09368
512.016	37.0862
512.494	4.00937
512.972	-25.0588
513.45	-1.00229
513.928	0
514.406	39.09326
514.884	5.01274
515.361	24.05645
515.839	-22.04888
516.316	-3.00699
516.793	-34.08425
517.27	10.02373
517.747	-28.07078
518.224	-18.04049
518.701	-2.00436
519.178	25.06153
519.654	-62.1422
520.131	-24.05762
520.607	-15.03639
521.083	4.00896
521.56	-45.1041
522.036	2.00429
522.512	8.0192
522.987	13.03048
523.463	-26.06094
523.939	24.05714
524.414	-6.0134
524.89	-41.09492
525.365	-7.01566
525.84	-16.03834
526.315	-32.07519
526.79	-19.04157
527.265	-32.07065
527.74	-49.11748
528.215	3.00693
528.689	21.04585
529.164	-39.08135
529.638	-20.05059
530.112	7.01633
530.587	4.00844
531.061	8.01894
531.534	-24.05661
532.008	10.02358
532.482	-42.09269
532.956	-3.00761
533.429	-93.21787
533.903	34.07195
534.376	-53.11503
534.849	22.04979
535.322	2.00461
535.795	-19.0455
536.268	-27.06424
536.741	-28.06592
537.213	-10.02269
537.686	-54.129
538.158	-49.10861
538.631	-22.05199
539.103	-33.07269
539.575	-20.0406
540.047	29.06154
540.519	-44.10253
540.991	-20.04749
541.463	-16.03816
541.934	11.0246
542.406	-40.09424
542.877	-25.05518
543.348	-47.10894
543.82	1.00239
544.291	-57.12897
544.762	-39.09086
545.233	50.123
545.703	-20.0436
546.174	-14.03207
546.645	7.01669
547.115	-1.00236
547.585	25.05668
548.056	18.04323
548.526	10.02305
548.996	14.0328
549.466	16.03778
549.935	-26.06166
550.405	41.08819
550.875	-74.17325
551.344	6.01421
551.814	-21.04657
552.283	7.01471
552.752	-52.11941
553.221	-64.13786
553.69	24.05212
554.159	14.0342
554.628	-40.08813
555.096	4.00992
555.565	-17.03705
556.033	-22.05058
556.502	-6.01418
556.97	-8.01724
557.438	23.05304
557.906	-19.04416
558.374	-23.0517
558.842	15.03503
559.31	-14.03042
559.777	34.08038
560.245	-24.05456
560.712	-70.15745
561.18	-20.04314
561.647	-31.06768
562.114	-57.1285
562.581	-18.04372
563.048	-14.0311
563.514	6.01448
563.981	-38.08509
564.448	-15.03308
564.914	-20.04543
565.381	-34.07478
565.847	-5.01137
566.313	-19.04313
566.779	36.07955
567.245	-7.01604
567.711	5.0118
568.176	52.1161
568.642	20.04936
569.108	6.01444
569.573	-14.03181
570.038	5.01033
570.504	-15.03347
570.969	27.06569
571.434	-2.00434
571.899	52.12065
572.363	6.01331
572.828	22.04851
573.293	55.12226
573.757	59.13203
574.222	51.11191
574.686	-4.00886
575.15	8.0187
575.614	28.06233
576.078	40.091
576.542	34.07569
577.006	20.04438
577.469	-28.06755
577.933	-13.02835
578.396	65.15132
578.86	0
579.323	2.00467
579.786	14.02931
580.249	11.02458
580.712	-36.086
581.175	-5.01211
581.637	44.09925
582.1	23.04866
582.563	-64.13163
583.025	4.0095
583.487	-26.05118
583.95	-52.11095
584.412	18.03635
584.874	-14.03323
585.336	-13.03032
585.797	-39.08266
586.259	-46.10478
586.721	-8.01842
587.182	-2.00448
587.643	34.07462
588.105	11.02549
588.566	21.04285
589.027	17.04042
589.488	-34.07572
589.949	-3.00702
590.41	73.13813
590.87	-7.01524
591.331	31.06346
591.791	-14.03115
592.252	14.03118
592.712	50.11578
593.172	13.02843
593.632	35.07168
594.092	31.06671
594.552	49.10049
595.011	89.19735
595.471	106.22519
595.931	92.19494
596.39	127.29016
596.849	79.17562
597.308	105.21484
597.768	93.22721
598.227	124.28428
598.685	133.28311
599.144	130.28748
599.603	132.29593
600.062	100.19761
600.52	213.44273
600.978	190.4256
601.437	235.49456
601.895	217.42428
602.353	207.41989
602.811	255.51797
603.269	308.66884
603.727	304.66606
604.184	359.72788
604.642	307.68525
605.099	390.80429
605.557	377.81605
606.014	455.85172
606.471	429.97211
606.928	486.94823
607.385	484.06105
607.842	501.01399
608.299	547.09564
608.755	502.0566
609.212	634.19322
609.668	570.08781
610.125	643.30372
610.581	615.20652
611.037	644.22158
611.493	628.24164
611.949	673.36588
612.405	675.1158
612.861	674.29477
613.316	769.52407
613.772	763.43122
614.227	728.42288
614.683	827.39883
615.138	778.51358
615.593	645.24463
616.048	689.28073
616.503	783.57715
616.958	746.55795
617.412	742.44549
617.867	737.3518
618.321	677.10614
618.776	738.32138
619.23	751.46409
619.684	663.22498
620.138	714.32565
620.592	643.31144
621.046	714.37109
621.5	639.30681
621.954	587.10324
622.407	650.19342
622.861	544.11903
623.314	614.17478
623.768	592.17418
624.221	590.96958
624.674	507.9946
625.127	545.09314
625.58	483.92471
626.033	482.89849
626.485	497.0293
626.938	520.05804
627.39	483.97705
627.843	429.86186
628.295	440.89272
628.747	456.94968
629.199	454.91103
629.651	381.77108
630.103	386.79032
630.555	371.68313
631.006	409.84555
631.458	351.72761
631.909	431.85629
632.361	356.73088
632.812	350.72634
633.263	334.63122
633.714	300.56363
634.165	287.61754
634.616	310.66028
635.067	274.53789
635.518	286.60705
635.968	281.49818
636.419	303.57895
636.869	273.58363
637.319	276.57764
637.769	290.58893
638.219	249.53255
638.669	289.62933
639.119	274.6054
639.569	310.68493
640.019	291.60377
640.468	238.47538
640.918	295.64048
641.367	291.59028
641.816	316.63587
642.265	273.57301
642.714	310.65167
643.163	241.49758
643.612	264.5894
644.061	264.49941
644.51	272.56675
644.958	301.59522
645.406	329.71459
645.855	273.60911
646.303	320.66765
646.751	353.7239
647.199	310.62149
647.647	361.75235
648.095	311.63864
648.543	311.55424
648.99	273.59953
649.438	341.72015
649.885	351.79088
650.333	338.56147
650.78	381.83984
651.227	319.70997
651.674	323.66478
652.121	255.56095
652.568	268.59759
653.015	280.63466
653.461	283.61391
653.908	323.67585
654.354	299.63727
654.801	233.50523
655.247	250.49564
655.693	285.68532
656.139	283.61705
656.585	245.54212
657.031	300.64343
657.477	236.47029
657.922	259.55058
658.368	241.54528
658.813	227.47183
659.259	226.50415
659.704	239.51714
660.149	226.48535
660.594	284.61647
661.039	218.46171
661.484	235.51761
661.929	200.43192
662.373	201.48115
662.818	202.47199
663.262	194.43331
663.707	200.47099
664.151	253.57755
664.595	183.41372
665.039	145.33821
665.483	213.51143
665.927	204.44188
666.371	197.42882
666.814	181.40219
667.258	198.44242
667.701	178.34794
668.145	179.41472
668.588	182.41992
669.031	180.40005
669.474	166.37399
669.917	161.32942
670.36	204.4688
670.803	203.45332
671.245	144.28028
671.688	202.45602
672.13	133.27879
672.573	204.48694
673.015	147.33044
673.457	183.37274
673.899	158.35684
674.341	141.31994
674.783	186.41956
675.225	189.43372
675.666	134.30622
676.108	183.37002
676.549	190.41595
676.991	146.29893
677.432	107.19631
677.873	132.28556
678.314	182.40415
678.755	197.45008
679.196	135.29286
679.637	118.26976
680.078	123.26979
680.518	118.25342
680.959	141.31708
681.399	117.27258
681.839	146.33364
682.28	154.36027
682.72	89.19192
683.16	145.34194
683.6	172.36349
684.039	173.32975
684.479	100.23385
684.919	130.28592
685.358	146.3473
685.798	81.20201
686.237	152.34301
686.676	158.34049
687.115	148.32551
687.554	116.25963
687.993	107.21824
688.432	160.3448
688.871	130.27654
689.309	199.45429
689.748	146.28228
690.186	96.21434
690.625	160.35752
691.063	156.35491
691.501	152.35405
691.939	172.40269
692.377	155.35613
692.815	129.29497
693.253	113.25307
693.69	176.35709
694.128	133.30803
694.565	153.34294
695.003	161.38614
695.44	121.26663
695.877	165.3645
696.314	191.37539
696.751	141.29765
697.188	217.46271
697.625	161.33913
698.061	125.28329
698.498	172.3875
698.934	129.28938
699.371	146.32475
699.807	186.41012
700.243	188.42719
700.679	177.37102
701.115	191.4124
701.551	175.38643
701.987	197.40217
702.422	176.38823
702.858	166.36556
703.294	190.39343
703.729	221.50389
704.164	202.45509
704.599	140.28808
705.035	153.32029
705.47	179.41258
705.904	155.33524
706.339	180.3809
706.774	188.40496
707.209	141.30288
707.643	201.44737
708.078	146.33216
708.512	201.4784
708.946	192.42299
709.38	141.31005
709.814	190.39695
710.248	159.35682
710.682	196.43633
711.116	182.40919
711.549	159.38294
711.983	165.35076
712.416	181.39047
712.85	229.53182
713.283	195.42645
713.716	226.52018
714.149	196.4251
714.582	178.36941
715.015	195.44928
715.448	187.43137
715.881	194.37778
716.313	230.49777
716.746	228.49618
717.178	190.42122
717.61	237.55518
718.043	224.50919
718.475	225.49849
718.907	235.53733
719.339	231.478
719.77	224.49597
720.202	237.55061
720.634	231.52201
721.065	252.54235
721.497	223.50496
721.928	248.56282
722.359	254.57082
722.79	242.53023
723.221	201.46292
723.652	219.51603
724.083	256.51917
724.514	209.42899
724.945	206.44564
725.375	235.50043
725.806	190.42998
726.236	226.53241
726.666	263.55884
727.096	250.55538
727.526	289.67193
727.956	264.54127
728.386	233.51536
728.816	216.50728
729.246	265.59249
729.675	274.62132
730.105	257.57223
730.534	263.5564
730.964	210.48258
731.393	239.52995
731.822	308.71709
732.251	274.6392
732.68	228.47423
733.109	246.55579
733.537	269.58777
733.966	292.65298
734.395	284.58254
734.823	303.6003
735.251	237.52158
735.68	264.59767
736.108	284.64844
736.536	278.58929
736.964	233.48754
737.392	223.50722
737.82	224.48707
738.247	206.4464
738.675	287.60531
739.102	266.61395
739.53	286.66981
739.957	206.487
740.384	222.49297
740.811	241.563
741.238	230.50819
741.665	260.55355
742.092	222.47635
742.519	242.555
742.945	230.50181
743.372	277.62493
743.798	215.50896
744.225	233.50178
744.651	183.42214
745.077	244.5551
745.503	201.44551
745.929	250.54036
746.355	190.42508
746.781	215.48725
747.207	207.45135
747.632	186.42196
748.058	186.42333
748.483	194.40171
748.908	180.41315
749.334	192.43344
749.759	191.41045
750.184	159.34948
750.609	140.31722
751.033	172.36429
751.458	235.47909
751.883	209.47076
752.307	194.4256
752.732	170.4005
753.156	141.32357
753.58	161.34986
754.005	217.51112
754.429	117.251
754.853	189.43407
755.277	239.51692
755.7	163.37331
756.124	199.46179
756.548	179.39311
756.971	174.38928
757.394	160.38382
757.818	158.38262
758.241	148.34759
758.664	158.37584
759.087	175.36586
759.51	157.36231
759.933	141.31799
760.356	115.27635
760.778	180.41696
761.201	96.21398
761.623	101.22424
762.046	95.20398
762.468	180.39456
762.89	123.28283
763.312	121.27266
763.734	147.32962
764.156	169.38783
764.578	100.21078
765	145.32808
765.421	132.32099
765.843	141.34844
766.264	126.27969
766.686	134.31729
767.107	162.36856
767.528	148.35476
767.949	102.24394
768.37	85.19506
768.791	80.18031
769.212	113.27164
769.632	100.21698
770.053	100.24989
770.473	108.24631
770.894	52.12141
771.314	63.13918
771.734	101.21742
772.154	136.32724
772.575	98.21028
772.994	46.09866
773.414	52.11466
773.834	85.20177
774.254	60.13772
774.673	97.21948
775.093	108.25266
775.512	49.11542
775.931	118.28404
776.351	16.03761
776.77	54.12564
777.189	45.09999
777.607	121.29121
778.026	87.20572
778.445	54.13033
778.864	62.14975
779.282	19.04294
779.701	61.14569
780.119	43.10258
780.537	15.03563
780.955	40.09618
781.373	46.10753
781.791	54.11457
782.209	133.28397
782.627	75.18887
783.045	80.17159
783.462	11.02667
783.88	42.10431
784.297	53.12644
784.715	51.12682
785.132	56.12766
785.549	91.21726
785.966	13.03106
786.383	55.1289
786.8	62.13505
787.217	35.0781
787.633	24.05725
788.05	3.00655
788.466	20.04408
788.883	61.1492
789.299	17.0384
789.715	48.1111
790.131	58.13531
790.547	-3.00701
790.963	53.1244
791.379	0
791.795	75.15867
792.21	11.02421
792.626	43.09583
793.041	31.07197
793.457	13.03037
793.872	7.01564
794.287	75.17274
794.702	42.0971
795.117	-8.01885
795.532	16.03878
795.947	28.0628
796.362	29.06447
796.776	38.08045
797.191	6.01389
797.605	18.04098
798.02	70.16158
798.434	29.05966
798.848	-46.10812
799.262	58.13834
799.676	27.06154
800.09	13.03018
800.504	44.10039
800.918	0
801.331	33.08161
801.745	26.05581
802.158	6.01425
802.572	6.0137
802.985	5.01128
803.398	20.04502
803.811	-23.05623
804.224	39.09122
804.637	-49.10979
805.05	68.14648
805.462	18.04166
805.875	29.07324
806.288	22.05092
806.7	34.08091
807.112	-15.03293
807.525	70.16299
807.937	-27.06404
808.349	-28.06684
808.761	-4.0092
809.173	9.02039
809.584	0
809.996	-17.04
810.408	-39.09769
810.819	-3.00671
811.231	20.05077
811.642	48.11269
812.053	16.03676
812.464	36.08147
812.875	18.04397
813.286	-15.03685
813.697	7.01494
814.108	-43.09927
814.519	-42.08775
814.929	4.00959
815.34	-7.01608
815.75	-42.10267
816.16	-18.04194
816.571	-22.05494
816.981	-8.01755
817.391	24.05438
817.801	30.07167
818.211	37.08321
818.62	9.02043
819.03	16.03658
819.44	2.00496
819.849	44.10523
820.259	30.07312
820.668	21.04962
821.077	21.04966
821.486	7.0157
821.895	-26.05989
822.304	22.05575
822.713	-35.07835
823.122	-10.02397
823.531	-7.01581
823.939	6.01389
824.348	55.12586
824.756	-7.0166
825.164	-15.03565
825.573	23.05474
825.981	53.12363
826.389	-42.09953
826.797	10.02384
827.205	20.04303
827.612	-17.03956
828.02	2.00449
828.428	-22.05334
828.835	-7.01774
829.243	34.0756
829.65	4.00949
830.057	14.03252
830.464	23.05363
830.871	33.07372
831.278	-15.03405
831.685	4.00822
832.092	22.05116
832.499	-25.05101
832.905	37.08898
833.312	0
833.718	22.05149
834.124	14.03007
834.531	17.04032
834.937	-10.02423
835.343	17.03872
835.749	8.01733
836.155	1.00249
836.561	-29.06658
836.966	-7.01615
837.372	24.05757
837.777	-26.06137
838.183	-34.06917
838.588	55.1292
838.993	-7.01592
839.399	-5.01153
839.804	-60.14224
840.209	35.08529
840.613	0
841.018	9.02136
841.423	-18.04357
841.828	-20.04822
842.232	-27.06236
842.637	-35.0769
843.041	42.10385
843.445	-14.03307
843.849	-34.08041
844.253	15.03311
844.657	14.03382
845.061	44.09295
845.465	65.15042
845.869	10.02165
846.272	-12.02774
846.676	28.06388
847.079	11.02684
847.483	32.07492
847.886	-34.07704
848.289	18.04676
848.692	15.0359
849.095	-9.02016
849.498	22.05143
849.901	-12.02556
850.304	-11.0246
850.707	-30.07287
851.109	-12.02823
851.512	13.03048
851.914	7.01717
852.316	11.02651
852.718	-37.09318
853.121	2.00464
853.523	-51.1129
853.925	-17.04263
854.326	12.02886
854.728	13.0318
855.13	-25.06242
855.531	55.12521
855.933	12.02697
856.334	-13.03107
856.736	-24.05007
857.137	0
857.538	6.01433
857.939	0
858.34	28.06355
858.741	-3.00748
859.142	9.02044
859.542	56.14337
859.943	27.06394
860.343	-11.02612
860.744	4.00927
861.144	-16.03701
861.544	-11.02552
861.945	-29.07011
862.345	-31.0706
862.745	3.00707
863.145	-29.06406
863.544	53.12775
863.944	59.12887
864.344	-25.05813
864.743	29.06772
865.143	25.06085
865.542	4.00866
865.941	2.00474
866.34	67.14943
866.74	-1.00257
867.139	2.00456
867.537	-19.04581
867.936	30.06809
868.335	9.02194
868.734	63.1534
869.132	49.10684
869.531	5.01135
869.929	6.01298
870.327	7.01581
870.726	19.04446
871.124	25.05396
871.522	-35.08436
871.92	30.06938
872.318	4.00927
872.715	15.0348
873.113	-6.01388
873.511	-6.01422
873.908	26.06384
874.306	-14.03327
874.703	15.03537
875.1	4.00963
875.497	-69.15695
875.894	-1.00237
876.291	-1.00234
876.688	-35.08634
877.085	-4.00899
877.482	-54.12821
877.878	-10.02286
878.275	-30.07249
878.671	-40.08097
879.068	-11.02501
879.464	-13.02983
879.86	1.00226
880.256	-53.12299
880.652	-14.03387
881.048	-6.01387
881.444	-34.07538
881.84	-8.01922
882.236	6.01433
882.631	-2.00466
883.027	-24.05403
883.422	-24.05849
883.817	-18.04374
884.213	-3.00735
884.608	2.0047
885.003	-2.00457
885.398	-5.01188
885.793	-7.01658
886.188	25.05951
886.582	-17.04063
886.977	-19.04245
887.371	8.01913
887.766	-33.07918
888.16	6.01419
888.554	6.01381
888.949	-47.11088
889.343	-7.0159
889.737	2.0052
890.131	11.02627
890.525	-14.03398
890.918	24.05764
891.312	-40.08883
891.706	34.08545
892.099	28.06694
892.492	38.07548
892.886	-28.06458
893.279	11.0266
893.672	3.00729
894.065	-2.00472
894.458	-4.00952
894.851	-24.05474
895.244	-7.01706
895.637	50.11274
896.029	-8.0185
896.422	-30.06919
896.814	27.0634
897.206	-14.03195
897.599	-24.05489
897.991	5.01145
898.383	-28.06223
898.775	24.05012
899.167	9.01996
899.559	-1.00238
899.951	-18.03986
900.342	-34.08091
900.734	46.11006
901.125	-18.04467
901.517	25.05811
901.908	14.0311
902.299	-40.09369
902.69	6.01332
903.082	25.0567
903.473	5.01143
903.863	18.04405
904.254	-22.04784
904.645	-31.07214
905.036	27.06256
905.426	-51.10653
905.817	10.02312
906.207	-36.08197
906.597	5.01103
906.987	-36.08797
907.378	-1.00238
907.768	-1.00254
908.158	50.11431
908.547	-35.08707
908.937	-21.05111
909.327	-44.10104
909.717	-10.02383
910.106	20.0451
910.495	51.12013
910.885	-23.05441
911.274	9.0214
911.663	37.08939
912.052	2.00461
912.441	21.05108
912.83	-17.03641
913.219	-3.00738
913.608	55.12561
913.997	-30.07169
914.385	0
914.774	-11.02517
915.162	-35.07858
915.55	24.05445
915.939	-9.02172
916.327	0
916.715	21.05121
917.103	9.02065
917.491	-37.08563
917.878	-44.101
918.266	-17.04198
918.654	60.14601
919.041	-28.07017
919.429	9.02004
919.816	-39.09383
920.203	-26.05987
920.591	-22.05133
920.978	-35.08109
921.365	-28.07002
921.752	-14.03167
922.139	13.02635
922.525	-5.01132
922.912	-13.02982
923.299	-3.0071
923.685	14.03474
924.072	-12.02556
924.458	-14.03293
924.844	-16.0375
925.231	-43.09388
925.617	1.00246
926.003	-9.02187
926.389	8.01932
926.774	21.05056
927.16	7.01631
927.546	-26.06372
927.931	3.00707
928.317	-27.05722
928.702	20.04375
929.088	0
929.473	3.00726
929.858	32.07419
930.243	-41.09424
930.628	3.00685
931.013	35.08273
931.398	11.02329
931.783	15.0375
932.167	-45.10401
932.552	-50.1178
932.937	-13.02999
933.321	-27.06419
933.705	-9.02182
934.09	5.01174
934.474	-49.1101
934.858	-3.00745
935.242	7.01546
935.626	-15.03639
936.009	-48.12285
936.393	-12.02936
936.777	35.08548
937.16	-47.11572
937.544	9.01973
937.927	32.07694
938.311	12.02726
938.694	22.05519
939.077	-65.14701
939.46	61.1401
939.843	-1.00188
940.226	-24.05836
940.609	-27.05795
940.991	1.00242
941.374	-72.16732
941.757	-12.02792
942.139	-24.05001
942.522	1.00218
942.904	-15.03416
943.286	12.02852
943.668	-23.05684
944.05	-14.03262
944.432	31.0722
944.814	-44.10201
945.196	-19.04456
945.578	9.02041
945.959	60.13058
946.341	-30.06823
946.722	24.05281
947.104	-3.00668
947.485	17.03678
947.866	44.10531
948.247	-42.10137
948.628	-6.01368
949.009	-8.01958
949.39	-17.03923
949.771	-1.00216
950.152	-2.00467
950.532	47.11221
950.913	-1.00224
951.293	27.07025
951.674	-54.12315
952.054	-23.05439
952.434	-12.02794
952.814	-49.10838
953.194	2.005
953.574	-19.04355
953.954	26.05771
954.334	16.03784
954.714	-32.07436
955.093	-8.01829
955.473	-57.1352
955.853	17.04193
956.232	-8.02105
956.611	-30.06651
956.99	1.00239
957.37	-44.10724
957.749	-24.05341
958.128	-13.0315
958.506	9.02241
958.885	-22.05252
959.264	-41.09586
959.643	48.10117
960.021	5.01172
960.4	74.15666
960.778	-17.03876
961.156	-7.01663
961.535	-29.06195
961.913	-49.10585
962.291	13.0321
962.669	3.00723
963.047	-19.0455
963.424	18.04367
963.802	-40.09244
964.18	6.01423
964.557	-31.06587
964.935	-2.00442
965.312	-8.02001
965.69	10.02346
966.067	14.03172
966.444	64.14667
966.821	2.00486
967.198	-23.05179
967.575	-12.02752
967.952	27.05932
968.329	-8.01827
968.705	22.04253
969.082	49.11927
969.458	-20.04605
969.835	22.05007
970.211	18.0438
970.587	17.03986
970.963	2.00485
971.339	3.00753
971.715	-8.01856
972.091	-3.00695
972.467	-58.13553
972.843	-1.00235
973.219	-17.03778
973.594	-11.02751
973.97	-36.07968
974.345	-3.00674
974.721	-16.03627
975.096	-46.10453
975.471	30.06659
975.846	22.04991
976.221	-17.04116
976.596	-47.10708
976.971	62.14271
977.346	-12.02576
977.72	10.02404
978.095	29.07109
978.469	8.01794
978.844	-9.02136
979.218	-2.00456
979.593	42.09389
979.967	29.06663
980.341	18.03824
980.715	-16.03802
981.089	-26.06109
981.463	19.04117
981.837	-27.06315
982.21	-18.03887
982.584	-5.0113
982.957	24.05698
983.331	24.05292
983.704	-17.03987
984.078	-23.05335
984.451	6.01371
984.824	9.02084
985.197	21.04759
985.57	-36.08498
985.943	-3.00682
986.316	7.01615
986.688	10.02248
987.061	-14.03043
987.434	-20.04989
987.806	-2.00453
988.179	-41.09076
988.551	-2.00476
988.923	-22.0511
989.295	-13.03063
989.667	36.08224
990.039	12.02811
990.411	32.06911
990.783	12.02556
991.155	-39.0905
991.527	-9.02039
991.898	-41.09657
992.27	-16.03759
992.641	-15.03541
993.012	42.09249
993.384	17.03796
993.755	-58.14088
994.126	4.00906
994.497	-40.09321
994.868	20.0429
995.239	14.03206
995.61	-39.09322
995.98	24.05531
996.351	9.02122
996.722	35.07619
997.092	-13.02935
997.462	23.05085
997.833	17.03741
998.203	-22.04999
998.573	42.09895
998.943	12.02594
999.313	-13.02956
999.683	-61.13774
1000.053	21.04519
1000.423	5.01142
1000.792	38.09317
1001.162	-28.06584
1001.531	30.06985
1001.901	14.03268
1002.27	2.00419
1002.639	1.00243
1003.009	79.17634
1003.378	-12.02925
1003.747	3.00661
1004.116	0
1004.485	29.06519
1004.853	33.07873
1005.222	31.07444
1005.591	60.13058
1005.959	28.05946
1006.328	-21.04404
1006.696	6.01372
1007.064	15.03565
1007.433	60.14092
1007.801	22.05017
1008.169	-12.02849
1008.537	-3.0062
1008.905	24.05239
1009.273	34.07854
1009.64	4.00903
1010.008	15.03333
1010.375	38.08582
1010.743	-11.02313
1011.11	16.03555
1011.478	-2.00466
1011.845	-22.04778
1012.212	-39.082
1012.579	16.03705
1012.946	-18.03959
1013.313	22.04865
1013.68	-9.01868
1014.047	19.04311
1014.414	40.0889
1014.78	27.06377
1015.147	-9.02014
1015.513	32.07333
1015.88	-38.09123
1016.246	19.04418
1016.612	50.10428
1016.978	-22.05078
1017.344	23.05409
1017.71	-9.02018
1018.076	2.0044
1018.442	-25.06096
1018.808	1.00237
1019.174	-25.05918
1019.539	12.02481
1019.905	15.03333
1020.27	31.07259
1020.636	7.01568
1021.001	-8.01786
1021.366	25.05737
1021.731	-9.02211
1022.096	-12.02906
1022.461	-5.01095
1022.826	19.04229
1023.191	-28.0704
1023.556	-23.04987
1023.92	-19.04359
1024.285	-26.0597
1024.649	48.10982
1025.014	-4.00933
1025.378	29.06945
1025.742	36.08366
1026.107	-36.07531
1026.471	-46.09883
1026.835	-10.02315
1027.199	3.00684
1027.562	43.09328
1027.926	-28.0645
1028.29	-1.00241
1028.654	14.0296
1029.017	6.01394
1029.381	15.03376
1029.744	1.00244
1030.107	-47.10296
1030.471	-8.01792
1030.834	9.01865
1031.197	10.02216
1031.56	38.08442
1031.923	-52.12872
1032.286	14.0304
1032.648	33.0729
1033.011	-5.01077
1033.374	8.01726
1033.736	-33.08308
1034.099	-1.00231
1034.461	-5.0121
1034.823	-52.12284
1035.185	-46.10858
1035.548	23.05227
1035.91	-3.00681
1036.272	2.00425
1036.634	-8.01816
1036.995	18.03992
1037.357	-16.03689
1037.719	-4.00914
1038.08	-18.03936
1038.442	7.01593
1038.803	-26.05841
1039.165	13.03104
1039.526	0
1039.887	18.04062
1040.248	19.04508
1040.609	-1.00232
1040.97	-23.05308
1041.331	-61.14502
1041.692	12.02645
1042.053	-46.09734
1042.413	-36.07788
1042.774	12.0272
1043.134	23.05034
1043.495	-28.0663
1043.855	12.02733
1044.215	-39.09165
1044.576	26.05863
1044.936	14.03001
1045.296	9.02102
1045.656	1.00231
1046.016	-51.11502
1046.375	10.023
1046.735	52.11033
1047.095	-35.07738
1047.454	22.04258
1047.814	-50.11302
1048.173	-33.07281
1048.533	43.09173
1048.892	-46.1058
1049.251	24.05663
1049.61	-53.12265
1049.969	16.03553
1050.328	-50.09973
1050.687	-45.10364
1051.046	36.08267
1051.405	-49.11434
1051.763	36.07721
1052.122	-14.03348
1052.48	-47.10872
1052.839	-22.04881
1053.197	-5.01105
1053.555	-14.02857
1053.914	27.06146
1054.272	-17.03854
1054.63	-43.09915
1054.988	-13.02896
1055.345	-46.09111
1055.703	27.05995
1056.061	-11.02693
1056.419	5.01236
1056.776	14.03162
1057.134	-25.05414
1057.491	4.00942
1057.848	0
1058.206	-15.03304
1058.563	68.13866
1058.92	3.00636
1059.277	-31.071
1059.634	-54.11727
1059.991	23.0517
1060.348	2.00426
1060.704	-21.04732
1061.061	-13.02752
1061.418	10.02294
1061.774	23.05418
1062.131	28.07194
1062.487	-42.09183
1062.843	-19.04479
1063.199	-19.04508
1063.555	-7.01533
1063.911	-27.06449
1064.267	28.05162
1064.623	-10.0232
1064.979	-44.09551
1065.335	-39.08634
1065.691	64.1436
1066.046	-30.06081
1066.402	-12.02544
1066.757	-11.02635
1067.112	-21.04806
1067.468	49.10956
1067.823	11.02486
1068.178	2.00458
1068.533	21.04717
1068.888	15.03305
1069.243	10.02336
1069.598	-31.06997
1069.952	21.0448
1070.307	-4.00953
1070.662	8.01786
1071.016	-13.02752
1071.371	7.01473
1071.725	-22.04806
1072.079	23.05153
1072.434	-45.10356
1072.788	31.06937
1073.142	68.15696
1073.496	3.00667
1073.85	-19.04118
1074.203	-4.00908
1074.557	0
1074.911	16.03516
1075.265	6.01282
1075.618	39.08925
1075.971	-27.06012
1076.325	-5.01206
1076.678	-31.06662
1077.031	-5.01051
1077.385	48.09775
1077.738	-14.02961
1078.091	-16.03466
1078.444	-13.02779
1078.796	0
1079.149	-27.06271
1079.502	-28.06254
1079.855	-18.03966
1080.207	-7.0162
1080.56	-44.10868
1080.912	-54.12271
1081.264	-21.04763
1081.617	-14.0323
1081.969	36.08718
1082.321	-37.08573
1082.673	-29.0631
1083.025	6.01318
1083.377	-10.01945
1083.728	-39.0837
1084.08	-19.04528
1084.432	-48.10699
1084.783	74.16139
1085.135	13.03122
1085.486	-12.02596
1085.838	10.02316
1086.189	-14.03202
1086.54	24.05343
1086.891	-18.04392
1087.242	-61.1401
1087.593	-25.05687
1087.944	-29.06119
1088.295	-30.06298
1088.646	12.02733
1088.996	-53.12099
1089.347	-34.07845
1089.698	-15.03373
1090.048	-13.03183
1090.398	77.16505
1090.749	-29.0657
1091.099	-16.03865
1091.449	-7.01633
1091.799	-41.0974
1092.149	2.00472
1092.499	-38.08827
1092.849	-5.01207
1093.199	33.07704
1093.548	9.02043
1093.898	24.05663
1094.248	-15.03661
1094.597	-2.00493
1094.947	-8.02034
1095.296	-21.04879
1095.645	-13.03201
1095.994	31.06989
1096.343	26.06235
1096.692	-12.03046
1097.041	-14.03668
1097.39	-9.02127
1097.739	6.01487
1098.088	2.00504
1098.437	-1.00252
1098.785	-34.0875
1099.134	-32.08017
1099.482	-28.07341
1099.83	30.07421
1100.179	33.08281
1100.527	-34.08591
1100.875	-31.07854
1101.223	20.05093
1101.571	-9.02404
1101.919	-46.11669
1102.267	50.13621
1102.615	3.00964
1102.962	10.03206
1103.31	-3.00964
1103.658	-5.01604
