Data from N2 R10 sample 10_Subt2__5__13-11-23-774.txt Node

Date: Mon Sep 01 13:11:23 PDT 2025
User: uwsun
Spectrometer: HDX01956
Trigger mode: 0
Integration Time (sec): 5.000000E-1
Scans to average: 1
Nonlinearity correction enabled: true
Boxcar width: 0
Storing dark spectrum: false
XAxis mode: Wavelengths
Number of Pixels in Spectrum: 2068
>>>>>Begin Spectral Data<<<<<
194.03	50.13926
194.578	73.22878
195.127	52.16098
195.676	52.16147
196.225	123.31957
196.773	60.16293
197.321	85.22493
197.87	205.48811
198.418	147.34921
198.966	109.26243
199.513	58.13425
200.061	88.20595
200.609	157.38399
201.156	94.18854
201.704	92.21388
202.251	123.29994
202.798	131.31276
203.345	181.4087
203.892	116.26903
204.438	124.27307
204.985	127.27363
205.532	123.29759
206.078	195.43365
206.624	126.28318
207.17	166.35097
207.716	135.29923
208.262	179.31899
208.808	100.2252
209.354	138.30632
209.899	191.44112
210.445	117.26602
210.99	88.19518
211.535	176.37651
212.08	171.36193
212.625	157.35971
213.17	150.34871
213.715	78.15898
214.259	160.34036
214.804	189.42554
215.348	134.28145
215.892	148.3251
216.436	178.3765
216.98	201.40325
217.524	150.32394
218.068	162.37392
218.612	173.39891
219.155	159.34184
219.698	153.33403
220.242	183.41827
220.785	177.37775
221.328	154.35305
221.871	152.35628
222.414	224.50754
222.956	103.22916
223.499	159.32769
224.041	121.26204
224.583	197.38901
225.126	158.31911
225.668	112.25192
226.21	111.2585
226.751	101.20375
227.293	128.27062
227.835	90.20409
228.376	193.40742
228.918	206.4751
229.459	127.29098
230	126.27666
230.541	164.34643
231.082	149.3315
231.622	100.21421
232.163	119.26574
232.704	142.32306
233.244	136.31029
233.784	207.46263
234.324	101.20338
234.864	169.34908
235.404	149.32599
235.944	159.34581
236.484	166.3801
237.023	109.23747
237.563	154.32445
238.102	146.31612
238.641	182.41958
239.18	129.27555
239.719	122.28238
240.258	149.30653
240.797	115.25277
241.335	120.27102
241.874	138.24114
242.412	141.30966
242.95	86.18915
243.488	176.36444
244.026	133.27978
244.564	242.44256
245.102	135.27635
245.64	157.34625
246.177	161.32793
246.715	174.38028
247.252	194.40297
247.789	225.37941
248.326	139.30283
248.863	101.20281
249.4	154.31831
249.936	165.30609
250.473	144.30485
251.009	143.29684
251.546	121.24309
252.082	183.36069
252.618	171.34259
253.154	152.33051
253.69	145.29615
254.226	150.3245
254.761	151.30686
255.297	142.281
255.832	134.2879
256.367	179.37953
256.903	170.33514
257.438	202.42577
257.972	185.36926
258.507	85.17747
259.042	178.34629
259.576	112.21747
260.111	194.40225
260.645	142.2781
261.179	187.38956
261.713	158.31544
262.247	167.3465
262.781	160.29941
263.315	156.34354
263.849	178.39905
264.382	176.3633
264.915	123.25988
265.449	84.18506
265.982	174.35497
266.515	181.39449
267.048	92.17651
267.58	218.4229
268.113	124.24066
268.646	164.36237
269.178	141.28157
269.71	209.4036
270.243	192.39027
270.775	161.36739
271.307	156.33835
271.838	181.38595
272.37	125.27741
272.902	164.33351
273.433	110.21665
273.965	116.25492
274.496	162.36184
275.027	181.39951
275.558	166.35865
276.089	109.23969
276.62	223.50332
277.15	182.40079
277.681	160.30979
278.211	181.39566
278.741	163.31658
279.272	127.25856
279.802	160.35678
280.332	157.32808
280.861	179.38152
281.391	169.3378
281.921	221.46837
282.45	191.42317
282.98	177.41025
283.509	156.31015
284.038	149.30058
284.567	146.30408
285.096	185.39396
285.625	116.23417
286.153	156.32201
286.682	190.37915
287.21	142.30207
287.739	148.30852
288.267	82.17732
288.795	158.36933
289.323	112.23098
289.851	182.37264
290.378	181.35372
290.906	131.27824
291.433	157.34422
291.961	112.22309
292.488	173.3769
293.015	156.31941
293.542	193.42332
294.069	164.35084
294.596	230.49181
295.122	199.40976
295.649	177.3377
296.175	220.46003
296.702	204.4279
297.228	175.3704
297.754	133.25967
298.28	169.3298
298.806	135.28198
299.332	172.32457
299.857	198.38024
300.383	231.50197
300.908	105.22059
301.433	164.34172
301.958	214.42189
302.483	135.29049
303.008	197.41751
303.533	189.42449
304.058	210.4216
304.582	153.3078
305.107	113.25484
305.631	249.47646
306.155	235.45533
306.679	153.30269
307.203	189.36848
307.727	152.30671
308.251	173.36296
308.775	111.22331
309.298	136.27455
309.822	147.31576
310.345	253.49373
310.868	177.35379
311.391	188.38876
311.914	190.39678
312.437	204.38647
312.96	213.41231
313.482	216.42002
314.005	246.50619
314.527	187.40791
315.049	245.50947
315.571	179.3218
316.093	215.43493
316.615	209.40902
317.137	242.41888
317.659	276.53951
318.18	255.49574
318.702	239.44293
319.223	173.28314
319.744	217.38511
320.265	197.38061
320.786	151.30014
321.307	187.37239
321.828	267.46769
322.348	183.3405
322.869	214.39214
323.389	26.03353
323.909	263.46335
324.43	294.54854
324.95	204.35893
325.47	218.41178
325.989	200.36038
326.509	203.33392
327.029	224.37535
327.548	179.30117
328.067	176.32006
328.587	278.51663
329.106	236.39373
329.625	241.48551
330.144	208.35198
330.662	213.35858
331.181	250.42237
331.7	289.48124
332.218	283.42555
332.736	275.45515
333.255	229.37753
333.773	225.37775
334.291	290.51454
334.808	265.40208
335.326	276.42342
335.844	235.36938
336.361	235.40925
336.879	232.36265
337.396	199.32625
337.913	252.38087
338.43	244.35707
338.947	247.38644
339.464	260.34785
339.981	187.29017
340.497	257.415
341.014	288.44628
341.53	248.34642
342.046	241.37574
342.562	320.50201
343.078	305.43744
343.594	282.41397
344.11	306.44011
344.626	262.40861
345.141	273.36659
345.657	347.45616
346.172	307.43672
346.687	305.40037
347.202	306.38451
347.717	332.45105
348.232	326.47212
348.747	308.39218
349.261	304.34513
349.776	308.39871
350.29	289.39273
350.805	387.526
351.319	322.4018
351.833	289.33924
352.347	334.41062
352.861	330.3956
353.374	375.44192
353.888	344.43411
354.401	334.38529
354.915	318.34136
355.428	299.38375
355.941	330.37268
356.454	407.4327
356.967	406.46038
357.48	359.39388
357.993	368.44473
358.505	269.3256
359.018	386.44736
359.53	350.39137
360.042	389.37705
360.554	373.41921
361.066	349.3904
361.578	370.33812
362.09	294.32187
362.602	377.33908
363.113	411.39601
363.625	347.31979
364.136	403.34763
364.647	270.252
365.158	387.35865
365.669	407.39248
366.18	413.38143
366.691	407.3273
367.201	371.3475
367.712	358.2975
368.222	371.30487
368.733	409.2809
369.243	394.27688
369.753	462.34747
370.263	468.36769
370.773	367.31741
371.282	421.31035
371.792	364.22335
372.301	395.27434
372.811	440.3541
373.32	400.16796
373.829	374.20328
374.338	447.17915
374.847	445.17709
375.356	407.16673
375.865	423.0758
376.373	555.0998
376.882	465.17113
377.39	621.12237
377.898	433.06947
378.407	497.99245
378.915	588.93553
379.423	499.96919
379.93	577.90204
380.438	516.9003
380.946	541.84687
381.453	579.80359
381.96	529.78337
382.468	565.71827
382.975	718.63393
383.482	743.59226
383.989	697.63051
384.495	727.59139
385.002	630.66322
385.509	769.59903
386.015	846.69942
386.521	855.69593
387.028	954.79617
387.534	834.91052
388.04	954.88599
388.546	668.08159
389.051	512.19999
389.557	886.73008
390.063	1389.60419
390.568	1268.84588
391.073	1110.16647
391.578	1209.64649
392.084	1115.16425
392.589	655.27645
393.093	639.85521
393.598	1026.97231
394.103	1234.78803
394.607	1326.578
395.112	1593.74014
395.616	1706.95102
396.12	1412.9698
396.624	1320.36746
397.128	1597.01855
397.632	2323.41407
398.136	2298.17333
398.639	754.26694
399.143	-94.94341
399.646	434.52188
400.15	181.51985
400.653	-554.37106
401.156	-1674.84232
401.659	-2291.97246
402.162	-332.17234
402.664	-54.35253
403.167	0
403.67	0
404.172	0
404.674	0
405.176	0
405.678	0
406.18	0
406.682	0
407.184	0
407.686	0
408.187	0
408.688	0
409.19	0
409.691	0
410.192	0
410.693	0
411.194	435.30976
411.694	4082.94878
412.195	8864.71461
412.696	12089.80453
413.196	11951.66885
413.696	10779.65906
414.196	12506.70395
414.696	15145.31606
415.196	16796.90096
415.696	19085.63508
416.196	16017.45527
416.695	9681.44833
417.195	6410.39828
417.694	6192.04667
418.194	6016.79164
418.693	4982.25812
419.192	5151.97616
419.691	5026.75642
420.19	4880.21515
420.688	5144.79918
421.187	5146.95085
421.685	5352.83062
422.184	4910.64261
422.682	4176.67485
423.18	3249.66239
423.678	2477.64883
424.176	2241.91331
424.674	2006.89179
425.172	2248.01255
425.669	2305.781
426.167	2185.82557
426.664	1833.03035
427.161	1643.60902
427.659	1461.34757
428.156	1296.41225
428.652	1353.26532
429.149	1177.35142
429.646	1133.37545
430.143	1187.38809
430.639	1009.5163
431.135	851.67381
431.632	859.67199
432.128	777.78929
432.624	573.92403
433.12	514.87814
433.616	500.89329
434.111	411.95589
434.607	421.99097
435.103	479.96678
435.598	551.96631
436.093	549.08323
436.588	547.09625
437.083	435.12177
437.578	462.16123
438.073	172.09616
438.568	406.23261
439.062	316.13185
439.557	360.22172
440.051	259.15455
440.546	196.12599
441.04	215.1617
441.534	249.21891
442.028	287.23202
442.522	218.18263
443.015	177.12889
443.509	293.26342
444.002	165.15773
444.496	229.17425
444.989	195.19133
445.482	176.18032
445.975	114.09939
446.468	172.13643
446.961	192.15261
447.454	143.13241
447.947	32.03319
448.439	119.13039
448.931	83.07933
449.424	137.1628
449.916	167.18443
450.408	63.06323
450.9	114.1281
451.392	39.04884
451.884	60.06612
452.375	14.01738
452.867	100.10987
453.358	17.01871
453.849	63.06281
454.341	-18.0205
454.832	7.00741
455.323	-37.04823
455.814	49.05822
456.304	96.11345
456.795	90.1062
457.285	126.14594
457.776	73.09083
458.266	2.00262
458.756	-1.00137
459.247	-7.00934
459.737	-44.05988
460.226	9.01123
460.716	-46.06453
461.206	10.0141
461.695	0
462.185	-15.02123
462.674	-36.05034
463.163	6.0079
463.653	-4.00494
464.142	-62.09369
464.63	24.03679
465.119	-52.07529
465.608	4.00572
466.096	42.05644
466.585	9.01335
467.073	10.01564
467.561	0
468.05	5.00764
468.538	11.01811
469.026	-23.03714
469.513	-93.1311
470.001	-12.01815
470.489	-11.01759
470.976	-12.01892
471.463	-8.01397
471.951	-15.02669
472.438	-69.1147
472.925	-63.10403
473.412	-35.0626
473.899	-18.02962
474.385	-59.10677
474.872	-53.08971
475.359	-63.11378
475.845	-48.07162
476.331	-14.02234
476.817	-11.02007
477.303	-104.18394
477.789	-52.09519
478.275	-82.15633
478.761	-78.14553
479.247	-116.20302
479.732	-97.18821
480.218	-59.12072
480.703	-105.20705
481.188	-82.1368
481.673	-72.1294
482.158	-159.26606
482.643	-58.11892
483.128	-108.196
483.612	-104.19596
484.097	-48.09498
484.581	-55.10325
485.066	-73.14368
485.55	-108.19161
486.034	-127.22421
486.518	-108.207
487.002	-150.30434
487.486	-127.25762
487.969	-122.24764
488.453	-108.22914
488.936	-102.19078
489.42	-111.20571
489.903	-85.18085
490.386	-548.85301
490.869	-72.13153
491.352	-90.18828
491.835	-99.17313
492.318	-112.21415
492.8	-95.16605
493.283	-76.16399
493.765	-106.22313
494.247	-94.18967
494.73	-134.25572
495.212	-101.21228
495.694	-105.21026
496.175	-205.42439
496.657	-67.13684
497.139	-21.031
497.62	-174.35981
498.102	-139.30115
498.583	-131.28867
499.064	-151.29383
499.545	-150.30128
500.026	-134.2628
500.507	-104.21101
500.988	-146.32138
501.469	-179.39791
501.949	-116.25363
502.43	-184.38766
502.91	-147.26766
503.39	-98.21717
503.87	-165.34434
504.35	-118.24784
504.83	-161.31374
505.31	-149.32116
505.79	-181.38746
506.269	-138.28831
506.749	-153.31107
507.228	-176.36999
507.707	-101.19757
508.187	-104.22171
508.666	-143.31313
509.145	-140.29158
509.623	-153.32228
510.102	-154.336
510.581	-131.28515
511.059	-148.33234
511.538	-112.26027
512.016	-157.33913
512.494	-97.21079
512.972	-164.35448
513.45	-188.39225
513.928	-143.31194
514.406	-165.35611
514.884	-163.3796
515.361	-111.23833
515.839	-138.28319
516.316	-139.30193
516.793	-105.2398
517.27	-92.20099
517.747	-113.26088
518.224	-104.21699
518.701	-90.17985
519.178	-139.31079
519.654	-102.21981
520.131	-158.35626
520.607	-134.30313
521.083	-118.24379
521.56	-159.34316
522.036	-100.19863
522.512	-99.22181
522.987	-168.36344
523.463	-120.25882
523.939	-137.30733
524.414	-97.20351
524.89	-139.30154
525.365	-143.29604
525.84	-201.43864
526.315	-140.30779
526.79	-138.28486
527.265	-148.30962
527.74	-180.40453
528.215	-143.30903
528.689	-150.30476
529.164	-65.12763
529.638	-118.27767
530.112	-164.35524
530.587	-161.31538
531.061	-207.46282
531.534	-99.21925
532.008	-151.33343
532.482	-137.28984
532.956	-199.46945
533.429	-102.22575
533.903	-97.1964
534.376	-114.23088
534.849	-117.24894
535.322	-138.3002
535.795	-149.33658
536.268	-115.2532
536.741	-123.27206
537.213	-106.2249
537.686	-155.34813
538.158	-136.27947
538.631	-113.25318
539.103	-178.37007
539.575	-101.19363
540.047	-122.24719
540.519	-88.19282
540.991	-117.2643
541.463	-153.34364
541.934	-107.22479
542.406	-122.26709
542.877	-135.28148
543.348	-103.22878
543.82	-76.1706
544.291	-35.07418
544.762	-104.22547
545.233	-107.24535
545.703	-65.13016
546.174	-40.08401
546.645	-118.25648
547.115	-65.14167
547.585	-73.15241
548.056	-89.1934
548.526	-61.12855
548.996	17.03627
549.466	7.01524
549.935	-37.07773
550.405	-8.01545
550.875	1.00209
551.344	-6.01275
551.814	56.11217
552.283	51.09692
552.752	45.0907
553.221	16.03018
553.69	71.13579
554.159	69.14572
554.628	27.05216
555.096	54.11852
555.565	151.28459
556.033	134.27138
556.502	149.31026
556.97	132.25251
557.438	122.25183
557.906	183.37545
558.374	214.42109
558.842	192.3965
559.31	223.42877
559.777	217.45064
560.245	317.63127
560.712	263.52227
561.18	307.57095
561.647	321.60442
562.114	319.61248
562.581	379.78529
563.048	397.76409
563.514	435.88237
563.981	459.86388
564.448	516.93518
564.914	560.04852
565.381	564.03001
565.847	630.16882
566.313	651.19316
566.779	648.1456
567.245	669.22683
567.711	718.33507
568.176	697.20523
568.642	751.45716
569.108	835.55269
569.573	898.57231
570.038	937.41026
570.504	928.5021
570.969	1015.85081
571.434	999.54009
571.899	1104.83843
572.363	1099.73479
572.828	1133.79079
573.293	1103.75512
573.757	1208.86803
574.222	1260.83596
574.686	1252.83651
575.15	1269.00602
575.614	1316.96179
576.078	1351.05161
576.542	1394.01606
577.006	1330.93055
577.469	1417.29165
577.933	1329.90245
578.396	1384.13134
578.86	1398.118
579.323	1332.07695
579.786	1312.81208
580.249	1330.95548
580.712	1298.12786
581.175	1257.10186
581.637	1278.9609
582.1	1305.86545
582.563	1230.7513
583.025	1115.89593
583.487	1145.53031
583.95	1079.58834
584.412	1162.63716
584.874	1124.91488
585.336	1053.77477
585.797	985.51306
586.259	1040.76084
586.721	989.67556
587.182	995.69485
587.643	931.54895
588.105	901.58542
588.566	916.39958
589.027	744.38214
589.488	803.38901
589.949	827.52636
590.41	737.07231
590.87	758.33428
591.331	748.23785
591.791	724.29159
592.252	664.18677
592.712	669.27187
593.172	680.19543
593.632	759.27518
594.092	668.16754
594.552	618.05159
595.011	602.09901
595.471	603.07558
595.931	600.06552
596.39	557.07916
596.849	578.08283
597.308	607.0487
597.768	561.16054
598.227	548.07561
598.685	575.06897
599.144	565.06755
599.603	558.07259
600.062	590.98092
600.52	632.11028
600.978	584.1162
601.437	607.1118
601.895	613.02538
602.353	656.14591
602.811	619.08881
603.269	621.18734
603.727	612.17208
604.184	632.12132
604.642	691.33163
605.099	736.31982
605.557	728.38526
606.014	719.18349
606.471	661.30119
606.928	737.19304
607.385	709.33367
607.842	837.43188
608.299	910.56754
608.755	847.53685
609.212	814.35186
609.668	830.35883
610.125	883.59907
610.581	949.6762
611.037	934.58252
611.493	936.64846
611.949	880.59322
612.405	947.35397
612.861	951.66841
613.316	891.60049
613.772	922.57477
614.227	907.60266
614.683	975.52143
615.138	921.60805
615.593	897.56603
616.048	923.58281
616.503	957.77209
616.958	952.79653
617.412	921.64098
617.867	822.38321
618.321	965.45956
618.776	897.49711
619.23	902.60912
619.684	873.50962
620.138	891.58904
620.592	882.65446
621.046	920.65144
621.5	825.57358
621.954	867.51034
622.407	865.48783
622.861	847.61405
623.314	794.43063
623.768	817.4996
624.221	743.15282
624.674	800.4606
625.127	794.48033
625.58	804.46274
626.033	806.41602
626.485	674.32838
626.938	766.47606
627.39	747.41079
627.843	695.32396
628.295	669.28299
628.747	717.403
629.199	702.31433
629.651	694.30124
630.103	650.24499
630.555	635.12402
631.006	634.25645
631.458	627.25269
631.909	661.28227
632.361	560.12768
632.812	570.13205
633.263	600.1031
633.714	602.10123
634.165	611.27542
634.616	578.19069
635.067	556.07439
635.518	546.14081
635.968	649.1018
636.419	539.0248
636.869	520.09263
637.319	490.00459
637.769	470.93704
638.219	534.12851
638.669	445.95581
639.119	448.9877
639.569	421.92177
640.019	485.0035
640.468	457.91938
640.918	495.06856
641.367	457.92488
641.816	507.01022
642.265	473.98574
642.714	451.94532
643.163	458.953
643.612	374.82528
644.061	430.82462
644.51	382.80053
644.958	364.73886
645.406	401.88059
645.855	388.87798
646.303	448.955
646.751	380.79705
647.199	390.81766
647.647	390.82705
648.095	402.84728
648.543	403.76034
648.99	385.85008
649.438	465.9966
649.885	389.89223
650.333	367.66016
650.78	370.83044
651.227	378.85362
651.674	411.86263
652.121	421.94391
652.568	365.82578
653.015	408.95657
653.461	356.79049
653.908	439.93967
654.354	380.84553
654.801	343.75356
655.247	375.76797
655.693	363.88637
656.139	325.7347
656.585	405.9017
657.031	338.73929
657.477	342.69326
657.922	338.7318
658.368	343.79777
658.813	400.86786
659.259	295.67287
659.704	343.75229
660.149	320.70584
660.594	348.77819
661.039	305.6605
661.484	364.81899
661.929	379.83123
662.373	312.74724
662.818	334.78434
663.262	283.65123
663.707	298.72051
664.151	321.74573
664.595	295.67938
665.039	352.82886
665.483	335.80918
665.927	372.82601
666.371	306.67412
666.814	361.8154
667.258	260.59173
667.701	377.76822
668.145	349.82483
668.588	374.86659
669.031	300.67419
669.474	306.70541
669.917	332.7016
670.36	332.78451
670.803	385.87739
671.245	329.66218
671.688	353.81876
672.13	310.66516
672.573	371.89375
673.015	359.81849
673.457	319.66512
673.899	356.82032
674.341	379.86547
674.783	309.71019
675.225	349.81684
675.666	333.7629
676.108	356.73583
676.549	384.86151
676.991	326.68862
677.432	334.63555
677.873	357.78662
678.314	346.78838
678.755	367.84819
679.196	372.80815
679.637	364.8471
680.078	337.75561
680.518	344.76766
680.959	331.75953
681.399	340.8059
681.839	371.85845
682.28	345.81254
682.72	324.71137
683.16	327.78032
683.6	352.76763
684.039	354.70413
684.479	347.81312
684.919	277.61752
685.358	357.86491
685.798	339.8502
686.237	377.86748
686.676	384.84734
687.115	311.7042
687.554	336.76467
687.993	337.71513
688.432	342.74836
688.871	286.62821
689.309	351.8009
689.748	336.67487
690.186	399.90342
690.625	334.75058
691.063	316.72933
691.501	328.77896
691.939	308.73991
692.377	333.7791
692.815	334.76565
693.253	361.82935
693.69	346.72798
694.128	274.64372
694.565	325.74547
695.003	339.8247
695.44	358.80319
695.877	304.68486
696.314	333.68875
696.751	364.79346
697.188	347.76266
697.625	370.81133
698.061	309.71474
698.498	361.83499
698.934	336.77671
699.371	313.7096
699.807	293.671
700.243	287.66886
700.679	344.74701
701.115	351.79217
701.551	346.78105
701.987	341.73624
702.422	300.68827
702.858	324.74243
703.294	334.72715
703.729	305.72086
704.164	260.60964
704.599	329.70455
705.035	290.62842
705.47	330.77042
705.904	315.70688
706.339	343.76622
706.774	307.69402
707.209	277.62008
707.643	289.67246
708.078	290.68369
708.512	268.65068
708.946	329.75857
709.38	285.65504
709.814	320.70495
710.248	303.71364
710.682	326.74521
711.116	300.6902
711.549	329.81621
711.983	274.61526
712.416	298.68204
712.85	299.72061
713.283	319.72701
713.716	348.8382
714.149	323.74177
714.582	341.73403
715.015	327.78808
715.448	334.80875
715.881	335.70468
716.313	286.64958
716.746	246.56553
717.178	277.64632
717.61	294.72154
718.043	272.6589
718.475	298.69846
718.907	302.73952
719.339	272.59872
719.77	255.58868
720.202	265.6517
720.634	268.63331
721.065	273.62872
721.497	324.76383
721.928	234.56174
722.359	257.60273
722.79	240.56121
723.221	253.62105
723.652	330.81913
724.083	261.57318
724.514	302.67032
724.945	214.49433
725.375	217.49398
725.806	278.67394
726.236	306.75708
726.666	270.62144
727.096	242.58028
727.526	260.64236
727.956	215.48011
728.386	241.57997
728.816	226.5596
729.246	204.48731
729.675	210.50739
730.105	251.60266
730.534	222.50975
730.964	250.61675
731.393	315.75486
731.822	257.63925
732.251	220.54733
732.68	252.57978
733.109	206.49904
733.537	206.48907
733.966	210.51217
734.395	219.49651
734.823	241.53216
735.251	189.44915
735.68	256.62504
736.108	208.51711
736.536	238.54911
736.964	205.46817
737.392	217.53269
737.82	170.40423
738.247	160.38046
738.675	225.52748
739.102	177.4366
739.53	167.42039
739.957	154.39259
740.384	227.54898
740.811	188.46994
741.238	188.45252
741.665	189.43233
742.092	185.4366
742.519	130.32038
742.945	204.48171
743.372	162.39732
743.798	168.42707
744.225	154.36365
744.651	178.44108
745.077	144.35683
745.503	201.48262
745.929	211.49718
746.355	228.55565
746.781	190.46409
747.207	88.20748
747.632	103.25126
748.058	168.41478
748.483	141.32357
748.908	113.28058
749.334	156.38005
749.759	135.31724
750.184	105.25049
750.609	147.359
751.033	159.37335
751.458	162.36109
751.883	162.39776
752.307	93.21991
752.732	70.17581
753.156	139.34136
753.58	165.38849
754.005	141.35571
754.429	124.291
754.853	144.35422
755.277	153.35954
755.7	144.35488
756.124	137.33794
756.548	103.24459
756.971	125.30448
757.394	143.36564
757.818	154.39245
758.241	144.36256
758.664	123.30941
759.087	86.1932
759.51	109.27114
759.933	94.22678
760.356	111.28402
760.778	90.22196
761.201	132.3199
761.623	158.38017
762.046	124.29395
762.468	122.29278
762.89	115.28357
763.312	125.30436
763.734	103.24826
764.156	110.27139
764.578	123.28283
765	143.34663
765.421	87.22121
765.843	95.24903
766.264	157.37612
766.686	99.24886
767.107	95.23071
767.528	79.19994
767.949	113.2866
768.37	113.27689
768.791	111.26846
769.212	55.1391
769.632	73.17121
770.053	74.1954
770.473	111.26967
770.894	104.26035
771.314	134.31876
771.734	97.22661
772.154	79.20342
772.575	82.19123
772.994	40.09215
773.414	127.30391
773.834	77.19321
774.254	93.22797
774.673	114.27711
775.093	59.14698
775.512	75.18548
775.931	127.32005
776.351	72.17953
776.77	101.24666
777.189	84.20051
777.607	85.21727
778.026	115.28534
778.445	27.06831
778.864	95.24351
779.282	78.1884
779.701	74.18712
780.119	82.20743
780.537	64.16045
780.955	98.24904
781.373	45.11227
781.791	42.09552
782.209	87.20117
782.627	75.1978
783.045	71.16424
783.462	77.19703
783.88	36.09387
784.297	65.16416
784.715	20.0519
785.132	75.18214
785.549	66.1657
785.966	37.09388
786.383	14.03491
786.8	99.22983
787.217	70.16665
787.633	50.12553
788.05	123.29073
788.466	99.23337
788.883	62.15862
789.299	51.12372
789.715	78.18996
790.131	72.17946
790.547	62.15549
790.963	82.20365
791.379	85.21475
791.795	75.17184
792.21	77.18052
792.626	70.16671
793.041	43.10693
793.457	99.24403
793.872	86.20229
794.287	53.12722
794.702	104.25536
795.117	-6.01514
795.532	83.20782
795.947	104.24958
796.362	108.25701
796.776	142.32946
797.191	74.18143
797.605	57.13447
798.02	60.14661
798.434	118.26138
798.848	86.21155
799.262	52.12961
799.676	117.28371
800.09	65.1604
800.504	82.19903
800.918	71.16496
801.331	90.2354
801.745	60.13855
802.158	67.16782
802.572	108.26076
802.985	86.2078
803.398	70.16735
803.811	117.29875
804.224	80.19911
804.637	24.05779
805.05	95.21976
805.462	93.22797
805.875	14.03664
806.288	59.1428
806.7	64.1612
807.112	113.26046
807.525	37.09201
807.937	70.17321
808.349	83.20767
808.761	87.21366
809.173	69.16751
809.584	67.16594
809.996	30.07407
810.408	57.14744
810.819	9.02145
811.231	41.10645
811.642	48.11502
812.053	89.2111
812.464	150.3516
812.875	117.29664
813.286	125.31872
813.697	129.29888
814.108	94.22893
814.519	81.18059
814.929	112.28371
815.34	61.14836
815.75	25.06404
816.16	93.23101
816.571	59.15356
816.981	86.20277
817.391	69.16682
817.801	27.0676
818.211	84.19997
818.62	58.14004
819.03	78.19102
819.44	85.22145
819.849	51.12899
820.259	85.21704
820.668	26.06448
821.077	62.1542
821.486	110.26318
821.895	100.2459
822.304	72.19063
822.713	64.1516
823.122	55.13766
823.531	55.13086
823.939	58.14167
824.348	75.18228
824.756	88.21974
825.164	99.24788
825.573	64.16074
825.981	76.18833
826.389	103.25724
826.797	71.17777
827.205	19.04407
827.612	58.14347
828.02	37.08746
828.428	71.18072
828.835	34.08996
829.243	65.15513
829.65	60.14939
830.057	50.12182
830.464	21.05163
830.871	93.22178
831.278	66.15965
831.685	56.12544
832.092	64.15685
832.499	79.17262
832.905	75.18962
833.312	101.22909
833.718	84.20869
834.124	78.17803
834.531	85.2136
834.937	92.23504
835.343	72.17364
835.749	118.27313
836.155	65.17016
836.561	65.15993
836.966	83.2024
837.372	72.18304
837.777	48.11995
838.183	91.20153
838.588	65.1614
838.993	105.25385
839.399	65.15892
839.804	22.05404
840.209	37.09461
840.613	70.15571
841.018	73.18456
841.423	56.14382
841.828	66.16683
842.232	86.21226
842.637	39.09251
843.041	35.09012
843.445	50.12571
843.849	35.0871
844.253	111.26156
844.657	54.13616
845.061	69.1565
845.465	58.14025
845.869	77.17855
846.272	61.14859
846.676	107.25673
847.079	61.1551
847.483	106.26239
847.886	105.25356
848.289	70.18645
848.692	91.22925
849.095	118.28048
849.498	144.3597
849.901	94.21438
850.304	77.18356
850.707	60.15302
851.109	138.34447
851.512	84.20557
851.914	52.13121
852.316	52.13173
852.718	21.05456
853.121	72.17607
853.523	66.15416
853.925	60.15646
854.326	54.13514
854.728	53.13643
855.13	28.07259
855.531	54.1292
855.933	92.21961
856.334	29.07269
856.736	17.03843
857.137	69.16019
857.538	60.1508
857.939	20.04976
858.34	87.21097
858.741	65.1697
859.142	24.05806
859.542	69.18167
859.943	104.2563
860.343	18.0449
860.744	143.3435
861.144	70.17041
861.544	24.05806
861.945	83.21059
862.345	55.13462
862.745	76.18826
863.145	111.26278
863.544	43.10895
863.944	94.2206
864.344	90.22229
864.743	90.22205
865.143	69.17687
865.542	65.1506
865.941	58.14357
866.34	110.26096
866.74	69.18479
867.139	50.1199
867.537	90.22799
867.936	65.15626
868.335	67.17018
868.734	82.20861
869.132	102.23497
869.531	102.24469
869.929	61.13898
870.327	43.10337
870.726	80.19868
871.124	70.16325
871.522	49.12499
871.92	88.21583
872.318	81.19716
872.715	65.16069
873.113	36.08807
873.511	84.20823
873.908	12.03053
874.306	48.11956
874.703	71.1772
875.1	72.18368
875.497	37.08905
875.894	24.05915
876.291	45.11068
876.688	43.11115
877.085	95.22629
877.482	94.2337
877.878	69.16568
878.275	63.15985
878.671	87.1926
879.068	65.15667
879.464	36.08735
879.86	42.0996
880.256	117.28552
880.652	55.13989
881.048	59.14613
881.444	104.2453
881.84	74.18746
882.236	67.16812
882.631	71.17378
883.027	113.27071
883.422	71.18104
883.817	10.02533
884.213	53.13605
884.608	46.11299
885.003	43.10392
885.398	62.15499
885.793	75.18759
886.188	30.07491
886.582	62.15884
886.977	122.28586
887.371	67.16909
887.766	1.00251
888.16	78.19385
888.554	81.19936
888.949	84.20983
889.343	100.24226
889.737	6.01611
890.131	86.21452
890.525	63.16087
890.918	35.08839
891.312	71.16938
891.706	57.14947
892.099	93.23504
892.492	117.24916
892.886	71.1732
893.279	88.22284
893.672	70.1777
894.065	82.20432
894.458	77.19287
894.851	99.24061
895.244	38.09732
895.637	69.16575
896.029	50.12236
896.422	48.11742
896.814	52.12933
897.206	-24.05801
897.599	72.17751
897.991	60.14492
898.383	52.12294
898.775	71.15973
899.167	48.11207
899.559	104.26092
899.951	109.25425
900.342	104.26214
900.734	6.01502
901.125	58.15207
901.517	33.08131
901.908	89.212
902.299	69.1682
902.69	56.13209
903.082	67.16186
903.473	27.06498
903.863	66.16802
904.254	62.14368
904.645	94.23209
905.036	34.08262
905.426	144.32376
905.817	72.17607
906.207	31.07418
906.597	78.18155
906.987	96.24698
907.378	80.20136
907.768	53.14011
908.158	73.17735
908.547	28.07264
908.937	96.24448
909.327	82.19806
909.717	107.26907
910.106	64.15341
910.495	87.21587
910.885	40.10154
911.274	73.18179
911.663	78.1971
912.052	71.17462
912.441	76.19245
912.83	79.18042
913.219	103.26725
913.608	74.18056
913.997	36.09051
914.385	107.25301
914.774	37.09036
915.162	52.12394
915.55	47.11384
915.939	73.18357
916.327	89.22067
916.715	38.09708
917.103	77.18868
917.491	71.17507
917.878	81.19811
918.266	78.20137
918.654	84.21339
919.041	37.09683
919.429	43.10168
919.816	49.12428
920.203	55.13332
920.591	118.28909
920.978	89.21647
921.365	75.196
921.752	81.19205
922.139	80.1727
922.525	47.11299
922.912	110.26538
923.299	74.18318
923.685	57.14856
924.072	91.20825
924.458	22.0548
924.844	74.18237
925.231	34.07942
925.617	15.0384
926.003	70.17833
926.389	41.10362
926.774	103.25864
927.16	111.2727
927.546	60.15291
927.931	82.2035
928.317	93.21248
928.702	91.21368
929.088	20.04759
929.473	49.12472
929.858	40.09691
930.243	25.0603
930.628	26.06356
931.013	85.20936
931.398	89.20318
931.783	93.24313
932.167	87.21128
932.552	55.13771
932.937	88.21695
933.321	39.09807
933.705	30.07591
934.09	131.32634
934.474	106.24914
934.858	91.2344
935.242	74.17074
935.626	60.15334
936.009	53.14091
936.393	96.24232
936.777	60.15339
937.16	65.16871
937.544	86.20127
937.927	42.10673
938.311	96.2324
938.694	116.30341
939.077	53.12683
939.46	122.29567
939.843	140.28639
940.226	59.15113
940.609	66.15107
940.991	79.20009
941.374	63.15363
941.757	87.21326
942.139	70.15661
942.522	104.2433
942.904	59.14162
943.286	105.26423
943.668	97.24925
944.05	53.1305
944.432	67.16485
944.814	104.25366
945.196	43.10494
945.578	36.0858
945.959	100.23211
946.341	114.27659
946.722	49.11506
947.104	89.21119
947.485	124.28439
947.866	83.2079
948.247	79.1983
948.628	105.25356
949.009	38.09753
949.39	58.1442
949.771	48.11172
950.152	82.20007
950.532	11.02725
950.913	82.19664
951.293	58.15648
951.674	76.18294
952.054	47.11653
952.434	37.09207
952.814	105.24723
953.194	80.20832
953.574	98.23929
953.954	77.18194
954.334	52.12957
954.714	62.15077
955.093	98.23884
955.473	41.1027
955.853	49.12688
956.232	70.19125
956.611	84.2002
956.99	80.19998
957.37	97.24515
957.749	49.11694
958.128	68.17078
958.506	79.20392
958.885	65.16363
959.264	47.11525
959.643	58.1318
960.021	11.02745
960.4	71.16026
960.778	97.23689
961.156	66.16499
961.535	59.1373
961.913	118.27248
962.291	30.07724
962.669	22.05601
963.047	68.17299
963.424	71.18053
963.802	64.15697
964.18	100.25079
964.557	78.17868
964.935	72.16989
965.312	67.17396
965.69	89.22131
966.067	85.20565
966.444	83.20331
966.821	84.21528
967.198	74.17874
967.575	78.19081
967.952	118.27443
968.329	65.15774
968.705	89.18928
969.082	70.1789
969.458	40.09614
969.835	83.20081
970.211	53.13595
970.587	68.16876
970.963	105.26679
971.339	40.10463
971.715	46.11495
972.091	72.17659
972.467	69.17152
972.843	77.19015
973.219	124.29361
973.594	49.12819
973.97	85.20099
974.345	36.08639
974.721	54.13068
975.096	107.25615
975.471	87.20493
975.846	82.19581
976.221	72.18213
976.596	69.1648
976.971	97.23742
977.346	77.17833
977.72	58.14755
978.095	58.14969
978.469	102.24105
978.844	107.26627
979.218	39.09368
979.593	54.1293
979.967	80.19381
980.341	22.05094
980.715	117.29126
981.089	72.17953
981.463	92.20948
981.837	5.01232
982.21	74.17142
982.584	54.13033
982.957	41.10255
983.331	66.15555
983.704	51.12529
984.078	16.03968
984.451	76.18895
984.824	59.14345
985.197	51.12386
985.57	77.19217
985.943	109.2663
986.316	73.17861
986.688	112.26694
987.061	71.16574
987.434	50.13029
987.806	95.22846
988.179	58.13664
988.551	110.27607
988.923	80.19592
989.295	95.23546
989.667	20.04805
990.039	76.18689
990.411	70.16048
990.783	90.20559
991.155	21.05073
991.527	148.35787
991.898	67.16643
992.27	28.06954
992.641	116.28756
993.012	95.22159
993.384	82.19439
993.755	73.18535
994.126	80.19133
994.497	47.11543
994.868	78.17818
995.239	96.23065
995.61	33.08328
995.98	51.12386
996.351	42.10416
996.722	87.20029
997.092	49.11605
997.462	2.00472
997.833	76.17926
998.203	113.27071
998.573	63.15649
998.943	80.18649
999.313	87.207
999.683	34.08184
1000.053	98.22332
1000.423	111.26663
1000.792	76.19607
1001.162	77.18854
1001.531	88.21543
1001.901	91.22513
1002.27	97.21473
1002.639	57.14544
1003.009	67.1588
1003.378	95.24095
1003.747	66.15543
1004.116	44.10539
1004.485	43.1029
1004.853	82.20654
1005.222	51.12857
1005.591	109.25585
1005.959	27.06112
1006.328	72.16128
1006.696	55.13252
1007.064	73.18285
1007.433	54.13484
1007.801	93.22645
1008.169	109.27233
1008.537	67.14783
1008.905	71.1647
1009.273	101.24712
1009.64	36.0861
1010.008	87.20588
1010.375	83.20028
1010.743	135.30645
1011.11	27.06417
1011.478	79.19444
1011.845	59.13849
1012.212	-13.0298
1012.579	72.176
1012.946	109.25645
1013.313	91.21485
1013.68	127.28091
1014.047	29.06937
1014.414	51.12041
1014.78	63.15615
1015.147	85.20418
1015.513	101.24095
1015.88	73.18587
1016.246	129.31375
1016.612	126.28399
1016.978	76.1853
1017.344	87.2135
1017.71	124.29814
1018.076	79.18521
1018.442	63.16166
1018.808	81.20127
1019.174	58.14525
1019.539	151.34054
1019.905	73.17135
1020.27	54.13313
1020.636	108.25602
1021.001	64.15277
1021.366	30.0723
1021.731	74.18945
1022.096	30.07591
1022.461	109.25495
1022.826	88.20756
1023.191	48.12593
1023.556	79.18405
1023.92	65.15933
1024.285	74.17975
1024.649	52.12735
1025.014	77.18973
1025.378	64.16045
1025.742	55.13642
1026.107	80.1798
1026.471	121.27846
1026.835	72.1777
1027.199	70.1678
1027.562	72.16659
1027.926	70.17048
1028.29	102.25562
1028.654	70.16035
1029.017	74.18103
1029.381	33.07906
1029.744	38.09708
1030.107	122.28451
1030.471	95.22542
1030.834	82.18527
1031.197	116.27583
1031.56	65.15287
1031.923	58.14969
1032.286	79.18442
1032.648	77.18313
1033.011	66.15095
1033.374	113.26223
1033.736	47.12358
1034.099	95.2295
1034.461	14.03558
1034.823	70.17359
1035.185	49.12331
1035.548	83.20066
1035.91	61.14575
1036.272	73.16531
1036.634	129.31081
1036.995	60.1407
1037.357	84.20297
1037.719	90.21713
1038.08	55.13041
1038.442	17.04059
1038.803	94.22369
1039.165	81.20318
1039.526	73.17555
1039.887	55.13141
1040.248	43.10603
1040.609	124.3021
1040.97	53.12939
1041.331	24.06101
1041.692	32.07492
1042.053	86.19431
1042.413	96.22159
1042.774	87.21002
1043.134	110.25875
1043.495	86.21467
1043.855	61.14759
1044.215	64.15836
1044.576	55.13131
1044.936	115.2601
1045.296	85.21067
1045.656	67.16381
1046.016	85.20371
1046.375	76.18336
1046.735	18.04105
1047.095	71.16542
1047.454	79.16626
1047.814	64.15336
1048.173	104.24578
1048.533	67.15289
1048.892	21.05066
1049.251	72.17992
1049.61	51.12548
1049.969	57.13411
1050.328	47.10192
1050.687	54.13122
1051.046	99.23871
1051.405	80.19781
1051.763	57.13081
1052.122	71.1763
1052.48	57.13952
1052.839	62.14544
1053.197	101.23522
1053.555	94.2123
1053.914	84.20404
1054.272	98.23465
1054.63	36.0882
1054.988	27.06439
1055.345	72.15423
1055.703	116.27552
1056.061	52.13364
1056.419	49.12679
1056.776	66.15947
1057.134	40.09273
1057.491	88.21871
1057.848	90.22229
1058.206	94.21904
1058.563	65.14275
1058.92	72.16513
1059.277	106.25863
1059.634	127.29413
1059.991	98.2325
1060.348	68.15301
1060.704	43.10255
1061.061	127.2904
1061.418	79.19042
1061.774	63.15506
1062.131	28.07426
1062.487	29.06804
1062.843	80.19825
1063.199	58.14394
1063.555	53.12265
1063.911	64.16114
1064.267	136.27808
1064.623	48.11655
1064.979	116.27116
1065.335	82.19469
1065.691	74.17644
1066.046	74.1618
1066.402	96.21593
1066.757	77.19328
1067.112	78.19031
1067.468	67.15757
1067.823	114.27056
1068.178	102.24413
1068.533	64.15464
1068.888	43.10282
1069.243	85.20828
1069.598	87.20978
1069.952	21.04754
1070.307	61.15058
1070.662	69.1631
1071.016	87.19332
1071.371	64.14508
1071.725	108.25533
1072.079	67.16051
1072.434	16.0391
1072.788	77.18229
1073.142	121.29352
1073.496	81.19087
1073.85	101.23169
1074.203	56.13562
1074.557	74.19586
1074.911	102.24086
1075.265	119.27265
1075.618	68.16536
1075.971	82.19371
1076.325	92.23189
1076.678	78.17724
1077.031	94.21065
1077.385	81.17714
1077.738	95.21232
1078.091	52.11811
1078.444	60.13893
1078.796	81.19745
1079.149	90.22205
1079.502	56.13204
1079.855	60.13954
1080.207	88.21511
1080.56	30.07775
1080.912	64.15528
1081.264	53.12746
1081.617	56.13623
1081.969	79.19809
1082.321	66.16056
1082.673	22.05046
1083.025	85.20014
1083.377	63.13475
1083.728	114.2624
1084.08	54.1346
1084.432	69.16568
1084.783	70.16325
1085.135	43.10782
1085.486	59.13464
1085.838	77.18854
1086.189	56.13567
1086.54	83.1968
1086.891	38.09623
1087.242	96.23152
1087.593	87.21017
1087.944	112.25006
1088.295	88.19834
1088.646	63.1522
1088.996	14.03393
1089.347	68.16616
1089.698	32.07583
1090.048	97.24968
1090.398	108.2474
1090.749	69.16436
1091.099	38.09568
1091.449	90.22237
1091.799	69.17202
1092.149	31.07579
1092.499	65.15797
1092.849	64.16212
1093.199	85.21152
1093.548	57.13666
1093.898	86.21358
1094.248	57.14616
1094.597	6.01542
1094.947	81.21478
1095.296	31.07675
1095.645	88.22719
1095.994	74.17678
1096.343	79.19759
1096.692	1.00265
1097.041	52.14061
1097.39	84.20922
1097.739	65.16836
1098.088	108.28632
1098.437	38.09993
1098.785	90.24083
1099.134	109.28631
1099.482	60.16461
1099.83	90.23468
1100.179	26.06803
1100.527	73.19305
1100.875	28.07423
1101.223	75.19814
1101.571	53.14626
1101.919	7.01841
1102.267	87.24333
1102.615	4.01286
1102.962	17.05469
1103.31	7.02249
1103.658	27.0868
