Data from N2 R15 sample 5_Subt2__4__15-23-24-510.txt Node

Date: Tue Sep 02 15:23:24 PDT 2025
User: uwsun
Spectrometer: HDX01956
Trigger mode: 0
Integration Time (sec): 5.000000E-1
Scans to average: 1
Nonlinearity correction enabled: true
Boxcar width: 0
Storing dark spectrum: false
XAxis mode: Wavelengths
Number of Pixels in Spectrum: 2068
>>>>>Begin Spectral Data<<<<<
194.03	86.23818
194.578	71.22256
195.127	87.26811
195.676	73.22607
196.225	161.41556
196.773	127.34112
197.321	187.48634
197.87	263.61921
198.418	216.50629
198.966	211.49814
199.513	193.43472
200.061	212.48406
200.609	241.58019
201.156	194.38012
201.704	166.38026
202.251	232.55419
202.798	205.48248
203.345	298.65677
203.892	222.50403
204.438	239.5136
204.985	207.43832
205.532	250.59032
206.078	259.56831
206.624	240.52674
207.17	281.57912
207.716	226.49141
208.262	248.43406
208.808	194.42847
209.354	218.47583
209.899	305.68837
210.445	210.46846
210.99	217.46833
211.535	293.61091
212.08	285.58815
212.625	269.60242
213.17	282.63842
213.715	195.38687
214.259	245.51151
214.804	270.59781
215.348	265.54049
215.892	270.57784
216.436	322.65958
216.98	307.60082
217.524	228.48416
218.068	241.5475
218.612	241.54816
219.155	255.53688
219.698	300.63454
220.242	267.59991
220.785	237.4992
221.328	276.6172
221.871	233.53747
222.414	253.56986
222.956	181.39616
223.499	241.48752
224.041	303.63064
224.583	260.50582
225.126	200.40004
225.668	237.51939
226.21	189.43337
226.751	163.32414
227.293	244.50275
227.835	246.54013
228.376	238.49745
228.918	255.58235
229.459	176.39927
230	231.49598
230.541	199.41714
231.082	245.5342
231.622	234.48671
232.163	213.4664
232.704	163.36926
233.244	191.43092
233.784	252.55796
234.324	177.35017
234.864	186.38273
235.404	252.53932
235.944	265.56333
236.484	269.60317
237.023	242.51231
237.563	216.44887
238.102	220.4688
238.641	232.52951
239.18	167.35378
239.719	228.5166
240.258	236.47598
240.797	234.50145
241.335	242.53291
241.874	234.39857
242.412	237.50996
242.95	242.51478
243.488	238.48598
244.026	202.41846
244.564	241.44084
245.102	225.45119
245.64	229.49741
246.177	243.48571
246.715	241.51923
247.252	271.55323
247.789	288.47733
248.326	226.48326
248.863	203.39803
249.4	254.51323
249.936	239.43519
250.473	236.48955
251.009	218.44494
251.546	264.51287
252.082	220.42984
252.618	253.49725
253.154	255.54231
253.69	232.46447
254.226	212.45254
254.761	226.45141
255.297	181.3549
255.832	233.48992
256.367	227.47625
256.903	228.44335
257.438	255.53121
257.972	272.53194
258.507	208.4224
259.042	235.45097
259.576	180.34384
260.111	274.55796
260.645	284.53751
261.179	217.44903
261.713	241.47187
262.247	255.51868
262.781	212.39162
263.315	257.55394
263.849	246.54377
264.382	287.57765
264.915	247.50768
265.449	204.43811
265.982	286.5686
266.515	269.57532
267.048	251.46308
267.58	309.58641
268.113	266.49876
268.646	244.5301
269.178	209.41077
269.71	279.52973
270.243	296.58739
270.775	233.52396
271.307	282.59516
271.838	264.55277
272.37	230.49926
272.902	269.53393
273.433	278.5259
273.965	235.50348
274.496	244.53574
275.027	231.50453
275.558	226.482
276.089	204.43962
276.62	266.59509
277.15	320.68424
277.681	303.5666
278.211	290.6193
278.741	226.43234
279.272	273.53732
279.802	231.50752
280.332	262.53474
280.861	254.53254
281.391	250.49031
281.921	274.57396
282.45	247.54084
282.98	270.61424
283.509	228.44568
284.038	239.47217
284.567	335.66835
285.096	294.61122
285.625	211.41666
286.153	268.53928
286.682	267.52328
287.21	250.51929
287.739	253.51508
288.267	278.5759
288.795	260.59556
289.323	199.40237
289.851	291.58111
290.378	278.53079
290.906	285.58498
291.433	278.59393
291.961	224.43454
292.488	257.5499
293.015	271.54042
293.542	249.5397
294.069	284.59175
294.596	304.63962
295.122	281.56791
295.649	281.5226
296.175	274.56609
296.702	323.65969
297.228	336.68608
297.754	269.50825
298.28	286.54262
298.806	239.48769
299.332	232.43135
299.857	300.56196
300.383	266.57371
300.908	216.44266
301.433	268.54549
301.958	328.6293
302.483	230.48478
303.008	247.51775
303.533	362.78409
304.058	309.60617
304.582	246.48429
305.107	245.5376
305.631	364.67714
306.155	284.54383
306.679	303.57839
307.203	308.58351
307.727	329.63686
308.251	309.6288
308.775	272.5269
309.298	277.54108
309.822	267.55868
310.345	307.59143
310.868	282.54993
311.391	332.66437
311.914	305.62066
312.437	356.64942
312.96	344.64503
313.482	295.56284
314.005	286.58319
314.527	327.6921
315.049	332.67699
315.571	312.54178
316.093	342.6717
316.615	311.59395
317.137	332.56094
317.659	384.73142
318.18	359.68064
318.702	375.67144
319.223	355.5516
319.744	376.6398
320.265	317.59484
320.786	316.60394
321.307	378.71929
321.828	362.6183
322.348	385.68047
322.869	369.6498
323.389	397.44794
323.909	376.64291
324.43	415.75113
324.95	382.64089
325.47	337.61802
325.989	386.6625
326.509	334.52946
327.029	369.59389
327.548	324.52366
328.067	365.63199
328.587	431.77054
329.106	389.62183
329.625	488.92728
330.144	342.55777
330.662	375.60355
331.181	424.68265
331.7	427.68417
332.218	413.59691
332.736	412.65618
333.255	370.58621
333.773	425.67476
334.291	465.78768
334.808	455.65153
335.326	448.65259
335.844	480.70141
336.361	462.75655
336.879	459.67049
337.396	459.6983
337.913	451.64134
338.43	486.65878
338.947	464.68052
339.464	466.58132
339.981	494.69835
340.497	462.70308
341.014	525.75756
341.53	495.6374
342.046	426.62859
342.562	519.76761
343.078	549.72797
343.594	551.74287
344.11	550.73149
344.626	453.66744
345.141	499.62058
345.657	612.73391
346.172	521.6917
346.687	491.60459
347.202	612.68832
347.717	609.75346
348.232	605.80131
348.747	555.64728
349.261	508.53278
349.776	547.65124
350.29	513.64659
350.805	597.7564
351.319	666.73271
351.833	611.63369
352.347	599.66824
352.861	617.66408
353.374	648.68847
353.888	631.7182
354.401	646.66004
354.915	610.58062
355.428	643.72969
355.941	698.6806
356.454	688.65129
356.967	669.6845
357.48	676.65225
357.993	694.74231
358.505	531.58304
359.018	669.69526
359.53	722.69511
360.042	672.5741
360.554	709.69703
361.066	706.68432
361.578	643.51715
362.09	748.67815
362.602	668.52321
363.113	735.61195
363.625	671.53122
364.136	736.5384
364.647	570.46291
365.158	770.5959
365.669	775.63243
366.18	809.61967
366.691	816.52781
367.201	699.56255
367.712	751.50925
368.222	742.50279
368.733	726.41261
369.243	827.44793
369.753	832.5091
370.263	890.55611
370.773	787.55114
371.282	845.48816
371.792	712.34667
372.301	862.44979
372.811	917.57089
373.32	775.22819
373.829	845.32001
374.338	868.22773
374.847	965.22117
375.356	908.22279
375.865	975.02144
376.373	1074.03527
376.882	1101.18494
377.39	1020.08296
377.898	977.0073
378.407	1139.80937
378.915	1236.69616
379.423	1188.74392
379.93	1296.60282
380.438	1217.60652
380.946	1403.42434
381.453	1383.3884
381.96	1291.37224
382.468	1444.22787
382.975	1751.07343
383.482	1732.09093
383.989	1653.11704
384.495	1578.18899
385.002	1624.34426
385.509	1794.33498
386.015	1956.83911
386.521	2145.94008
387.028	2120.28361
387.534	2084.63291
388.04	2259.70213
388.546	1987.23745
389.051	2017.09407
389.557	2407.79167
390.063	2969.94264
390.568	2987.2405
391.073	3005.28765
391.578	3101.3943
392.084	3049.45663
392.589	2635.6231
393.093	2788.53604
393.598	3210.45816
394.103	3701.33809
394.607	4334.51541
395.112	4748.72848
395.616	4808.94563
396.12	4978.28188
396.624	5529.02541
397.128	6190.70143
397.632	7321.78935
398.136	7903.8827
398.639	6546.56888
399.143	6528.52732
399.646	7781.17288
400.15	8606.45725
400.653	8593.64774
401.156	9194.69983
401.659	4110.70349
402.162	952.64558
402.664	0
403.167	0
403.67	0
404.172	0
404.674	0
405.176	0
405.678	0
406.18	0
406.682	0
407.184	0
407.686	0
408.187	0
408.688	0
409.19	0
409.691	0
410.192	0
410.693	0
411.194	435.30976
411.694	4082.94878
412.195	8864.71461
412.696	12089.80453
413.196	12760.96929
413.696	12863.67595
414.196	13703.56671
414.696	17261.84252
415.196	21764.24417
415.696	28399.575
416.196	23612.91292
416.695	16353.49025
417.195	11850.89675
417.694	11018.95729
418.194	10885.89233
418.693	9495.85757
419.192	9363.10741
419.691	9084.7201
420.19	8943.55464
420.688	9185.46103
421.187	8967.96161
421.685	8620.81633
422.184	8117.09062
422.682	7192.98668
423.18	5594.52717
423.678	4692.31743
424.176	4316.13328
424.674	4313.45446
425.172	4225.40231
425.669	4111.96079
426.167	3761.08628
426.664	3537.38962
427.161	3094.65587
427.659	2799.56599
428.156	2545.51134
428.652	2318.96745
429.149	2262.94808
429.646	2338.92218
430.143	2164.89644
430.639	1963.99493
431.135	1870.11176
431.632	1856.12205
432.128	1510.42331
432.624	1358.60907
433.12	1251.54658
433.616	1266.55847
434.111	985.77054
434.607	1071.81198
435.103	1268.69476
435.598	1175.76317
436.093	1120.99333
436.588	1080.02768
437.083	1086.09241
437.578	1010.17815
438.073	745.26612
438.568	915.36028
439.062	806.20538
439.557	902.38067
440.051	717.30965
440.546	654.31039
441.04	718.40316
441.534	733.50488
442.028	643.4308
442.522	616.41997
443.015	618.3468
443.509	575.45197
444.002	589.4621
444.496	495.32565
444.989	561.46668
445.482	458.41572
445.975	444.3286
446.468	530.34657
446.961	533.35287
447.454	510.39675
447.947	438.38059
448.439	512.47677
448.931	412.33849
449.424	370.40264
449.916	468.45753
450.408	416.357
450.9	392.39429
451.392	424.46041
451.884	403.38593
452.375	301.33614
452.867	394.38405
453.358	320.31128
453.849	374.32485
454.341	296.29761
454.832	335.30844
455.323	303.34989
455.814	346.36703
456.304	322.34924
456.795	325.35069
457.285	396.41307
457.776	405.44582
458.266	314.36901
458.756	308.37999
459.247	298.35747
459.737	201.25172
460.226	298.33445
460.716	260.32943
461.206	278.35887
461.695	247.34912
462.185	237.30876
462.674	236.3015
463.163	294.3501
463.653	195.22394
464.142	181.2537
464.63	201.29205
465.119	184.24697
465.608	140.19152
466.096	200.25479
466.585	201.28084
467.073	197.29139
467.561	184.27607
468.05	223.31859
468.538	214.33256
469.026	211.31822
469.513	160.2075
470.001	162.23223
470.489	194.29214
470.976	196.29053
471.463	113.19106
471.951	144.24566
472.438	129.20275
472.925	68.10821
473.412	189.31852
473.899	145.22777
474.385	96.16687
474.872	124.19982
475.359	102.17645
475.845	153.21445
476.331	146.22236
476.817	91.16174
477.303	51.08656
477.789	109.19142
478.275	76.13933
478.761	119.21118
479.247	147.23951
479.732	26.04897
480.218	72.14294
480.703	31.05917
481.188	86.13685
481.673	83.14324
482.158	46.07265
482.643	70.13936
483.128	-1.00177
483.612	76.13687
484.097	87.16671
484.581	91.16469
485.066	51.09744
485.55	11.01891
486.034	21.03564
486.518	6.01118
487.002	-13.02555
487.486	11.02161
487.969	-11.02176
488.453	31.06377
488.936	9.01637
489.42	63.11168
489.903	28.05811
490.386	-417.62416
490.869	40.071
491.352	19.03879
491.835	57.09559
492.318	-27.05056
492.8	71.11867
493.283	23.04857
493.765	-5.01029
494.247	49.09562
494.73	18.03308
495.212	97.19496
495.694	34.06589
496.175	-50.09992
496.657	68.13462
497.139	87.1242
497.62	-45.09036
498.102	-12.02529
498.583	39.08287
499.064	-15.02824
499.545	13.02513
500.026	36.06777
500.507	36.0707
500.988	81.16979
501.469	41.08697
501.949	106.22087
502.43	58.11569
502.91	122.207
503.39	212.43938
503.87	157.3042
504.35	186.36444
504.83	162.29146
505.31	220.43657
505.79	250.48521
506.269	322.60407
506.749	281.5148
507.228	333.62147
507.707	412.70828
508.187	475.88521
508.666	425.81877
509.145	504.89947
509.623	593.04297
510.102	637.15512
510.581	784.37368
511.059	787.42559
511.538	864.61666
512.016	978.60025
512.494	1033.70611
512.972	1134.77444
513.45	1206.74804
513.928	1333.00612
514.406	1456.06667
514.884	1648.47464
515.361	1665.23661
515.839	1826.14779
516.316	1976.4209
516.793	2041.68819
517.27	2168.55587
517.747	2213.80197
518.224	2394.38933
518.701	2427.22061
519.178	2370.668
519.654	2455.54343
520.131	2508.71203
520.607	2549.75821
521.083	2474.33735
521.56	2452.49313
522.036	2458.186
522.512	2420.72734
522.987	2276.46984
523.463	2304.50758
523.939	2173.63287
524.414	2136.37298
524.89	2029.43687
525.365	1910.20912
525.84	1805.30762
526.315	1791.37483
526.79	1723.11864
527.265	1589.07724
527.74	1527.24125
528.215	1483.10613
528.689	1403.8644
529.164	1316.7619
529.638	1263.16706
530.112	1182.82971
530.587	1156.57324
531.061	1096.79215
531.534	1102.83007
532.008	1017.69719
532.482	975.56297
532.956	882.63903
533.429	930.61401
533.903	909.41967
534.376	832.32199
534.849	824.39412
535.322	735.30079
535.795	720.33548
536.268	660.21486
536.741	688.26207
537.213	676.18838
537.686	570.08728
538.158	575.99264
538.631	573.10016
539.103	517.90863
539.575	553.89381
540.047	496.86325
540.519	490.94242
540.991	512.00577
541.463	448.88155
541.934	425.78808
542.406	414.80352
542.877	415.75956
543.348	430.84892
543.82	421.84812
544.291	402.77055
544.762	360.70305
545.233	321.67256
545.703	365.65825
546.174	367.70158
546.645	304.60129
547.115	372.73545
547.585	347.65692
548.056	361.70918
548.526	355.67963
548.996	355.70167
549.466	365.7343
549.935	329.63534
550.405	392.68471
550.875	354.68083
551.344	320.63145
551.814	395.72916
552.283	418.7236
552.752	416.76697
553.221	373.64207
553.69	440.76656
554.159	429.83443
554.628	478.82399
555.096	434.87612
555.565	483.83639
556.033	479.89356
556.502	464.89842
556.97	560.9608
557.438	532.99713
557.906	573.07053
558.374	597.0676
558.842	615.14803
559.31	641.10758
559.777	711.31253
560.245	736.32185
560.712	801.39068
561.18	805.31227
561.647	843.38441
562.114	901.48819
562.581	1033.82782
563.048	1126.79139
563.514	1171.97872
563.981	1288.93934
564.448	1362.94954
564.914	1537.2056
565.381	1641.21243
565.847	1779.39428
566.313	1832.4025
566.779	1957.34428
567.245	2098.53963
567.711	2194.66767
568.176	2361.41673
568.642	2556.96397
569.108	2721.88011
569.573	2960.67027
570.038	3141.05302
570.504	3213.30942
570.969	3510.87945
571.434	3726.98125
571.899	3902.37991
572.363	4205.9634
572.828	4442.88168
573.293	4629.76763
573.757	4753.70273
574.222	5138.30075
574.686	5273.25126
575.15	5495.49623
575.614	5699.21038
576.078	5909.257
576.542	6143.05249
577.006	6382.96239
577.469	6526.46334
577.933	6660.92029
578.396	6872.24173
578.86	6952.21412
579.323	6911.23983
579.786	7133.94277
580.249	7066.09115
580.712	7129.43061
581.175	7047.44343
581.637	7131.19438
582.1	7101.00747
582.563	7134.9553
583.025	7047.36274
583.487	6979.67974
583.95	6968.8551
584.412	6889.77966
584.874	6726.33958
585.336	6553.21989
585.797	6529.80922
586.259	6369.2414
586.721	6199.21513
587.182	6024.29041
587.643	5933.13547
588.105	5761.41838
588.566	5602.87531
589.027	5396.65842
589.488	5242.44361
589.949	5165.85516
590.41	4915.78687
590.87	4939.63347
591.331	4679.4647
591.791	4568.86654
592.252	4409.88698
592.712	4297.29087
593.172	4152.96604
593.632	4013.92146
594.092	3917.0462
594.552	3800.91508
595.011	3630.31397
595.471	3454.27348
595.931	3353.2867
596.39	3339.66894
596.849	3204.56195
597.308	3185.22689
597.768	3001.08507
598.227	2993.79849
598.685	2858.58753
599.144	2819.65367
599.603	2815.72542
600.062	2615.16643
600.52	2620.42479
600.978	2594.72636
601.437	2410.55404
601.895	2499.2228
602.353	2388.4179
602.811	2391.40849
603.269	2324.72251
603.727	2236.6961
604.184	2151.40748
604.642	2138.75796
605.099	2054.50379
605.557	2133.74123
606.014	2059.2125
606.471	1964.72688
606.928	1944.14326
607.385	1906.57476
607.842	2086.44495
608.299	2042.51483
608.755	1860.54213
609.212	1908.26671
609.668	1881.22645
610.125	1855.56193
610.581	1941.58346
611.037	1882.41094
611.493	1773.46679
611.949	1664.43097
612.405	1642.86345
612.861	1730.43865
613.316	1615.37923
613.772	1661.29525
614.227	1693.40133
614.683	1637.08419
615.138	1573.29003
615.593	1575.27481
616.048	1553.22886
616.503	1595.49604
616.958	1550.50642
617.412	1535.31332
617.867	1506.07866
618.321	1481.9086
618.776	1417.03771
619.23	1389.17343
619.684	1386.07856
620.138	1382.15928
620.592	1307.199
621.046	1327.1379
621.5	1262.15558
621.954	1249.96169
622.407	1220.90431
622.861	1114.98738
623.314	1169.90837
623.768	1151.9385
624.221	1116.54805
624.674	1036.78054
625.127	1068.85817
625.58	1045.78699
626.033	1037.71368
626.485	1002.82475
626.938	957.76065
627.39	979.74549
627.843	962.71554
628.295	911.64654
628.747	906.69456
629.199	919.62982
629.651	795.45401
630.103	833.52596
630.555	849.42063
631.006	795.517
631.458	794.52571
631.909	817.52668
632.361	724.40369
632.812	725.38857
633.263	734.30475
633.714	698.24639
634.165	678.39451
634.616	625.2741
635.067	619.17836
635.518	660.34464
635.968	674.13664
636.419	695.27205
636.869	625.28334
637.319	612.2207
637.769	577.12011
638.219	641.32334
638.669	576.2004
639.119	538.16179
639.569	548.16573
640.019	558.13602
640.468	542.06732
640.918	551.17543
641.367	522.03896
641.816	553.0903
642.265	534.09596
642.714	503.04036
643.163	545.11026
643.612	432.94166
644.061	457.87069
644.51	445.91956
644.958	500.98342
645.406	420.91862
645.855	480.06376
646.303	485.02366
646.751	457.94224
647.199	460.94949
647.647	451.94365
648.095	445.92904
648.543	465.86399
648.99	458.99579
649.438	459.98502
649.885	447.01124
650.333	419.74367
650.78	428.94915
651.227	429.95868
651.674	398.83774
652.121	400.90071
652.568	374.84459
653.015	462.06958
653.461	394.86794
653.908	424.91051
654.354	406.8985
654.801	361.79009
655.247	423.85686
655.693	381.92719
656.139	366.82046
656.585	338.763
657.031	325.71282
657.477	337.6839
657.922	378.81139
658.368	368.85168
658.813	422.91129
659.259	327.74103
659.704	331.72781
660.149	355.77729
660.594	338.75739
661.039	301.65239
661.484	372.83562
661.929	342.75594
662.373	293.70429
662.818	318.74911
663.262	337.7671
663.707	287.69536
664.151	322.7479
664.595	279.64459
665.039	294.70011
665.483	267.65323
665.927	307.69091
666.371	235.52542
666.814	260.59938
667.258	243.55495
667.701	345.70813
668.145	264.63423
668.588	273.64525
669.031	246.55897
669.474	206.48436
669.917	276.59042
670.36	281.67057
670.803	269.62741
671.245	240.49295
671.688	270.63655
672.13	199.43722
672.573	275.67454
673.015	305.70297
673.457	242.51321
673.899	271.63506
674.341	254.59464
674.783	207.48548
675.225	256.6101
675.666	170.40221
676.108	223.47468
676.549	222.51464
676.991	229.49402
677.432	211.41352
677.873	253.56963
678.314	205.48041
678.755	219.52104
679.196	200.4504
679.637	243.57902
680.078	228.52269
680.518	274.62031
680.959	214.50258
681.399	147.3614
681.839	226.538
682.28	143.35001
682.72	193.43544
683.16	206.50298
683.6	244.5443
684.039	204.41996
684.479	195.47053
684.919	144.32986
685.358	198.49404
685.798	168.4343
686.237	212.5039
686.676	246.55851
687.115	182.42293
687.554	181.42484
687.993	157.34625
688.432	171.38769
688.871	148.33453
689.309	190.44761
689.748	203.42025
690.186	197.46437
690.625	124.29066
691.063	160.38075
691.501	188.45852
691.939	173.42626
692.377	168.40577
692.815	168.39794
693.253	147.35216
693.69	118.26073
694.128	127.30692
694.565	146.3469
695.003	172.4315
695.44	150.35091
695.877	120.28051
696.314	159.34169
696.751	186.42076
697.188	170.38754
697.625	179.4083
698.061	158.37642
698.498	200.47739
698.934	95.23011
699.371	103.24346
699.807	169.39667
700.243	119.2865
700.679	194.43474
701.115	182.42493
701.551	143.33617
701.987	160.35885
702.422	129.3061
702.858	132.31412
703.294	120.27312
703.729	158.38406
704.164	121.29143
704.599	148.32934
705.035	99.22327
705.47	95.23201
705.904	129.30054
706.339	179.41341
706.774	126.29534
707.209	144.33119
707.643	116.27912
708.078	131.31837
708.512	61.15384
708.946	134.32096
709.38	134.31729
709.814	144.32893
710.248	137.33308
710.682	116.27636
711.116	71.17081
711.549	121.31156
711.983	145.33422
712.416	201.46901
712.85	121.30143
713.283	131.30988
713.716	150.37482
714.149	176.41608
714.582	124.27937
715.015	135.33716
715.448	126.31702
715.881	192.4166
716.313	125.29317
716.746	122.28742
717.178	134.32145
717.61	122.30893
718.043	130.32332
718.475	88.21471
718.907	185.46286
719.339	58.1334
719.77	92.21927
720.202	100.25341
720.634	83.20316
721.065	97.23123
721.497	119.2917
721.928	92.22681
722.359	45.1099
722.79	98.23554
723.221	134.33618
723.652	129.33193
724.083	60.13733
724.514	161.36784
724.945	97.22928
725.375	90.21014
725.806	148.36755
726.236	124.31701
726.666	125.29603
727.096	105.25834
727.526	65.16632
727.956	109.24874
728.386	122.30022
728.816	93.23588
729.246	49.12051
729.675	87.21508
730.105	145.35517
730.534	83.19588
730.964	96.24353
731.393	180.44244
731.822	95.24326
732.251	124.31389
732.68	123.29028
733.109	109.26887
733.537	70.17054
733.966	110.27328
734.395	73.17041
734.823	146.3288
735.251	93.22509
735.68	109.27341
736.108	87.22105
736.536	112.26489
736.964	116.26967
737.392	129.32183
737.82	110.26458
738.247	108.25938
738.675	135.32206
739.102	99.2477
739.53	95.24223
739.957	96.24724
740.384	156.38232
740.811	134.33823
741.238	64.15767
741.665	76.1778
742.092	128.30542
742.519	37.09274
742.945	67.16241
743.372	100.24808
743.798	46.11946
744.225	110.26197
744.651	101.2538
745.077	110.27428
745.503	116.28303
745.929	111.26663
746.355	157.38769
746.781	72.17972
747.207	18.04302
747.632	76.18633
748.058	86.21553
748.483	113.26077
748.908	61.1529
749.334	80.19767
749.759	87.20636
750.184	49.11815
750.609	118.28973
751.033	120.28392
751.458	99.22355
751.883	137.33794
752.307	34.08132
752.732	41.10351
753.156	41.10251
753.58	135.31972
754.005	108.27407
754.429	102.2404
754.853	85.21137
755.277	97.23043
755.7	109.27035
756.124	63.15752
756.548	40.09614
756.971	99.24232
757.394	119.30556
757.818	91.23448
758.241	74.18865
758.664	94.23769
759.087	76.17109
759.51	83.20744
759.933	86.2078
760.356	96.24629
760.778	43.10697
761.201	102.24859
761.623	135.32625
762.046	156.36752
762.468	109.26223
762.89	124.30525
763.312	115.28054
763.734	85.20558
764.156	68.16906
764.578	83.19238
765	86.21069
765.421	74.18859
765.843	103.26963
766.264	136.32712
766.686	112.28088
767.107	65.15874
767.528	90.22734
767.949	90.2292
768.37	105.25767
768.791	142.34142
769.212	51.12908
769.632	33.078
770.053	96.25255
770.473	106.25776
770.894	88.22094
771.314	133.31644
771.734	68.15977
772.154	112.28673
772.575	88.20498
772.994	57.13086
773.414	95.22872
773.834	52.13107
774.254	54.13333
774.673	84.20534
775.093	85.21075
775.512	61.15125
775.931	97.24576
776.351	69.17214
776.77	41.10125
777.189	92.21927
777.607	104.26495
778.026	63.1578
778.445	21.05319
778.864	123.31373
779.282	112.26878
779.701	77.1946
780.119	58.14734
780.537	85.21229
780.955	138.3482
781.373	70.17385
781.791	66.14937
782.209	104.23967
782.627	57.15079
783.045	76.17563
783.462	90.22977
783.88	92.23759
784.297	123.30741
784.715	41.10601
785.132	93.22509
785.549	65.16322
785.966	75.18901
786.383	70.17277
786.8	124.28644
787.217	62.14783
787.633	55.13796
788.05	156.36637
788.466	128.30003
788.883	83.21156
789.299	99.23799
789.715	73.17795
790.131	102.25285
790.547	68.17036
790.963	84.20854
791.379	85.21475
791.795	107.24358
792.21	76.17822
792.626	89.21119
793.041	93.22915
793.457	98.24161
793.872	59.13951
794.287	72.1722
794.702	111.27219
795.117	75.1865
795.532	79.19795
795.947	120.2871
796.362	129.30574
796.776	179.41225
797.191	75.18385
797.605	35.08292
798.02	69.16832
798.434	84.18739
798.848	61.15075
799.262	74.18371
799.676	94.22893
800.09	82.20171
800.504	91.2205
800.918	72.16725
801.331	82.21477
801.745	62.14311
802.158	72.18018
802.572	131.31491
802.985	139.33249
803.398	102.24236
803.811	126.32122
804.224	121.29891
804.637	81.19294
805.05	115.26497
805.462	106.25921
805.875	53.1378
806.288	57.13801
806.7	57.14375
807.112	129.29639
807.525	88.21679
807.937	46.11433
808.349	104.25922
808.761	84.2064
809.173	75.18187
809.584	94.23166
809.996	62.15218
810.408	54.13975
810.819	75.17652
811.231	30.07804
811.642	51.12214
812.053	114.2691
812.464	144.33793
812.875	185.46336
813.286	100.2561
813.697	160.36842
814.108	93.22653
814.519	87.19372
814.929	106.2688
815.34	79.1915
815.75	72.18291
816.16	105.26024
816.571	105.27112
816.981	97.22821
817.391	46.11169
817.801	78.1935
818.211	111.26288
818.62	48.11611
819.03	66.162
819.44	119.30823
819.849	83.20872
820.259	105.26716
820.668	62.15274
821.077	51.1271
821.486	84.20197
821.895	122.29878
822.304	61.1618
822.713	77.18194
823.122	61.15252
823.531	46.10964
823.939	65.15857
824.348	89.21574
824.756	79.19759
825.164	117.292
825.573	52.13088
825.981	100.24672
826.389	101.25234
826.797	77.19259
827.205	58.1335
827.612	118.28866
828.02	54.12722
828.428	67.17066
828.835	38.10047
829.243	76.181
829.65	39.09747
830.057	87.21049
830.464	55.13437
830.871	109.25914
831.278	83.20013
831.685	112.24799
832.092	125.30288
832.499	113.24514
832.905	76.19211
833.312	89.20236
833.718	88.21847
834.124	91.20716
834.531	83.20864
834.937	67.17192
835.343	100.23989
835.749	89.20719
836.155	59.15461
836.561	97.23725
836.966	92.22397
837.372	95.24052
837.777	58.14467
838.183	58.12933
838.588	63.15649
838.993	89.21582
839.399	45.11043
839.804	40.09793
840.209	64.16287
840.613	88.19501
841.018	77.19453
841.423	84.21468
841.828	90.22653
842.232	119.29192
842.637	94.2206
843.041	56.14367
843.445	98.24427
843.849	65.16087
844.253	81.19198
844.657	90.22547
845.061	85.19217
845.465	72.17364
845.869	91.21042
846.272	55.13412
846.676	74.17867
847.079	60.15259
847.483	90.22343
847.886	101.24409
848.289	45.12036
848.692	66.16701
849.095	104.24787
849.498	152.37913
849.901	73.16719
850.304	87.207
850.707	68.17317
851.109	149.37118
851.512	81.19833
851.914	40.10115
852.316	79.19916
852.718	12.03123
853.121	92.22414
853.523	65.15185
853.925	74.1925
854.326	27.0679
854.728	47.12111
855.13	86.22071
855.531	39.09358
855.933	107.25468
856.334	48.1199
856.736	37.08331
857.137	84.19443
857.538	68.17066
857.939	79.19444
858.34	79.19186
858.741	43.11268
859.142	97.23141
859.542	69.18167
859.943	82.2029
860.343	47.11662
860.744	98.23742
861.144	61.14875
861.544	-1.00243
861.945	45.11495
862.345	86.20929
862.745	52.12938
863.145	98.23259
863.544	79.19887
863.944	102.239
864.344	83.20527
864.743	97.23901
865.143	63.16166
865.542	100.23008
865.941	87.21421
866.34	93.22136
866.74	54.14498
867.139	49.11753
867.537	97.24541
867.936	82.19649
868.335	65.16515
868.734	87.22113
869.132	70.16228
869.531	108.25879
869.929	60.13673
870.327	79.18861
870.726	128.3151
871.124	71.16555
871.522	88.22292
871.92	82.20134
872.318	60.14661
872.715	106.26008
873.113	89.21557
873.511	70.17397
873.908	-3.00765
874.306	59.14666
874.703	94.23362
875.1	109.27626
875.497	87.20739
875.894	57.13962
876.291	79.19308
876.688	58.14953
877.085	82.19581
877.482	102.25322
877.878	65.1562
878.275	83.20984
878.671	147.32134
879.068	102.24413
879.464	96.2303
879.86	39.09254
880.256	99.24241
880.652	56.14241
881.048	81.19981
881.444	68.16151
881.84	91.22982
882.236	71.17803
882.631	120.29104
883.027	86.20709
883.422	56.14317
883.817	79.19766
884.213	85.21696
884.608	34.0837
885.003	92.22028
885.398	56.14014
885.793	64.16039
886.188	87.215
886.582	138.34883
886.977	95.22377
887.371	108.27056
887.766	45.1121
888.16	95.23537
888.554	98.24045
888.949	105.26129
889.343	149.35764
889.737	13.03487
890.131	53.13299
890.525	94.23871
890.918	106.2643
891.312	100.23724
891.706	80.20896
892.099	92.23255
892.492	67.14423
892.886	111.26876
893.279	56.14261
893.672	32.08178
894.065	85.21167
894.458	65.16316
894.851	142.34233
895.244	55.14044
895.637	102.24348
896.029	87.21144
896.422	84.20411
896.814	84.2077
897.206	62.14743
897.599	103.25248
897.991	68.164
898.383	67.15794
898.775	68.15308
899.167	55.12824
899.559	90.22636
899.951	99.23138
900.342	117.29422
900.734	23.05738
901.125	77.20123
901.517	73.17855
901.908	99.23537
902.299	80.19461
902.69	72.1693
903.082	116.27764
903.473	69.16474
903.863	76.19314
904.254	85.19608
904.645	96.23694
905.036	74.17847
905.426	126.28434
905.817	75.1833
906.207	46.10976
906.597	53.12397
906.987	110.28231
907.378	71.17899
907.768	73.19234
908.158	98.23697
908.547	41.10612
908.937	83.21186
909.327	99.23835
909.717	92.23197
910.106	54.12969
910.495	106.2621
910.885	54.13674
911.274	67.16703
911.663	90.22693
912.052	108.26381
912.441	63.1599
912.83	58.13302
913.219	92.23916
913.608	54.13225
913.997	13.03282
914.385	75.17845
914.774	50.12182
915.162	49.11685
915.55	104.2492
915.939	63.15871
916.327	71.17662
916.715	51.13
917.103	99.2416
917.491	100.24526
917.878	91.22216
918.266	88.22679
918.654	81.20588
919.041	66.17187
919.429	80.18781
919.816	108.27105
920.203	46.11169
920.591	106.26027
920.978	104.25224
921.365	65.17016
921.752	75.17803
922.139	88.18964
922.525	32.07715
922.912	57.1389
923.299	78.19294
923.685	52.13564
924.072	118.26857
924.458	88.21655
924.844	76.18723
925.231	83.192
925.617	42.107
926.003	113.28569
926.389	46.11615
926.774	79.19923
927.16	61.15125
927.546	82.20816
927.931	74.18391
928.317	99.22592
928.702	134.312
929.088	46.10892
929.473	98.24728
929.858	41.09931
930.243	34.08187
930.628	75.18166
931.013	63.1558
931.398	107.24338
931.783	69.18112
932.167	70.17054
932.552	102.25322
932.937	106.26046
933.321	79.19723
933.705	106.26459
934.09	118.29465
934.474	122.28586
934.858	75.19373
935.242	49.11362
935.626	71.1811
936.009	46.12244
936.393	82.2075
936.777	63.16098
937.16	75.19433
937.544	129.29936
937.927	60.15199
938.311	113.27267
938.694	99.25969
939.077	64.15283
939.46	107.26005
939.843	121.24859
940.226	67.17138
940.609	57.1307
940.991	50.12729
941.374	59.14398
941.757	88.21567
942.139	74.16542
942.522	106.24788
942.904	87.20771
943.286	83.20969
943.668	63.16284
944.05	84.20564
944.432	76.18668
944.814	95.2321
945.196	16.03924
945.578	62.14703
945.959	61.14268
946.341	140.33801
946.722	102.23703
947.104	86.20418
947.485	55.12789
947.866	37.09345
948.247	108.26968
948.628	63.15334
949.009	91.23138
949.39	91.22488
949.771	129.29544
950.152	99.24079
950.532	-8.01989
950.913	92.2202
951.293	30.08131
951.674	79.19006
952.054	58.14352
952.434	84.20724
952.814	83.19626
953.194	85.22115
953.574	61.14997
953.954	93.21906
954.334	88.21783
954.714	49.11945
955.093	113.27463
955.473	42.10518
955.853	71.18314
956.232	61.1669
956.611	109.25854
956.99	61.15301
957.37	84.21279
957.749	61.14525
958.128	107.26685
958.506	66.17074
958.885	59.14869
959.264	49.12011
959.643	98.22088
960.021	61.15086
960.4	102.22877
960.778	73.17908
961.156	43.10794
961.535	91.21042
961.913	90.20898
962.291	71.18148
962.669	62.15672
963.047	133.33445
963.424	64.16293
963.802	79.19322
964.18	103.25817
964.557	94.21464
964.935	123.28735
965.312	61.15855
965.69	105.26034
966.067	77.18658
966.444	95.23218
966.821	96.24552
967.198	131.313
967.575	100.24363
967.952	97.22652
968.329	85.2055
968.705	42.09024
969.082	77.19654
969.458	45.10805
969.835	72.17456
970.211	64.16385
970.587	66.16385
970.963	143.36088
971.339	64.16671
971.715	94.23285
972.091	128.31068
972.467	72.17888
972.843	39.09698
973.219	130.30746
973.594	59.15408
973.97	125.29329
974.345	75.17865
974.721	100.23989
975.096	74.17826
975.471	52.12332
975.846	84.20051
976.221	72.18213
976.596	96.2281
976.971	79.19401
977.346	91.21017
977.72	74.18772
978.095	83.21327
978.469	80.18987
978.844	85.21237
979.218	27.06501
979.593	110.26056
979.967	80.19381
980.341	106.24135
980.715	61.1534
981.089	67.16721
981.463	64.14655
981.837	64.15598
982.21	118.27096
982.584	60.14465
982.957	60.14955
983.331	111.25932
983.704	14.03463
984.078	54.13298
984.451	135.33202
984.824	84.20327
985.197	104.25006
985.57	127.31408
985.943	116.28303
986.316	120.29104
986.688	59.14205
987.061	109.25255
987.434	80.20739
987.806	100.24026
988.179	88.20611
988.551	123.30797
988.923	104.25356
989.295	121.29847
989.667	54.1289
990.039	61.15042
990.411	90.2055
990.783	59.13562
991.155	5.01212
991.527	114.27742
991.898	89.22018
992.27	105.2571
992.641	77.19224
993.012	140.32366
993.384	98.2316
993.755	63.16024
994.126	45.10834
994.497	14.03459
994.868	87.19837
995.239	78.18804
995.61	22.05563
995.98	50.12145
996.351	42.10416
996.722	71.16398
997.092	30.07131
997.462	59.13757
997.833	88.20708
998.203	91.21892
998.573	58.1442
998.943	60.14042
999.313	115.27214
999.683	62.14845
1000.053	103.23448
1000.423	78.18854
1000.792	70.18078
1001.162	73.17888
1001.531	59.14522
1001.901	76.18854
1002.27	89.19735
1002.639	43.10999
1003.009	87.2054
1003.378	71.18085
1003.747	90.21096
1004.116	102.24161
1004.485	68.16195
1004.853	130.32462
1005.222	117.29147
1005.591	50.11871
1005.959	79.17693
1006.328	49.11028
1006.696	47.11341
1007.064	55.13821
1007.433	90.22327
1007.801	126.3049
1008.169	101.25271
1008.537	109.23838
1008.905	43.1003
1009.273	73.17954
1009.64	50.11926
1010.008	88.20821
1010.375	102.24525
1010.743	126.28654
1011.11	78.18355
1011.478	67.16527
1011.845	69.16164
1012.212	95.21302
1012.579	81.19767
1012.946	91.21485
1013.313	129.30232
1013.68	117.25933
1014.047	51.12148
1014.414	98.22926
1014.78	59.14634
1015.147	92.2207
1015.513	82.19634
1015.88	104.26336
1016.246	85.20844
1016.612	114.25757
1016.978	89.21647
1017.344	77.18931
1017.71	110.26518
1018.076	93.21744
1018.442	77.1971
1018.808	56.13979
1019.174	75.18725
1019.539	130.29444
1019.905	79.18521
1020.27	49.12092
1020.636	104.24673
1021.001	118.27875
1021.366	64.15324
1021.731	95.24232
1022.096	26.06584
1022.461	82.19281
1022.826	100.23532
1023.191	57.14932
1023.556	39.09158
1023.92	85.20759
1024.285	97.2346
1024.649	87.21168
1025.014	87.21397
1025.378	90.22457
1025.742	57.14133
1026.107	93.20845
1026.471	151.34541
1026.835	54.13372
1027.199	12.02908
1027.562	103.23685
1027.926	103.2493
1028.29	85.21367
1028.654	45.1036
1029.017	89.21711
1029.381	71.16886
1029.744	89.22533
1030.107	124.28906
1030.471	92.21843
1030.834	68.15408
1031.197	100.23852
1031.56	90.21063
1031.923	62.1599
1032.286	120.27787
1032.648	99.23446
1033.011	38.0874
1033.374	93.21667
1033.736	60.15742
1034.099	51.12423
1034.461	53.13376
1034.823	48.11951
1035.185	87.21744
1035.548	63.15288
1035.91	72.17167
1036.272	100.2252
1036.634	70.17054
1036.995	80.18686
1037.357	45.10953
1037.719	96.23135
1038.08	122.28552
1038.442	26.06197
1038.803	80.19089
1039.165	79.19823
1039.526	110.26267
1039.887	57.13614
1040.248	65.15963
1040.609	89.21825
1040.97	56.13664
1041.331	73.18397
1041.692	42.09814
1042.053	123.27581
1042.413	124.28462
1042.774	69.16713
1043.134	115.27025
1043.495	64.16039
1043.855	69.16669
1044.215	113.2771
1044.576	46.11001
1044.936	123.27774
1045.296	98.24232
1045.656	85.20712
1046.016	126.29961
1046.375	101.24252
1046.735	53.12002
1047.095	84.1952
1047.454	86.18071
1047.814	74.17698
1048.173	101.23883
1048.533	64.14614
1048.892	54.12944
1049.251	82.20454
1049.61	57.14009
1049.969	79.18507
1050.328	88.18915
1050.687	56.13603
1051.046	95.22924
1051.405	97.2391
1051.763	35.08068
1052.122	81.20076
1052.48	76.18537
1052.839	58.13617
1053.197	89.20776
1053.555	121.27177
1053.914	99.23979
1054.272	114.27212
1054.63	45.11006
1054.988	43.10223
1055.345	87.18575
1055.703	76.1819
1056.061	56.14382
1056.419	53.13704
1056.776	89.21411
1057.134	40.09273
1057.491	112.27714
1057.848	100.24654
1058.206	78.18233
1058.563	66.14492
1058.92	98.22359
1059.277	116.2825
1059.634	111.25789
1059.991	122.28809
1060.348	45.10174
1060.704	61.14497
1061.061	157.35682
1061.418	38.0923
1061.774	96.23484
1062.131	8.02129
1062.487	46.10757
1062.843	54.13445
1063.199	93.22932
1063.555	41.09511
1063.911	91.22801
1064.267	158.32145
1064.623	21.05125
1064.979	111.25973
1065.335	120.28282
1065.691	106.25118
1066.046	99.21532
1066.402	72.16275
1066.757	92.23031
1067.112	83.20233
1067.468	49.11564
1067.823	90.21459
1068.178	126.30019
1068.533	76.18322
1068.888	106.25041
1069.243	62.15257
1069.598	69.16694
1069.952	15.034
1070.307	39.09666
1070.662	70.16543
1071.016	34.07638
1071.371	85.19186
1071.725	107.25301
1072.079	93.2217
1072.434	68.16455
1072.788	89.21021
1073.142	88.21479
1073.496	51.12088
1073.85	76.17521
1074.203	123.29411
1074.557	43.1144
1074.911	168.39163
1075.265	58.13452
1075.618	115.27719
1075.971	71.16808
1076.325	66.16713
1076.678	36.0825
1077.031	120.26748
1077.385	78.17069
1077.738	58.13062
1078.091	31.07071
1078.444	110.25218
1078.796	68.16616
1079.149	53.13165
1079.502	29.06873
1079.855	73.16934
1080.207	123.29871
1080.56	58.14958
1080.912	92.22204
1081.264	69.16543
1081.617	41.10002
1081.969	61.15345
1082.321	58.14131
1082.673	18.04132
1083.025	99.23247
1083.377	135.28424
1083.728	64.14878
1084.08	72.17888
1084.432	55.13242
1084.783	113.26129
1085.135	74.18452
1085.486	52.11883
1085.838	69.1692
1086.189	89.21428
1086.54	75.1781
1086.891	47.11883
1087.242	66.16007
1087.593	103.24807
1087.944	63.14208
1088.295	99.22263
1088.646	68.16412
1088.996	56.13465
1089.347	72.17581
1089.698	36.08524
1090.048	98.25221
1090.398	74.17067
1090.749	81.1925
1091.099	56.14055
1091.449	73.18093
1091.799	89.22107
1092.149	-1.00246
1092.499	81.19627
1092.849	73.18463
1093.199	87.21642
1093.548	81.19331
1093.898	64.15958
1094.248	103.26198
1094.597	-4.0103
1094.947	89.23568
1095.296	92.22523
1095.645	91.23481
1095.994	107.25399
1096.343	73.18278
1096.692	18.0475
1097.041	37.1003
1097.39	106.26296
1097.739	73.18882
1098.088	101.26808
1098.437	23.06064
1098.785	91.24347
1099.134	92.24235
1099.482	75.20527
1099.83	84.21926
1100.179	40.10441
1100.527	71.18782
1100.875	55.14516
1101.223	52.13791
1101.571	45.12434
1101.919	32.08379
1102.267	57.16016
1102.615	2.00643
1102.962	21.06753
1103.31	3.00964
1103.658	21.06756
