Data from N2 R15 sample 4_Subt2__2__15-34-53-493.txt Node

Date: Tue Sep 02 15:34:53 PDT 2025
User: uwsun
Spectrometer: HDX01956
Trigger mode: 0
Integration Time (sec): 5.000000E-1
Scans to average: 1
Nonlinearity correction enabled: true
Boxcar width: 0
Storing dark spectrum: false
XAxis mode: Wavelengths
Number of Pixels in Spectrum: 2068
>>>>>Begin Spectral Data<<<<<
194.03	-42.11864
194.578	-46.14628
195.127	-37.11584
195.676	-34.10673
196.225	36.09493
196.773	-15.04122
197.321	-25.06737
197.87	2.00495
198.418	13.03168
198.966	-62.15409
199.513	-64.15172
200.061	-68.164
200.609	-14.03533
201.156	-35.0723
201.704	-57.1364
202.251	-57.14365
202.798	-16.03927
203.345	3.00702
203.892	-16.03808
204.438	-25.05677
204.985	-86.19376
205.532	-8.01983
206.078	18.0415
206.624	-43.09998
207.17	20.04364
207.716	-42.09652
208.262	50.09208
208.808	-71.16548
209.354	-24.05507
209.899	35.08334
210.445	-70.16517
210.99	-28.0636
211.535	5.01109
212.08	-19.04189
212.625	-18.04269
213.17	14.03342
213.715	-109.23162
214.259	-26.05755
214.804	36.08359
215.348	21.04521
215.892	-20.04548
216.436	42.09148
216.98	22.04596
217.524	1.00223
218.068	1.00238
218.612	-6.01433
219.155	-32.07162
219.698	12.02698
220.242	41.09639
220.785	27.0595
221.328	11.02594
221.871	37.08868
222.414	41.09635
222.956	-18.04105
223.499	-19.04073
224.041	21.04645
224.583	61.1243
225.126	-9.01887
225.668	5.01149
226.21	-8.01907
226.751	1.00206
227.293	6.01302
227.835	-35.08138
228.376	33.07211
228.918	16.0383
229.459	-16.03771
230	11.02474
230.541	21.04575
231.082	-8.01838
231.622	8.01748
232.163	-7.01604
232.704	-3.00703
233.244	-36.08498
233.784	3.00699
234.324	-71.14863
234.864	-53.11493
235.404	18.04047
235.944	18.04032
236.484	-11.02608
237.023	-6.01339
237.563	-15.03278
238.102	6.01338
238.641	-4.00956
239.18	-54.11992
239.719	0
240.258	-25.05345
240.797	19.04261
241.335	-36.08389
241.874	-1.00181
242.412	-5.01132
242.95	-53.11997
243.488	-26.05627
244.026	-4.00867
244.564	20.03863
245.102	-30.06371
245.64	36.08141
246.177	-32.06804
246.715	-20.0455
247.252	-17.03697
247.789	45.07961
248.326	-26.05863
248.863	-8.01647
249.4	20.04258
249.936	11.02119
250.473	-1.00218
251.009	-39.08424
251.546	-3.0062
252.082	-18.03716
252.618	-12.02506
253.154	-6.01348
253.69	-27.0573
254.226	-50.11279
254.761	-28.05923
255.297	-19.03902
255.832	2.00442
256.367	20.04388
256.903	-1.00205
257.438	23.05038
257.972	-17.03552
258.507	-76.16434
259.042	-7.01422
259.576	-81.16453
260.111	45.09641
260.645	-12.02436
261.179	-36.07871
261.713	-49.10253
262.247	-16.03455
262.781	-20.03909
263.315	-61.14044
263.849	-63.14822
264.382	5.01072
264.915	-68.14969
265.449	-108.2475
265.982	10.02116
266.515	16.03609
267.048	-60.11934
267.58	-20.04101
268.113	-13.02606
268.646	-25.05742
269.178	-19.03935
269.71	-28.05715
270.243	-72.15516
270.775	-62.14783
271.307	24.05352
271.838	5.01107
272.37	-47.10803
272.902	-52.11095
273.433	-44.0898
273.965	-61.13903
274.496	-28.06499
275.027	2.00458
275.558	-52.11759
276.089	-107.24594
276.62	-20.04738
277.15	-35.08058
277.681	21.04201
278.211	-22.05015
278.741	-51.10412
279.272	-71.15107
279.802	-6.01384
280.332	-23.04998
280.861	-13.02886
281.391	-62.13057
281.921	21.04645
282.45	-21.04858
282.98	-13.03126
283.509	-61.12742
284.038	-4.00835
284.567	21.04495
285.096	-40.08934
285.625	-32.0668
286.153	-69.14962
286.682	-16.03346
287.21	-87.19428
287.739	-15.0324
288.267	-73.16309
288.795	-46.11182
289.323	-76.16336
289.851	-14.02994
290.378	-22.04507
290.906	-101.22536
291.433	-48.10978
291.961	-59.1222
292.488	-69.15803
293.015	-43.09201
293.542	-52.11993
294.069	-40.08934
294.596	-46.10423
295.122	-32.06932
295.649	-32.06415
296.175	-36.07955
296.702	12.02624
297.228	-7.01541
297.754	-35.07106
298.28	-63.12972
298.806	-85.1862
299.332	-51.10151
299.857	-37.07509
300.383	-34.07804
300.908	-123.27138
301.433	-58.12682
301.958	-56.11741
302.483	-91.20531
303.008	-55.12298
303.533	-16.03745
304.058	-33.06997
304.582	-57.12022
305.107	-123.29073
305.631	0
306.155	-80.16669
306.679	-99.20743
307.203	-27.05535
307.727	-58.12268
308.251	-81.17946
308.775	-106.22392
309.298	-137.2939
309.822	-89.20088
310.345	-93.19641
310.868	-62.1308
311.391	-82.17982
311.914	-91.20187
312.437	-24.048
312.96	-73.15099
313.482	-94.1963
314.005	-114.25358
314.527	-65.14935
315.049	-76.16933
315.571	-75.14365
316.093	-71.15304
316.615	-75.15666
317.137	-108.2044
317.659	-23.04815
318.18	-38.07904
318.702	-57.11346
319.223	-81.14202
319.744	-57.10838
320.265	-156.32693
320.786	-104.21902
321.307	-103.21896
321.828	-127.2456
322.348	-64.12641
322.869	-176.35432
323.389	-246.34715
323.909	-116.2247
324.43	-65.13209
324.95	-103.19584
325.47	-123.25179
325.989	-112.21799
326.509	-155.28051
327.029	-77.13971
327.548	-200.37148
328.067	-143.28118
328.587	-60.1209
329.106	-129.23692
329.625	-73.15769
330.144	-146.27091
330.662	-155.28725
331.181	-166.31233
331.7	-137.25503
332.218	-214.37041
332.736	-148.2738
333.255	-218.40431
333.773	-148.27394
334.291	-117.22962
334.808	-203.35146
335.326	-187.32651
335.844	-240.42958
336.361	-179.346
336.879	-209.36898
337.396	-215.39348
337.913	-231.40015
338.43	-224.37556
338.947	-217.38571
339.464	-248.38857
339.981	-253.44363
340.497	-194.35352
341.014	-222.39593
341.53	-209.33518
342.046	-249.4442
342.562	-200.36149
343.078	-231.38762
343.594	-243.4149
344.11	-206.34424
344.626	-259.46587
345.141	-230.36099
345.657	-192.29889
346.172	-231.38507
346.687	-284.4481
347.202	-291.44339
347.717	-246.39847
348.232	-267.45884
348.747	-276.42367
349.261	-315.44358
349.776	-317.49946
350.29	-326.53376
350.805	-240.39424
351.319	-243.36451
351.833	-379.5573
352.347	-291.43891
352.861	-285.41954
353.374	-266.38904
353.888	-299.46347
354.401	-264.37422
354.915	-301.40448
355.428	-347.54612
355.941	-356.50983
356.454	-191.25271
356.967	-354.52036
357.48	-308.42806
357.993	-335.50986
358.505	-375.56159
359.018	-341.50509
359.53	-297.41662
360.042	-361.46658
360.554	-327.46842
361.066	-379.54569
361.578	-360.44104
362.09	-329.45005
362.602	-335.40262
363.113	-352.45478
363.625	-394.48793
364.136	-298.34502
364.647	-459.57196
365.158	-388.48833
365.669	-341.4386
366.18	-361.45289
366.691	-379.42923
367.201	-402.50987
367.712	-398.45715
368.222	-410.47131
368.733	-428.43998
369.243	-455.47803
369.753	-409.45515
370.263	-381.43413
370.773	-442.53391
371.282	-469.51843
371.792	-571.56555
372.301	-527.56556
372.811	-510.61442
373.32	-555.43439
373.829	-597.55405
374.338	-512.39014
374.847	-613.48991
375.356	-605.48056
375.865	-635.34674
376.373	-696.43057
376.882	-576.43644
377.39	-659.42788
377.898	-906.57323
378.407	-791.31109
378.915	-741.20991
379.423	-863.31093
379.93	-772.16231
380.438	-952.2097
380.946	-961.09781
381.453	-1104.07822
381.96	-1125.94106
382.468	-1383.79227
382.975	-1265.77271
383.482	-1263.62238
383.989	-1428.7155
384.495	-1361.4916
385.002	-1607.24804
385.509	-1634.2403
386.015	-1674.10933
386.521	-1813.05164
387.028	-1952.98445
387.534	-1946.02292
388.04	-1937.0113
388.546	-2239.03184
389.051	-2447.21204
389.557	-2601.44322
390.063	-2289.73067
390.568	-2498.07799
391.073	-2727.85037
391.578	-2804.12286
392.084	-3137.34307
392.589	-3630.36259
393.093	-3992.11408
393.598	-4134.62415
394.103	-4375.99015
394.607	-4676.97038
395.112	-4913.33007
395.616	-5365.38044
396.12	-6017.28351
396.624	-6583.20477
397.128	-6982.23554
397.632	-7385.12088
398.136	-8208.55257
398.639	-10270.58967
399.143	-11886.90436
399.646	-13091.83078
400.15	-14346.6111
400.653	-17047.31925
401.156	-19869.14205
401.659	-23489.6351
402.162	-19537.40086
402.664	-5869.08249
403.167	-1122.46231
403.67	0
404.172	0
404.674	0
405.176	0
405.678	0
406.18	0
406.682	0
407.184	0
407.686	0
408.187	0
408.688	0
409.19	0
409.691	0
410.192	0
410.693	-6400.1773
411.194	-11856.86128
411.694	-11199.07414
412.195	-9858.1039
412.696	-10721.84137
413.196	-12784.67441
413.696	-13740.50866
414.196	-12915.73855
414.696	-10404.79075
415.196	-7757.43165
415.696	-2980.06538
416.196	-1689.26477
416.695	-3550.25807
417.195	-5260.12463
417.694	-4943.83273
418.194	-4373.2493
418.693	-4691.82709
419.192	-4584.52258
419.691	-4686.89095
420.19	-4354.67292
420.688	-3882.2113
421.187	-3477.98334
421.685	-2762.1995
422.184	-2219.1581
422.682	-1982.42133
423.18	-2174.87379
423.678	-2138.07714
424.176	-2011.09474
424.674	-1898.43472
425.172	-1522.8606
425.669	-1328.54473
426.167	-1064.52452
426.664	-1185.37729
427.161	-1097.39314
427.659	-1099.4302
428.156	-1165.39111
428.652	-1092.58955
429.149	-1022.62575
429.646	-905.66061
430.143	-892.80853
430.639	-907.8675
431.135	-875.99778
431.632	-714.96803
432.128	-839.12274
432.624	-878.2596
433.12	-872.11496
433.616	-826.12041
434.111	-950.28777
434.607	-870.33799
435.103	-699.19995
435.598	-643.19296
436.093	-652.36855
436.588	-575.32437
437.083	-649.43737
437.578	-526.37589
438.073	-695.62833
438.568	-537.50929
439.062	-602.46107
439.557	-565.55863
440.051	-558.51515
440.546	-623.60736
441.04	-590.64121
441.534	-538.6534
442.028	-563.65664
442.522	-505.57703
443.015	-521.52902
443.509	-517.64392
444.002	-565.71825
444.496	-508.54186
444.989	-506.65002
445.482	-584.79238
445.975	-603.70971
446.468	-492.52643
446.961	-551.60932
447.454	-534.64947
447.947	-566.73476
448.439	-492.67131
448.931	-571.70682
449.424	-489.71745
449.916	-488.6798
450.408	-502.62675
450.9	-581.83171
451.392	-580.88761
451.884	-476.63673
452.375	-561.84096
452.867	-426.56636
453.358	-564.7652
453.849	-498.61737
454.341	-454.60444
454.832	-550.71589
455.323	-518.78745
455.814	-478.67999
456.304	-468.67038
456.795	-524.76154
457.285	-462.65555
457.776	-350.50154
458.266	-538.83694
458.756	-422.65865
459.247	-507.79074
459.737	-493.77113
460.226	-437.63242
460.716	-449.71207
461.206	-397.63318
461.695	-425.73083
462.185	-429.68777
462.674	-380.59064
463.163	-381.56817
463.653	-371.51883
464.142	-425.71287
464.63	-368.63025
465.119	-398.63895
465.608	-461.75639
466.096	-386.5933
466.585	-325.53167
467.073	-372.64703
467.561	-381.67024
468.05	-369.6267
468.538	-363.66034
469.026	-378.6721
469.513	-367.56292
470.001	-367.61454
470.489	-319.55527
470.976	-332.57224
471.463	-357.68114
471.951	-350.67703
472.438	-394.71402
472.925	-371.6653
473.412	-287.54678
473.899	-331.59234
474.385	-342.66377
474.872	-349.63842
475.359	-348.67445
475.845	-281.44914
476.331	-284.48845
476.817	-313.61488
477.303	-326.61007
477.789	-329.64449
478.275	-310.62379
478.761	-328.64998
479.247	-299.5486
479.732	-378.7827
480.218	-346.75391
480.703	-294.6055
481.188	-330.58826
481.673	-270.51001
482.158	-391.69613
482.643	-276.59374
483.128	-281.53248
483.612	-239.4653
484.097	-267.55546
484.581	-237.46492
485.066	-252.5169
485.55	-301.56091
486.034	-282.51806
486.518	-263.523
487.002	-333.70387
487.486	-271.5678
487.969	-325.69027
488.453	-279.614
488.936	-308.60549
489.42	-188.35511
489.903	-213.46581
490.386	-700.13648
490.869	-229.435
491.352	-188.40183
491.835	-204.36665
492.318	-268.53182
492.8	-222.40105
493.283	-238.53136
493.765	-222.47923
494.247	-192.39615
494.73	-178.34332
495.212	-180.3849
495.694	-232.47824
496.175	-261.54709
496.657	-197.41422
497.139	-107.16214
497.62	-286.60625
498.102	-243.53815
498.583	-188.41921
499.064	-200.39373
499.545	-220.44902
500.026	-200.39837
500.507	-207.42988
500.988	-159.35095
501.469	-202.45118
501.949	-142.31218
502.43	-189.39863
502.91	-147.26766
503.39	-120.26714
503.87	-103.21199
504.35	-75.15603
504.83	-104.19991
505.31	-106.22637
505.79	-105.22107
506.269	1.00202
506.749	-55.10932
507.228	-20.0406
507.707	39.07376
508.187	55.1132
508.666	68.14226
509.145	123.24117
509.623	154.30246
510.102	187.37846
510.581	293.58021
511.059	220.45657
511.538	362.76198
512.016	404.76765
512.494	483.91979
512.972	531.97684
513.45	526.92373
513.928	644.16873
514.406	649.15483
514.884	782.4781
515.361	877.48205
515.839	939.46162
516.316	986.62955
516.793	1047.83349
517.27	1116.81689
517.747	1148.9821
518.224	1182.77016
518.701	1182.67714
519.178	1195.93801
519.654	1178.84581
520.131	1219.97604
520.607	1167.94007
521.083	1187.74418
521.56	1122.76063
522.036	1120.6015
522.512	1137.8993
522.987	1047.67889
523.463	1004.64478
523.939	969.67789
524.414	940.52245
524.89	856.46251
525.365	765.26222
525.84	694.22584
526.315	732.31263
526.79	668.12894
527.265	667.14283
527.74	564.07165
528.215	583.06237
528.689	504.87162
529.164	533.89952
529.638	462.96346
530.112	397.75673
530.587	374.64018
531.061	329.65394
531.534	388.77176
532.008	285.57177
532.482	337.63892
532.956	251.54008
533.429	326.6569
533.903	318.58273
534.376	237.44142
534.849	240.47092
535.322	198.39989
535.795	179.37721
536.268	200.41117
536.741	171.35496
537.213	171.34084
537.686	178.37238
538.158	167.3197
538.631	188.39504
539.103	149.28718
539.575	152.27361
540.047	121.23153
540.519	77.16283
540.991	191.40426
541.463	122.2585
541.934	161.31822
542.406	113.23509
542.877	140.27405
543.348	142.2993
543.82	147.31481
544.291	148.30111
544.762	162.33124
545.233	165.35764
545.703	142.27072
546.174	139.28041
546.645	134.27561
547.115	200.41135
547.585	251.48633
548.056	188.38441
548.526	281.54759
548.996	285.57256
549.466	354.71397
549.935	305.59238
550.405	399.69566
550.875	357.6861
551.344	473.89987
551.814	505.90662
552.283	545.91179
552.752	607.06431
553.221	571.93128
553.69	700.13521
554.159	723.30677
554.628	808.27052
555.096	900.62207
555.565	986.48216
556.033	1034.66594
556.502	1169.8861
556.97	1271.77574
557.438	1331.01143
557.906	1471.15551
558.374	1644.17843
558.842	1783.40444
559.31	1900.24397
559.777	2027.57136
560.245	2308.58505
560.712	2467.54462
561.18	2687.3102
561.647	2955.33933
562.114	3170.37621
562.581	3463.76496
563.048	3777.25337
563.514	3981.50291
563.981	4376.90022
564.448	4746.56681
564.914	5109.60515
565.381	5513.28182
565.847	5885.29714
566.313	6427.1439
566.779	6746.00011
567.245	7326.32423
567.711	7794.70609
568.176	8209.99181
568.642	8622.76882
569.108	9307.03581
569.573	9940.79078
570.038	10675.99003
570.504	11262.4268
570.969	12010.58376
571.434	12576.4723
571.899	13565.84171
572.363	14032.36819
572.828	15179.0978
573.293	15699.58186
573.757	16510.67611
574.222	17134.90792
574.686	17972.463
575.15	18796.88325
575.614	19466.98729
576.078	20015.09681
576.542	20664.0882
577.006	21181.88481
577.469	21637.67405
577.933	22021.3681
578.396	22373.63365
578.86	22680.35083
579.323	22805.96317
579.786	23015.60831
580.249	23012.20176
580.712	22887.25432
581.175	22941.84941
581.637	22617.91603
582.1	22392.94662
582.563	22119.5118
583.025	21720.59232
583.487	21411.99329
583.95	20713.36021
584.412	20668.08229
584.874	20065.70943
585.336	19513.62024
585.797	18680.48997
586.259	18316.35913
586.721	17673.29821
587.182	17287.33072
587.643	16646.33575
588.105	16217.53806
588.566	15561.51622
589.027	14939.84355
589.488	14518.63472
589.949	14117.06752
590.41	13611.84618
590.87	13387.81857
591.331	12737.59892
591.791	12439.94488
592.252	12084.81112
592.712	11655.91412
593.172	11254.29732
593.632	10950.96586
594.092	10731.91631
594.552	10287.26418
595.011	10109.41894
595.471	9821.52975
595.931	9399.32492
596.39	9173.739
596.849	8952.27052
597.308	8742.84302
597.768	8360.46046
598.227	8359.33531
598.685	8227.0774
599.144	7918.76138
599.603	7792.68941
600.062	7608.20885
600.52	7348.17587
600.978	7240.35958
601.437	7040.15553
601.895	6983.84794
602.353	6778.96888
602.811	6629.94082
603.269	6503.29748
603.727	6313.32089
604.184	6165.01649
604.642	6063.51189
605.099	5942.24159
605.557	5927.53696
606.014	5640.9383
606.471	5576.78639
606.928	5512.93744
607.385	5366.6951
607.842	5334.38764
608.299	5301.5321
608.755	5159.79221
609.212	5093.33923
609.668	4951.36836
610.125	5010.91243
610.581	4944.90491
611.037	4766.77037
611.493	4661.03235
611.949	4604.1368
612.405	4552.15963
612.861	4464.14363
613.316	4385.2317
613.772	4331.04082
614.227	4206.26313
614.683	4237.73516
615.138	4153.24787
615.593	4086.25064
616.048	4056.21011
616.503	3965.7047
616.958	3902.83243
617.412	3824.51446
617.867	3738.14648
618.321	3716.86539
618.776	3670.23323
619.23	3512.62274
619.684	3570.4123
620.138	3442.63163
620.592	3372.89681
621.046	3308.73998
621.5	3240.94349
621.954	3237.55307
622.407	3144.51755
622.861	2999.00148
623.314	2997.67407
623.768	2930.79396
624.221	2874.03185
624.674	2849.75713
625.127	2777.84753
625.58	2797.74866
626.033	2792.60025
626.485	2656.96608
626.938	2654.96151
627.39	2575.8433
627.843	2552.82366
628.295	2425.80505
628.747	2400.93305
629.199	2469.74573
629.651	2311.71143
630.103	2380.7713
630.555	2333.43983
631.006	2236.85411
631.458	2190.86297
631.909	2202.78096
632.361	2132.80874
632.812	2085.74236
633.263	2095.48694
633.714	2106.47463
634.165	1994.92512
634.616	1996.84566
635.067	1932.55526
635.518	1889.80596
635.968	1855.17896
636.419	1883.46033
636.869	1746.7015
637.319	1831.6521
637.769	1738.47155
638.219	1718.70987
638.669	1634.62145
639.119	1682.75814
639.569	1636.67175
640.019	1633.53128
640.468	1586.37762
640.918	1579.62986
641.367	1494.31708
641.816	1540.35052
642.265	1543.46099
642.714	1465.3897
643.163	1473.38026
643.612	1446.47693
644.061	1435.09836
644.51	1438.31743
644.958	1372.15217
645.406	1358.3822
645.855	1368.47586
646.303	1393.36351
646.751	1306.18249
647.199	1329.21212
647.647	1249.15316
648.095	1277.1761
648.543	1350.96827
648.99	1252.26173
649.438	1293.2765
649.885	1204.30591
650.333	1238.74076
650.78	1202.23378
651.227	1178.22251
651.674	1152.02252
652.121	1135.16772
652.568	1153.18632
653.015	1184.34897
653.461	1098.05909
653.908	1132.05871
654.354	1118.10388
654.801	1030.93452
655.247	1102.88732
655.693	1043.21678
656.139	1111.10546
656.585	1094.0847
657.031	897.7285
657.477	1016.74327
657.922	973.81967
658.368	1001.02072
658.813	1000.89095
659.259	916.82467
659.704	915.76324
660.149	883.71613
660.594	906.79054
661.039	916.72341
661.484	955.88617
661.929	925.79362
662.373	860.84058
662.818	846.7849
663.262	813.66989
663.707	849.83538
664.151	886.82528
664.595	771.60416
665.039	859.81986
665.483	838.82816
665.927	845.68971
666.371	786.55527
666.814	793.63097
667.258	671.39775
667.701	829.5148
668.145	805.73133
668.588	746.59852
669.031	729.4918
669.474	782.62888
669.917	736.41612
670.36	723.57615
670.803	732.54893
671.245	734.33851
671.688	720.54607
672.13	651.2923
672.573	715.60731
673.015	671.43117
673.457	677.29773
673.899	671.44663
674.341	634.37116
674.783	687.4571
675.225	649.42723
675.666	569.23959
676.108	637.2321
676.549	671.41446
676.991	635.24876
677.432	577.03175
677.873	610.2708
678.314	623.33787
678.755	627.37188
679.196	583.20774
679.637	666.45516
680.078	579.23151
680.518	617.29708
680.959	575.25268
681.399	573.29468
681.839	584.29193
682.28	567.27538
682.72	580.20285
683.16	536.22548
683.6	629.28924
684.039	624.1617
684.479	540.21531
684.919	518.09512
685.358	550.28169
685.798	563.35228
686.237	529.17813
686.676	573.21239
687.115	540.16363
687.554	597.28472
687.993	562.13223
688.432	520.09311
688.871	504.0543
689.309	509.12228
689.748	492.95265
690.186	567.23783
690.625	499.08135
691.063	498.10555
691.501	522.19103
691.939	521.19853
692.377	489.10688
692.815	500.10586
693.253	534.18216
693.69	542.08936
694.128	515.15069
694.565	515.13411
695.003	509.19648
695.44	482.05178
695.877	486.05201
696.314	544.07026
696.751	544.13863
697.188	471.00623
697.625	572.19892
698.061	448.00548
698.498	536.19448
698.934	534.18363
699.371	505.0981
699.807	522.13825
700.243	504.12213
700.679	491.03091
701.115	521.13295
701.551	484.05971
701.987	537.10882
702.422	504.10683
702.858	513.12875
703.294	519.08358
703.729	491.11637
704.164	511.13704
704.599	497.02379
705.035	497.02746
705.47	491.10781
705.904	502.08115
706.339	518.11328
706.774	492.0682
707.209	483.03325
707.643	469.05033
708.078	494.11617
708.512	476.10814
708.946	544.19832
709.38	479.05603
709.814	514.08428
710.248	466.0605
710.682	472.04513
711.116	430.96349
711.549	455.10042
711.983	472.01469
712.416	449.99632
712.85	489.13376
713.283	468.03238
713.716	481.12705
714.149	455.01516
714.582	469.98174
715.015	522.2092
715.448	475.11731
715.881	482.98106
716.313	432.95203
716.746	392.87475
717.178	451.01409
717.61	449.06792
718.043	441.03197
718.475	400.91874
718.907	452.07363
719.339	401.85872
719.77	354.80106
720.202	392.94128
720.634	379.87626
721.065	431.96116
721.497	404.93757
721.928	367.85862
722.359	340.7844
722.79	404.91418
723.221	347.8369
723.652	414.00953
724.083	421.89336
724.514	419.90733
724.945	378.84456
725.375	300.67142
725.806	381.90566
726.236	347.85204
726.666	392.88017
727.096	342.80438
727.526	323.78873
727.956	334.72746
728.386	336.79396
728.816	285.69803
729.246	304.71224
729.675	298.708
730.105	311.73817
730.534	354.79128
730.964	318.77464
731.393	366.86851
731.822	315.7752
732.251	288.7076
732.68	356.80198
733.109	280.66883
733.537	267.62642
733.966	307.73513
734.395	295.65846
734.823	306.66648
735.251	261.61163
735.68	343.82381
736.108	245.60497
736.536	300.68358
736.964	237.53775
737.392	248.60528
737.82	257.60084
738.247	266.61956
738.675	262.60977
739.102	248.60371
739.53	227.56526
739.957	245.6145
740.384	300.71549
740.811	233.57767
741.238	262.62177
741.665	189.43233
742.092	280.64857
742.519	183.44657
742.945	226.53138
743.372	245.59161
743.798	252.63103
744.225	241.55946
744.651	217.53387
745.077	210.51408
745.503	237.56515
745.929	228.53545
746.355	286.68942
746.781	204.49698
747.207	150.34939
747.632	173.4165
748.058	211.51681
748.483	203.46005
748.908	230.55885
749.334	240.57549
749.759	202.46847
750.184	207.48415
750.609	245.58736
751.033	213.49486
751.458	198.43804
751.883	191.46644
752.307	154.35984
752.732	111.27672
753.156	208.50426
753.58	209.48787
754.005	188.47028
754.429	143.33434
754.853	144.35422
755.277	162.38002
755.7	187.45719
756.124	173.4239
756.548	131.3094
756.971	145.35187
757.394	186.47199
757.818	167.4246
758.241	143.36011
758.664	147.36819
759.087	122.27205
759.51	143.35351
759.933	133.31851
760.356	148.37623
760.778	140.34209
761.201	164.39506
761.623	183.43824
762.046	141.33315
762.468	201.47509
762.89	168.4102
763.312	127.30912
763.734	113.27185
764.156	142.34827
764.578	154.35192
765	147.35605
765.421	87.22121
765.843	140.36418
766.264	169.40394
766.686	175.43388
767.107	118.28533
767.528	107.26946
767.949	124.31389
768.37	92.22631
768.791	115.27792
769.212	100.25088
769.632	87.20349
770.053	123.3221
770.473	122.29578
770.894	128.31904
771.314	134.31876
771.734	85.19905
772.154	117.29927
772.575	167.38293
772.994	105.23874
773.414	143.34115
773.834	86.21545
774.254	94.23038
774.673	108.26282
775.093	106.26181
775.512	63.15615
775.931	103.26068
776.351	115.28451
776.77	70.17194
777.189	115.27288
777.607	105.26745
778.026	116.28777
778.445	69.17327
778.864	126.32122
779.282	123.29456
779.701	97.24427
780.119	92.23231
780.537	90.22457
780.955	122.30871
781.373	105.2591
781.791	56.12699
782.209	142.32476
782.627	108.28325
783.045	84.19381
783.462	80.2046
783.88	63.16352
784.297	93.2337
784.715	81.20799
785.132	80.1941
785.549	103.25687
785.966	102.25581
786.383	81.19951
786.8	81.18871
787.217	100.23669
787.633	55.13796
788.05	146.34356
788.466	122.2863
788.883	78.19899
789.299	78.18825
789.715	90.21869
790.131	72.17946
790.547	91.22703
790.963	113.27905
791.379	110.27666
791.795	65.14923
792.21	80.18745
792.626	100.23678
793.041	58.14383
793.457	109.26818
793.872	71.1675
794.287	55.13197
794.702	101.24813
795.117	89.22075
795.532	78.19548
795.947	132.31509
796.362	127.30112
796.776	192.44105
797.191	98.2392
797.605	64.15078
798.02	67.16351
798.434	85.18958
798.848	80.19701
799.262	75.18616
799.676	101.24565
800.09	84.20656
800.504	95.23002
800.918	75.17412
801.331	81.21219
801.745	43.09963
802.158	104.25875
802.572	107.25839
802.985	134.32084
803.398	86.20497
803.811	139.35354
804.224	106.26258
804.637	46.11031
805.05	72.16732
805.462	105.25681
805.875	27.07051
806.288	26.06332
806.7	89.22316
807.112	72.16732
807.525	54.13387
807.937	68.16832
808.349	102.25433
808.761	91.22332
809.173	85.20573
809.584	111.2727
809.996	56.1376
810.408	50.12949
810.819	73.17188
811.231	19.04952
811.642	2.00483
812.053	85.20177
812.464	62.14783
812.875	131.33131
813.286	118.30125
813.697	184.42165
814.108	115.27897
814.519	108.23943
814.929	113.2862
815.34	61.14836
815.75	63.1603
816.16	83.20654
816.571	90.23299
816.981	112.26273
817.391	110.26388
817.801	84.20816
818.211	78.1859
818.62	87.2089
819.03	120.29159
819.44	102.26497
819.849	75.18887
820.259	122.30948
820.668	53.13079
821.077	74.18365
821.486	104.24911
821.895	142.34646
822.304	75.19847
822.713	63.14926
823.122	105.26043
823.531	90.21269
823.939	83.2018
824.348	106.25612
824.756	89.2222
825.164	146.36245
825.573	120.29834
825.981	86.21272
826.389	133.33036
826.797	66.1654
827.205	61.14032
827.612	95.23339
828.02	75.17597
828.428	75.19077
828.835	71.18669
829.243	81.19272
829.65	52.12966
830.057	121.29087
830.464	87.21128
830.871	131.31012
831.278	63.15248
831.685	105.23283
832.092	93.2267
832.499	109.23666
832.905	83.20954
833.312	97.22019
833.718	95.23554
834.124	79.18028
834.531	80.20121
834.937	114.29011
835.343	58.14025
835.749	80.18657
836.155	69.18051
836.561	65.15993
836.966	107.25976
837.372	126.31725
837.777	97.24024
838.183	67.14913
838.588	40.09978
838.993	97.23486
839.399	103.25005
839.804	6.01478
840.209	69.17544
840.613	83.18412
841.018	69.17457
841.423	89.22725
841.828	61.15433
842.232	109.26788
842.637	104.24359
843.041	38.0978
843.445	41.10325
843.849	56.13882
844.253	85.2013
844.657	85.21313
845.061	81.18327
845.465	69.1665
845.869	75.17398
846.272	65.15821
846.676	77.18581
847.079	68.17269
847.483	127.31316
847.886	136.3265
848.289	60.16008
848.692	132.33009
849.095	93.22212
849.498	127.31821
849.901	110.25006
850.304	64.15295
850.707	106.26813
851.109	105.26366
851.512	109.2655
851.914	37.09361
852.316	65.16428
852.718	28.07266
853.121	60.14705
853.523	98.22746
853.925	46.12024
854.326	58.14504
854.728	61.1568
855.13	67.17252
855.531	85.20216
855.933	82.19611
856.334	30.07518
856.736	52.11672
857.137	46.10728
857.538	55.13836
857.939	43.10654
858.34	112.27031
858.741	66.17228
859.142	75.17968
859.542	71.18688
859.943	82.2029
860.343	54.13382
860.744	70.17048
861.144	99.2397
861.544	38.09168
861.945	74.18806
862.345	87.21168
862.745	67.16624
863.145	84.1999
863.544	95.23847
863.944	72.16969
864.344	111.2731
864.743	113.27761
865.143	101.25744
865.542	40.09314
865.941	91.22389
866.34	108.25632
866.74	92.24545
867.139	49.11753
867.537	95.24044
867.936	69.16575
868.335	87.22019
868.734	59.15071
869.132	75.1737
869.531	97.23292
869.929	73.16591
870.327	68.16269
870.726	72.17907
871.124	105.24318
871.522	80.20294
871.92	106.25911
872.318	99.24016
872.715	106.26008
873.113	71.17256
873.511	96.23746
873.908	32.08112
874.306	52.12943
874.703	79.19688
875.1	83.21134
875.497	87.20739
875.894	38.09341
876.291	88.21471
876.688	75.19279
877.085	78.1864
877.482	79.19695
877.878	81.19405
878.275	42.10696
878.671	97.21428
879.068	97.23238
879.464	85.20433
879.86	43.10196
880.256	119.29029
880.652	74.18759
881.048	80.19737
881.444	103.24299
881.84	93.23479
882.236	57.14329
882.631	70.17137
883.027	79.19049
883.422	87.22121
883.817	35.08827
884.213	96.24457
884.608	42.10324
885.003	64.15406
885.398	68.1698
885.793	89.22204
886.188	30.07491
886.582	130.32907
886.977	114.26753
887.371	98.24595
887.766	56.13923
888.16	88.21831
888.554	104.25489
888.949	64.16045
889.343	95.23037
889.737	19.05092
890.131	101.25124
890.525	84.21369
890.918	50.12594
891.312	135.31811
891.706	91.23725
892.099	85.21513
892.492	96.20537
892.886	75.18282
893.279	63.16024
893.672	77.19523
894.065	115.28482
894.458	83.20767
894.851	101.24537
895.244	91.23089
895.637	124.29474
896.029	78.18989
896.422	123.29669
896.814	48.11947
897.206	40.09552
897.599	114.27888
897.991	106.2538
898.383	46.10888
898.775	88.19729
899.167	27.0633
899.559	106.26584
899.951	87.20381
900.342	100.25224
900.734	-33.08316
901.125	63.16504
901.517	57.13983
901.908	121.28645
902.299	32.07854
902.69	88.20627
903.082	95.22829
903.473	45.10793
903.863	47.12005
904.254	93.21419
904.645	104.2563
905.036	57.13791
905.426	117.26451
905.817	66.16158
906.207	69.16392
906.597	42.09845
906.987	87.22418
907.378	98.24586
907.768	85.2235
908.158	66.16056
908.547	64.165
908.937	91.23195
909.327	95.22889
909.717	138.34509
910.106	58.13919
910.495	76.18895
910.885	121.30274
911.274	66.16457
911.663	91.22941
912.052	65.16004
912.441	73.18496
912.83	93.2118
913.219	89.23148
913.608	78.19017
913.997	12.0303
914.385	113.26689
914.774	59.1435
915.162	88.20829
915.55	72.17358
915.939	32.08106
916.327	103.25473
916.715	45.11482
917.103	89.2176
917.491	113.27648
917.878	51.12543
918.266	80.20646
918.654	83.21089
919.041	28.07339
919.429	103.24072
919.816	64.16189
920.203	58.14051
920.591	58.14368
920.978	71.17327
921.365	56.14682
921.752	55.13106
922.139	73.15782
922.525	48.11537
922.912	83.20127
923.299	52.12924
923.685	69.17946
924.072	97.22171
924.458	92.22623
924.844	76.18723
925.231	61.14173
925.617	14.03584
926.003	94.23846
926.389	92.2304
926.774	71.17931
927.16	60.14879
927.546	52.13271
927.931	111.27401
928.317	39.09007
928.702	90.21137
929.088	41.09718
929.473	96.24232
929.858	54.13048
930.243	73.17449
930.628	88.21263
931.013	78.19237
931.398	81.18521
931.783	77.20185
932.167	67.16332
932.552	104.25809
932.937	113.2773
933.321	69.17258
933.705	66.16594
934.09	95.23821
934.474	124.29043
934.858	80.20646
935.242	84.19343
935.626	30.07707
936.009	82.21696
936.393	77.19502
936.777	81.20632
937.16	78.202
937.544	88.20587
937.927	72.182
938.311	126.3033
938.694	106.27772
939.077	100.23715
939.46	156.37565
939.843	69.14342
940.226	104.26429
940.609	74.16911
940.991	78.19759
941.374	53.12949
941.757	70.17213
942.139	64.14336
942.522	91.21343
942.904	105.24982
943.286	76.19225
943.668	51.1321
944.05	80.19599
944.432	42.10381
944.814	80.19599
945.196	59.14355
945.578	64.15172
945.959	77.17954
946.341	104.25281
946.722	152.34972
947.104	76.18079
947.485	101.23271
947.866	96.23989
948.247	70.176
948.628	90.21795
949.009	59.15086
949.39	110.27089
949.771	160.36416
950.152	81.19767
950.532	13.0322
950.913	57.13734
951.293	54.14578
951.674	82.19716
952.054	64.15819
952.434	72.17803
952.814	91.21485
953.194	120.31033
953.574	119.28943
953.954	118.27659
954.334	90.2227
954.714	66.16038
955.093	104.25318
955.473	51.12751
955.853	60.15506
956.232	67.18314
956.611	101.23994
956.99	57.14308
957.37	91.23023
957.749	77.18278
958.128	107.26685
958.506	65.16819
958.885	57.1437
959.264	46.11282
959.643	113.25391
960.021	58.14352
960.4	68.15358
960.778	104.25366
961.156	73.18225
961.535	83.19223
961.913	116.26796
962.291	45.11555
962.669	54.1367
963.047	67.17048
963.424	60.15286
963.802	108.26272
964.18	76.19143
964.557	122.277
964.935	108.25305
965.312	95.24547
965.69	115.28461
966.067	83.20089
966.444	97.23698
966.821	58.14932
967.198	130.31067
967.575	120.29126
967.952	135.31291
968.329	80.19359
968.705	147.30868
969.082	67.17132
969.458	53.12707
969.835	106.25535
970.211	41.10539
970.587	63.15649
970.963	109.27675
971.339	42.10982
971.715	78.19378
972.091	91.22241
972.467	123.30273
972.843	20.04991
973.219	153.36024
973.594	53.13856
973.97	114.26805
974.345	99.23473
974.721	87.20922
975.096	85.20433
975.471	94.22111
975.846	101.24031
976.221	59.14959
976.596	79.18832
976.971	106.25902
977.346	116.26658
977.72	48.12233
978.095	39.10098
978.469	87.2062
978.844	123.30519
979.218	29.06979
979.593	88.20934
979.967	89.21525
980.341	101.2302
980.715	85.21283
981.089	83.20654
981.463	39.08975
981.837	79.192
982.21	120.27544
982.584	54.13033
982.957	58.14462
983.331	77.18109
983.704	63.15443
984.078	27.06682
984.451	149.36551
984.824	81.19612
985.197	102.24534
985.57	80.19955
985.943	131.31873
986.316	117.28393
986.688	88.2107
987.061	104.2412
987.434	59.15351
987.806	100.24026
988.179	103.24054
988.551	103.25883
988.923	53.13045
989.295	78.19393
989.667	56.13362
990.039	66.1626
990.411	60.13783
990.783	91.20783
991.155	55.13202
991.527	102.24878
991.898	79.1958
992.27	77.18952
992.641	70.17499
993.012	93.21701
993.384	113.26627
993.755	76.19286
994.126	86.20544
994.497	78.19046
994.868	66.15113
995.239	60.14514
995.61	65.1631
995.98	60.14547
996.351	60.1483
996.722	35.08141
997.092	39.09254
997.462	67.15597
997.833	95.22325
998.203	117.28008
998.573	64.15894
998.943	88.20482
999.313	82.19529
999.683	36.08662
1000.053	53.12187
1000.423	79.19092
1000.792	72.18588
1001.162	77.18854
1001.531	77.18889
1001.901	72.17875
1002.27	92.20388
1002.639	84.21332
1003.009	90.21236
1003.378	29.07441
1003.747	97.22706
1004.116	31.07444
1004.485	70.16665
1004.853	95.23872
1005.222	61.15351
1005.591	96.2259
1005.959	23.0521
1006.328	38.08572
1006.696	80.19184
1007.064	89.22228
1007.433	75.18657
1007.801	78.19046
1008.169	50.12625
1008.537	63.13912
1008.905	73.16927
1009.273	86.21101
1009.64	46.1098
1010.008	104.2453
1010.375	136.32488
1010.743	156.35261
1011.11	71.1673
1011.478	65.1604
1011.845	57.13384
1012.212	80.17994
1012.579	90.21927
1012.946	103.24261
1013.313	128.30003
1013.68	63.14121
1014.047	22.0527
1014.414	34.08054
1014.78	55.13652
1015.147	79.18998
1015.513	102.24329
1015.88	123.31041
1016.246	104.25413
1016.612	83.18872
1016.978	54.1322
1017.344	77.18931
1017.71	105.25337
1018.076	100.23348
1018.442	92.23487
1018.808	32.08023
1019.174	72.17986
1019.539	172.38624
1019.905	59.13887
1020.27	70.17207
1020.636	106.25138
1021.001	74.1763
1021.366	27.0651
1021.731	106.26985
1022.096	-4.01018
1022.461	81.1905
1022.826	85.2006
1023.191	60.1571
1023.556	94.21835
1023.92	114.2769
1024.285	84.20365
1024.649	64.15639
1025.014	93.22848
1025.378	38.09571
1025.742	71.17559
1026.107	80.1798
1026.471	117.26947
1026.835	47.11653
1027.199	52.12508
1027.562	116.26604
1027.926	150.35983
1028.29	86.21615
1028.654	94.21429
1029.017	109.26491
1029.381	38.09095
1029.744	69.17532
1030.107	103.2411
1030.471	81.19272
1030.834	101.22732
1031.197	138.32676
1031.56	70.16447
1031.923	70.18028
1032.286	106.24613
1032.648	129.30373
1033.011	62.14191
1033.374	96.22353
1033.736	62.16261
1034.099	96.23187
1034.461	71.17861
1034.823	29.07246
1035.185	65.1631
1035.548	79.19114
1035.91	47.1126
1036.272	115.25819
1036.634	133.32021
1036.995	89.20752
1037.357	37.09019
1037.719	113.27144
1038.08	72.17015
1038.442	68.16076
1038.803	54.12949
1039.165	57.1436
1039.526	86.20631
1039.887	132.31074
1040.248	53.13045
1040.609	111.27108
1040.97	103.24911
1041.331	54.13655
1041.692	35.0819
1042.053	110.24732
1042.413	117.26893
1042.774	126.30192
1043.134	132.30916
1043.495	75.18759
1043.855	79.19049
1044.215	88.21679
1044.576	64.15254
1044.936	112.25347
1045.296	102.25202
1045.656	87.21192
1046.016	124.29497
1046.375	76.18336
1046.735	60.13568
1047.095	86.19977
1047.454	105.21971
1047.814	71.1699
1048.173	113.26658
1048.533	100.22668
1048.892	25.06026
1049.251	103.25594
1049.61	42.10351
1049.969	60.14108
1050.328	49.10621
1050.687	68.1648
1051.046	62.15054
1051.405	112.27531
1051.763	34.07839
1052.122	24.0601
1052.48	69.16851
1052.839	40.09424
1053.197	57.1339
1053.555	136.30452
1053.914	99.23979
1054.272	108.2581
1054.63	54.13186
1054.988	77.18187
1055.345	66.14156
1055.703	88.21014
1056.061	51.13109
1056.419	82.21096
1056.776	122.29166
1057.134	61.14083
1057.491	83.20647
1057.848	69.17108
1058.206	41.09654
1058.563	56.12322
1058.92	106.24145
1059.277	53.13059
1059.634	97.22599
1059.991	68.16226
1060.348	95.21259
1060.704	25.05983
1061.061	155.35242
1061.418	74.17853
1061.774	51.1258
1062.131	64.16871
1062.487	67.15604
1062.843	48.11964
1063.199	98.24143
1063.555	56.12952
1063.911	55.13871
1064.267	139.28402
1064.623	62.15015
1064.979	109.25515
1065.335	126.29661
1065.691	77.18349
1066.046	62.13591
1066.402	79.17831
1066.757	90.22539
1067.112	106.25728
1067.468	7.01666
1067.823	84.20051
1068.178	58.13998
1068.533	60.14509
1068.888	86.20395
1069.243	61.15014
1069.598	57.13822
1069.952	27.06104
1070.307	64.1579
1070.662	63.14909
1071.016	66.1473
1071.371	95.21399
1071.725	62.14788
1072.079	100.23806
1072.434	78.1884
1072.788	68.16126
1073.142	115.27928
1073.496	79.18623
1073.85	70.16158
1074.203	93.22365
1074.557	69.18278
1074.911	108.25474
1075.265	60.1391
1075.618	107.25829
1075.971	105.24694
1076.325	29.07392
1076.678	42.09613
1077.031	102.2282
1077.385	113.24545
1077.738	56.12617
1078.091	51.11587
1078.444	122.27902
1078.796	69.16858
1079.149	103.25351
1079.502	71.16691
1079.855	92.21261
1080.207	98.23911
1080.56	4.01041
1080.912	78.18875
1081.264	65.15596
1081.617	90.21754
1081.969	57.14349
1082.321	64.15575
1082.673	72.16347
1083.025	102.23937
1083.377	130.27401
1083.728	94.21723
1084.08	62.15431
1084.432	92.21994
1084.783	129.29734
1085.135	74.18452
1085.486	45.10298
1085.838	82.2006
1086.189	91.21901
1086.54	134.31459
1086.891	37.09371
1087.242	70.16965
1087.593	86.2078
1087.944	76.17095
1088.295	88.19834
1088.646	60.14503
1088.996	33.07969
1089.347	91.22141
1089.698	14.03329
1090.048	91.23448
1090.398	118.26976
1090.749	100.23678
1091.099	71.17771
1091.449	71.17604
1091.799	85.21129
1092.149	15.03678
1092.499	67.16277
1092.849	83.20954
1093.199	85.21152
1093.548	42.10099
1093.898	43.10763
1094.248	92.23446
1094.597	27.06914
1094.947	40.10679
1095.296	73.17934
1095.645	105.27027
1095.994	86.20497
1096.343	94.23447
1096.692	53.13903
1097.041	27.07331
1097.39	92.22881
1097.739	91.23465
1098.088	65.17356
1098.437	28.07376
1098.785	75.20119
1099.134	88.23197
1099.482	66.1809
1099.83	96.25007
1100.179	24.06282
1100.527	76.20088
1100.875	21.05574
1101.223	70.18508
1101.571	35.09686
1101.919	14.03677
1102.267	43.12108
1102.615	4.01286
1102.962	18.0579
1103.31	-5.01609
1103.658	9.02899
