Data from N2 R15 sample 4_Subt2__1__15-34-52-493.txt Node

Date: Tue Sep 02 15:34:52 PDT 2025
User: uwsun
Spectrometer: HDX01956
Trigger mode: 0
Integration Time (sec): 5.000000E-1
Scans to average: 1
Nonlinearity correction enabled: true
Boxcar width: 0
Storing dark spectrum: false
XAxis mode: Wavelengths
Number of Pixels in Spectrum: 2068
>>>>>Begin Spectral Data<<<<<
194.03	-24.06761
194.578	-52.16548
195.127	-54.16942
195.676	-44.13829
196.225	11.02913
196.773	6.01643
197.321	-26.07008
197.87	5.01236
198.418	25.06078
198.966	-14.03449
199.513	-75.17817
200.061	-93.22535
200.609	18.04516
201.156	-35.0723
201.704	-65.15578
202.251	-26.06516
202.798	-30.07383
203.345	2.00468
203.892	-35.0836
204.438	-23.05221
204.985	-72.16175
205.532	-34.08469
206.078	-39.09093
206.624	-55.12819
207.17	-11.02416
207.716	-17.03887
208.262	-35.06584
208.808	-71.16548
209.354	-70.16209
209.899	4.00958
210.445	-77.18194
210.99	-36.0819
211.535	17.03762
212.08	17.03719
212.625	-17.04031
213.17	-20.04805
213.715	-63.13253
214.259	10.02197
214.804	-17.03989
215.348	-39.08504
215.892	53.11875
216.436	45.09795
216.98	12.02513
217.524	-44.09897
218.068	23.05456
218.612	38.08998
219.155	19.04208
219.698	-10.02259
220.242	-1.00237
220.785	-2.00443
221.328	1.00236
221.871	17.0409
222.414	14.03307
222.956	-67.15431
223.499	5.01066
224.041	36.07938
224.583	39.07987
225.126	-24.0505
225.668	-18.04156
226.21	-59.14199
226.751	-80.1681
227.293	-25.05463
227.835	1.00231
228.376	44.09592
228.918	18.04307
229.459	-56.13301
230	-17.03845
230.541	14.03055
231.082	-44.1018
231.622	-11.02413
232.163	-40.09226
232.704	-26.06116
233.244	4.00937
233.784	14.03253
234.324	-19.03932
234.864	-3.00644
235.404	27.06059
235.944	-3.00675
236.484	92.21379
237.023	-19.04252
237.563	-1.00218
238.102	3.00669
238.641	-29.06966
239.18	-68.15145
239.719	19.04488
240.258	48.101
240.797	-44.09994
241.335	-20.04646
241.874	-4.00725
242.412	-4.00905
242.95	-49.11083
243.488	-18.03889
244.026	-18.03912
244.564	-18.03508
245.102	-27.0573
245.64	22.04989
246.177	-39.08305
246.715	11.02487
247.252	-25.05447
247.789	49.08659
248.326	-60.13623
248.863	-18.03714
249.4	27.0574
249.936	-9.01742
250.473	-36.07921
251.009	-35.07554
251.546	3.00619
252.082	-5.01029
252.618	-40.08405
253.154	-22.04961
253.69	8.01685
254.226	-11.02462
254.761	-8.01685
255.297	-39.08045
255.832	-33.07345
256.367	28.06133
256.903	3.00615
257.438	-13.02869
257.972	-7.0146
258.507	-27.05777
259.042	-4.00812
259.576	-22.04409
260.111	-7.01517
260.645	15.03026
261.179	-15.03265
261.713	-22.04576
262.247	-59.12859
262.781	-30.05878
263.315	-54.12415
263.849	-49.11497
264.382	-24.05177
264.915	-47.103
265.449	-65.14767
265.982	-13.02765
266.515	-3.00679
267.048	38.07386
267.58	18.03659
268.113	-55.11131
268.646	-55.12708
269.178	-29.0602
269.71	26.05241
270.243	-14.02979
270.775	-31.07347
271.307	-15.03372
271.838	-6.01331
272.37	-34.07795
272.902	-27.0573
273.433	18.03622
273.965	-19.04294
274.496	-5.01155
275.027	-66.15319
275.558	-30.06753
276.089	-64.14584
276.62	-32.07598
277.15	-6.01373
277.681	14.02805
278.211	15.03394
278.741	-78.16021
279.272	-15.03153
279.802	-21.04858
280.332	-46.10045
280.861	-23.05117
281.391	2.00415
281.921	-26.05807
282.45	-46.10694
282.98	-48.1162
283.509	-18.03724
284.038	-21.04402
284.567	5.01074
285.096	-8.01775
285.625	-14.02911
286.153	-62.13424
286.682	-19.03976
287.21	-27.05955
287.739	-54.11762
288.267	-32.07088
288.795	-7.01689
289.323	-24.05101
289.851	-29.06221
290.378	-43.0885
290.906	-106.23676
291.433	-39.08903
291.961	-58.1201
292.488	-20.04535
293.015	-33.07046
293.542	-67.15499
294.069	-53.1187
294.596	-14.03152
295.122	-31.06714
295.649	-21.04199
296.175	7.01533
296.702	-26.05731
297.228	1.0022
297.754	-47.09569
298.28	-56.11513
298.806	-60.13075
299.332	-48.09547
299.857	-56.11414
300.383	-63.14545
300.908	-143.31683
301.433	-52.11355
301.958	-17.03534
302.483	-107.2422
303.008	-12.02659
303.533	-40.09405
304.058	-12.02533
304.582	-68.14377
305.107	-113.26658
305.631	-10.02034
306.155	-82.17094
306.679	-72.14996
307.203	-95.19773
307.727	-57.12054
308.251	-83.18397
308.775	-97.2045
309.298	-83.17598
309.822	-87.19629
310.345	-52.10883
310.868	-77.16298
311.391	-53.11552
311.914	-63.13894
312.437	-15.02994
312.96	-60.12374
313.482	-80.16655
314.005	-105.23312
314.527	-118.27399
315.049	-85.18974
315.571	-128.2483
316.093	-59.12685
316.615	-114.24018
317.137	-20.03704
317.659	-65.13734
318.18	-65.13601
318.702	-72.14381
319.223	-63.10994
319.744	-76.14518
320.265	-118.24522
320.786	-125.26446
321.307	-99.21028
321.828	-73.13934
322.348	-120.24013
322.869	-115.22826
323.389	-304.43696
323.909	-60.11467
324.43	-68.13828
324.95	-69.13011
325.47	-150.30893
325.989	-139.27229
326.509	-144.25987
327.029	-128.23526
327.548	-182.33653
328.067	-145.28525
328.587	-168.34694
329.106	-137.25212
329.625	-101.21948
330.144	-169.31539
330.662	-204.38269
331.181	-157.29474
331.7	-153.28595
332.218	-187.32134
332.736	-174.32399
333.255	-193.35571
333.773	-206.38683
334.291	-138.27218
334.808	-204.35328
335.326	-158.27376
335.844	-243.43529
336.361	-214.41712
336.879	-260.46515
337.396	-173.31325
337.913	-219.37815
338.43	-202.33663
338.947	-222.39511
339.464	-263.41388
339.981	-257.45112
340.497	-226.41518
341.014	-246.44146
341.53	-251.40737
342.046	-252.4499
342.562	-192.34632
343.078	-235.39476
343.594	-269.46252
344.11	-237.39943
344.626	-251.45055
345.141	-223.34929
345.657	-199.31043
346.172	-258.43328
346.687	-303.48072
347.202	-293.44671
347.717	-234.37774
348.232	-279.481
348.747	-309.47898
349.261	-285.39748
349.776	-266.41291
350.29	-375.62243
350.805	-230.37676
351.319	-285.43296
351.833	-318.45881
352.347	-295.44548
352.861	-291.42916
353.374	-282.41448
353.888	-362.57155
354.401	-297.42543
354.915	-354.48412
355.428	-338.53056
355.941	-326.46244
356.454	-186.24568
356.967	-308.44632
357.48	-310.43112
357.993	-312.47158
358.505	-410.62054
359.018	-298.43559
359.53	-349.49776
360.042	-273.34218
360.554	-327.46842
361.066	-385.55537
361.578	-344.41901
362.09	-341.46831
362.602	-325.38917
363.113	-390.51049
363.625	-381.46964
364.136	-324.37881
364.647	-444.55032
365.158	-329.40548
365.669	-386.50422
366.18	-360.45147
366.691	-369.4163
367.201	-418.53313
367.712	-373.42436
368.222	-431.49941
368.733	-448.46438
369.243	-417.4313
369.753	-460.52213
370.263	-410.47237
370.773	-436.5255
371.282	-417.45155
371.792	-544.53254
372.301	-539.58124
372.811	-501.60159
373.32	-542.42134
373.829	-579.53295
374.338	-567.44474
374.847	-610.48676
375.356	-671.5512
375.865	-713.41073
376.373	-647.38788
376.882	-675.53875
377.39	-666.43427
377.898	-781.45582
378.407	-832.33968
378.915	-765.22309
379.423	-829.28856
379.93	-805.17818
380.438	-977.22351
380.946	-999.11379
381.453	-1126.08757
381.96	-1145.94662
382.468	-1322.78016
382.975	-1217.76645
383.482	-1209.62437
383.989	-1333.7029
384.495	-1378.48974
385.002	-1501.27621
385.509	-1498.27597
386.015	-1669.11153
386.521	-1765.071
387.028	-1894.01109
387.534	-1997.99662
388.04	-1849.05563
388.546	-2272.01403
389.051	-2511.17599
389.557	-2606.44038
390.063	-2182.78698
390.568	-2596.02747
391.073	-2769.83218
391.578	-2888.08811
392.084	-3066.36362
392.589	-3520.38102
393.093	-4027.11434
393.598	-4129.62186
394.103	-4358.97393
394.607	-4737.0752
395.112	-4872.23171
395.616	-5236.98214
396.12	-5928.87813
396.624	-6589.2427
397.128	-6934.87584
397.632	-7494.16095
398.136	-8142.80974
398.639	-10084.31759
399.143	-12021.75198
399.646	-13244.04004
400.15	-14373.99996
400.653	-16883.17522
401.156	-19683.15459
401.659	-23520.88841
402.162	-19791.24683
402.664	-5799.16026
403.167	-1039.8803
403.67	0
404.172	0
404.674	0
405.176	0
405.678	0
406.18	0
406.682	0
407.184	0
407.686	0
408.187	0
408.688	0
409.19	0
409.691	0
410.192	0
410.693	-6217.72084
411.194	-11937.19803
411.694	-11186.88224
412.195	-9901.67032
412.696	-10331.05572
413.196	-12529.57553
413.696	-14057.02957
414.196	-12996.38153
414.696	-10168.91553
415.196	-7986.35238
415.696	-3133.60002
416.196	-1642.62861
416.695	-3652.70209
417.195	-5124.48722
417.694	-4913.48634
418.194	-4230.77388
418.693	-4588.91021
419.192	-4547.22104
419.691	-4510.53923
420.19	-4220.72099
420.688	-3702.01629
421.187	-3503.14119
421.685	-3012.42201
422.184	-2216.1474
422.682	-1899.2469
423.18	-2194.88799
423.678	-2217.08467
424.176	-2035.09135
424.674	-1858.44671
425.172	-1558.84513
425.669	-1311.55372
426.167	-1117.49508
426.664	-1032.4639
427.161	-1178.35076
427.659	-1110.42573
428.156	-1102.41766
428.652	-1016.60392
429.149	-984.6326
429.646	-918.65796
430.143	-813.81017
430.639	-854.86352
431.135	-870.99651
431.632	-714.96803
432.128	-734.08267
432.624	-844.23953
433.12	-886.12081
433.616	-828.12123
434.111	-1001.3213
434.607	-885.34867
435.103	-672.18596
435.598	-635.18879
436.093	-606.33185
436.588	-571.32124
437.083	-582.37679
437.578	-577.42417
438.073	-681.61167
438.568	-550.52465
439.062	-496.35864
439.557	-518.5018
440.051	-523.47515
440.546	-601.58028
441.04	-602.65739
441.534	-547.66651
442.028	-505.57615
442.522	-574.67324
443.015	-456.45036
443.509	-504.62482
444.002	-535.67297
444.496	-515.55089
444.989	-475.60364
445.482	-557.74899
445.975	-597.70107
446.468	-501.53801
446.961	-492.53147
447.454	-500.60061
447.947	-559.72392
448.439	-521.71768
448.931	-592.73834
449.424	-484.70901
449.916	-441.60499
450.408	-533.67279
450.9	-544.76962
451.392	-505.75555
451.884	-487.65385
452.375	-548.81823
452.867	-479.64821
453.358	-492.65161
453.849	-503.62468
454.341	-495.66813
454.832	-469.59352
455.323	-515.78218
455.814	-449.63285
456.304	-476.68356
456.795	-491.70623
457.285	-422.59116
457.776	-379.54808
458.266	-539.83874
458.756	-468.7403
459.247	-531.83401
459.737	-555.88387
460.226	-430.62092
460.716	-470.7499
461.206	-461.74879
461.695	-439.75775
462.185	-413.65909
462.674	-392.61144
463.163	-405.60838
463.653	-352.48925
464.142	-441.74296
464.63	-405.70053
465.119	-424.68575
465.608	-431.70122
466.096	-431.67133
466.585	-364.602
467.073	-401.70284
467.561	-399.70522
468.05	-355.60063
468.538	-357.64844
469.026	-364.64485
469.513	-397.61437
470.001	-394.66465
470.489	-366.64502
470.976	-370.64423
471.463	-344.65427
471.951	-335.64568
472.438	-370.66642
472.925	-353.63009
473.412	-304.58156
473.899	-330.5904
474.385	-316.6095
474.872	-380.70058
475.359	-333.64306
475.845	-310.49961
476.331	-301.52005
476.817	-296.57915
477.303	-311.57983
477.789	-311.60663
478.275	-307.61733
478.761	-279.54654
479.247	-286.52303
479.732	-336.68919
480.218	-343.7469
480.703	-314.6496
481.188	-279.49077
481.673	-289.54845
482.158	-375.66487
482.643	-269.57781
483.128	-308.5875
483.612	-255.49834
484.097	-258.53567
484.581	-219.42778
485.066	-291.60216
485.55	-290.53893
486.034	-258.4711
486.518	-273.54415
487.002	-255.52979
487.486	-278.58337
487.969	-303.64046
488.453	-278.61167
488.936	-294.57606
489.42	-257.49367
489.903	-219.47954
490.386	-703.14233
490.869	-238.45309
491.352	-231.49833
491.835	-188.3365
492.318	-288.57418
492.8	-216.38962
493.283	-267.59967
493.765	-283.61888
494.247	-182.37467
494.73	-246.48223
495.212	-204.43848
495.694	-239.49345
496.175	-312.66136
496.657	-185.38796
497.139	-172.26572
497.62	-280.59276
498.102	-225.49642
498.583	-231.51967
499.064	-232.46017
499.545	-169.34093
500.026	-193.3838
500.507	-171.35226
500.988	-176.38986
501.469	-206.46049
501.949	-149.32805
502.43	-159.33314
502.91	-150.27334
503.39	-139.31066
503.87	-138.28627
504.35	-25.05143
504.83	-35.06616
505.31	-79.16772
505.79	-76.15899
506.269	-14.02844
506.749	-61.12142
507.228	-11.02228
507.707	46.08685
508.187	115.23349
508.666	95.19755
509.145	107.21059
509.623	180.35135
510.102	246.49113
510.581	275.54686
511.059	296.60386
511.538	353.7445
512.016	399.75907
512.494	500.94824
512.972	519.95764
513.45	547.95534
513.928	649.17633
514.406	644.14739
514.884	755.43637
515.361	863.46385
515.839	951.47521
516.316	958.59533
516.793	1054.84241
517.27	1127.82926
517.747	1129.95898
518.224	1179.76722
518.701	1270.7535
519.178	1222.96709
519.654	1249.91779
520.131	1250.00797
520.607	1192.96828
521.083	1179.73656
521.56	1216.85749
522.036	1178.65465
522.512	1084.8366
522.987	1028.65716
523.463	1069.72015
523.939	990.70486
524.414	957.5427
524.89	924.55033
525.365	841.3589
525.84	710.24895
526.315	735.31701
526.79	717.19591
527.265	702.1917
527.74	623.16702
528.215	611.10563
528.689	573.97286
529.164	506.8602
529.638	456.95221
530.112	384.73426
530.587	433.72948
531.061	383.75169
531.534	356.71339
532.008	313.62388
532.482	323.61447
532.956	229.49508
533.429	267.54532
533.903	301.55395
534.376	183.34542
534.849	281.54603
535.322	204.41144
535.795	242.5029
536.268	178.36776
536.741	197.40655
537.213	199.39407
537.686	139.2933
538.158	155.29759
538.631	154.32602
539.103	179.34251
539.575	218.38577
540.047	169.31962
540.519	182.37602
540.991	233.48862
541.463	166.34835
541.934	144.28575
542.406	120.24926
542.877	162.31546
543.348	163.34198
543.82	203.42947
544.291	253.50241
544.762	167.34108
545.233	202.43437
545.703	221.41325
546.174	221.43743
546.645	154.31531
547.115	236.48146
547.585	278.53517
548.056	220.44657
548.526	272.53119
548.996	353.69805
549.466	397.79278
549.935	422.79677
550.405	450.77405
550.875	459.86049
551.344	533.99925
551.814	603.05395
552.283	646.04975
552.752	632.10099
553.221	690.08692
553.69	779.23573
554.159	841.47496
554.628	957.44137
555.096	1036.80327
555.565	1088.58656
556.033	1255.89886
556.502	1306.0267
556.97	1461.92204
557.438	1558.20097
557.906	1702.32523
558.374	1881.30682
558.842	2106.55862
559.31	2248.34501
559.777	2370.67985
560.245	2664.6224
560.712	2896.53347
561.18	3080.237
561.647	3397.20779
562.114	3649.19972
562.581	4050.52101
563.048	4422.91431
563.514	4518.21874
563.981	4972.56497
564.448	5440.20857
564.914	5804.28564
565.381	6296.04722
565.847	6837.18223
566.313	7407.34986
566.779	7821.56342
567.245	8386.30643
567.711	9004.38362
568.176	9620.93858
568.642	10192.46706
569.108	10920.28656
569.573	11644.00908
570.038	12243.5703
570.504	13209.83926
570.969	13966.35101
571.434	14598.20859
571.899	15562.4177
572.363	16457.22607
572.828	17441.94728
573.293	18035.57105
573.757	19220.46401
574.222	19969.83581
574.686	20838.17681
575.15	21788.25631
575.614	22448.83348
576.078	23168.65848
576.542	23965.82853
577.006	24565.60791
577.469	25077.04409
577.933	25706.5405
578.396	26011.94458
578.86	26247.30298
579.323	26589.60204
579.786	26568.61946
580.249	26675.81425
580.712	26599.95575
581.175	26364.69484
581.637	26223.40899
582.1	26062.44391
582.563	25737.60855
583.025	25105.10825
583.487	24652.45814
583.95	24196.63088
584.412	23872.40904
584.874	23077.2034
585.336	22529.94309
585.797	21756.1637
586.259	21094.06642
586.721	20427.783
587.182	19752.05665
587.643	19280.37373
588.105	18562.5795
588.566	17875.26966
589.027	17268.65368
589.488	16865.86187
589.949	16101.73104
590.41	15588.34377
590.87	15028.48349
591.331	14859.75414
591.791	14201.59431
592.252	13915.26015
592.712	13378.12949
593.172	12913.45611
593.632	12717.28664
594.092	12378.84442
594.552	11834.77165
595.011	11447.17377
595.471	11225.18172
595.931	10884.59632
596.39	10555.89956
596.849	10162.54878
597.308	10129.64126
597.768	9744.10101
598.227	9593.74824
598.685	9343.14599
599.144	9158.70749
599.603	8959.29188
600.062	8663.68711
600.52	8587.56777
600.978	8251.16233
601.437	8169.99366
601.895	7994.64131
602.353	7780.50338
602.811	7604.34527
603.269	7456.49192
603.727	7283.40896
604.184	7201.12974
604.642	7022.43237
605.099	6908.16442
605.557	6686.38607
606.014	6575.79355
606.471	6401.50342
606.928	6335.7464
607.385	6281.35342
607.842	6207.08135
608.299	6074.22557
608.755	5941.43677
609.212	5953.98646
609.668	5783.99471
610.125	5803.5237
610.581	5677.53345
611.037	5595.34546
611.493	5431.6143
611.949	5343.72854
612.405	5224.81204
612.861	5232.71516
613.316	5254.74724
613.772	5021.65263
614.227	4904.87218
614.683	4973.32341
615.138	4825.87276
615.593	4697.91247
616.048	4630.89341
616.503	4610.36759
616.958	4572.49225
617.412	4460.18729
617.867	4364.81717
618.321	4380.50689
618.776	4335.8914
619.23	4012.40655
619.684	4064.18205
620.138	4037.37787
620.592	3846.72793
621.046	3854.53823
621.5	3712.79948
621.954	3713.38036
622.407	3652.34268
622.861	3508.89577
623.314	3570.51415
623.768	3407.69352
624.221	3325.88473
624.674	3327.66995
625.127	3280.77967
625.58	3233.68304
626.033	3199.52965
626.485	3001.96546
626.938	3051.95523
627.39	3055.83251
627.843	2893.83169
628.295	2910.83272
628.747	2892.98671
629.199	2769.76512
629.651	2754.76317
630.103	2712.81151
630.555	2693.45527
631.006	2598.94222
631.458	2520.95986
631.909	2582.87176
632.361	2491.92087
632.812	2413.85312
633.263	2395.55984
633.714	2382.54022
634.165	2327.08881
634.616	2242.96596
635.067	2202.66842
635.518	2247.99891
635.968	2173.27788
636.419	2145.57219
636.869	2058.90895
637.319	2016.76203
637.769	1997.62179
638.219	2057.94441
638.669	1946.85858
639.119	1957.97447
639.569	1903.88608
640.019	1865.70384
640.468	1809.53845
640.918	1846.85826
641.367	1757.52459
641.816	1782.53361
642.265	1729.6171
642.714	1723.61557
643.163	1686.56697
643.612	1658.68415
644.061	1623.24191
644.51	1587.45355
644.958	1643.38312
645.406	1581.61609
645.855	1602.7314
646.303	1539.51136
646.751	1461.34096
647.199	1524.40508
647.647	1459.37852
648.095	1463.37189
648.543	1521.10434
648.99	1455.49574
649.438	1517.519
649.885	1425.58659
650.333	1507.94527
650.78	1385.45942
651.227	1366.46102
651.674	1375.27671
652.121	1345.44083
652.568	1339.42623
653.015	1403.64381
653.461	1296.31431
653.908	1324.29335
654.354	1245.27123
654.801	1227.19341
655.247	1229.03359
655.693	1213.4839
656.139	1199.22435
656.585	1187.2118
657.031	1079.98957
657.477	1153.90726
657.922	1128.0287
658.368	1193.30394
658.813	1153.09862
659.259	1117.12096
659.704	1054.96419
660.149	1056.96889
660.594	1050.00451
661.039	1014.86248
661.484	1038.0092
661.929	1073.00666
662.373	963.01384
662.818	1013.05803
663.262	964.91329
663.707	973.0464
664.151	964.95147
664.595	912.83855
665.039	1001.05386
665.483	936.99985
665.927	961.8706
666.371	880.7034
666.814	889.78927
667.258	831.67011
667.701	926.65119
668.145	899.89472
668.588	856.79103
669.031	815.63567
669.474	820.69374
669.917	808.52807
670.36	856.8139
670.803	817.69695
671.245	794.42625
671.688	861.79317
672.13	767.48188
672.573	822.80759
673.015	729.53552
673.457	764.43415
673.899	769.6234
674.341	696.48551
674.783	721.51799
675.225	778.66499
675.666	707.49565
676.108	729.37943
676.549	668.40906
676.991	704.36225
677.432	682.18705
677.873	714.45349
678.314	735.54071
678.755	680.47138
679.196	652.33012
679.637	727.56815
680.078	693.43787
680.518	673.39757
680.959	628.35296
681.399	636.41879
681.839	624.36904
682.28	641.42023
682.72	558.16283
683.16	599.35239
683.6	649.3243
684.039	642.18995
684.479	595.32423
684.919	569.18973
685.358	635.45529
685.798	614.46066
686.237	627.36842
686.676	560.1882
687.115	619.31157
687.554	572.23744
687.993	612.219
688.432	616.26796
688.871	556.14992
689.309	578.25629
689.748	622.16543
690.186	589.27996
690.625	564.20554
691.063	576.25831
691.501	590.32799
691.939	606.37072
692.377	609.34534
692.815	555.21365
693.253	584.27957
693.69	559.1192
694.128	556.23195
694.565	564.22946
695.003	556.29518
695.44	581.24167
695.877	542.15945
696.314	601.16679
696.751	599.23872
697.188	572.19575
697.625	598.24632
698.061	529.16791
698.498	644.40349
698.934	568.25022
699.371	520.12718
699.807	526.14602
700.243	574.25974
700.679	561.16002
701.115	563.21353
701.551	559.20489
701.987	585.19514
702.422	543.18287
702.858	529.16012
703.294	576.18763
703.729	579.29336
704.164	527.16882
704.599	579.17109
705.035	538.10219
705.47	547.22028
705.904	567.20438
706.339	561.19472
706.774	537.15493
707.209	546.1524
707.643	551.21351
708.078	572.27219
708.512	480.11659
708.946	516.1432
709.38	530.15621
709.814	519.09364
710.248	542.21484
710.682	542.18293
711.116	491.08434
711.549	479.15334
711.983	504.07617
712.416	511.11729
712.85	509.17555
713.283	475.04632
713.716	541.25302
714.149	512.12914
714.582	536.10354
715.015	511.18625
715.448	506.18318
715.881	511.03143
716.313	486.05694
716.746	485.05945
717.178	443.99975
717.61	501.17993
718.043	491.13796
718.475	510.14348
718.907	491.15769
719.339	441.9362
719.77	398.89254
720.202	449.06424
720.634	428.97988
721.065	400.89776
721.497	415.96099
721.928	395.91904
722.359	367.84212
722.79	397.89962
723.221	441.04243
723.652	454.09902
724.083	399.85074
724.514	397.86374
724.945	344.774
725.375	392.86064
725.806	370.88138
726.236	424.02397
726.666	382.85948
727.096	387.90221
727.526	310.75882
727.956	356.77175
728.386	334.78954
728.816	313.76261
729.246	320.74737
729.675	308.73035
730.105	349.82228
730.534	304.68654
730.964	358.86554
731.393	368.87292
731.822	326.80064
732.251	360.87266
732.68	347.78315
733.109	286.68237
733.537	314.7299
733.966	328.78226
734.395	285.63746
734.823	323.70097
735.251	279.6515
735.68	340.81707
736.108	317.77235
736.536	307.69854
736.964	263.59359
737.392	274.66549
737.82	313.7237
738.247	297.68753
738.675	295.68209
739.102	220.53835
739.53	241.59859
739.957	239.6001
740.384	293.69974
740.811	260.64141
741.238	235.5606
741.665	247.55839
742.092	289.66822
742.519	195.47479
742.945	257.60061
743.372	254.61229
743.798	273.68102
744.225	218.50837
744.651	204.5031
745.077	220.53755
745.503	227.54235
745.929	221.51973
746.355	299.71898
746.781	207.50401
747.207	149.34713
747.632	166.40018
748.058	223.54499
748.483	249.55901
748.908	201.49104
749.334	185.44826
749.759	220.50839
750.184	197.46167
750.609	192.46495
751.033	225.5215
751.458	226.49706
751.883	220.53435
752.307	165.38471
752.732	143.35442
753.156	170.41509
753.58	195.45644
754.005	195.48717
754.429	176.40882
754.853	161.39479
755.277	206.47907
755.7	189.4619
756.124	144.35475
756.548	149.35069
756.971	203.48724
757.394	150.38307
757.818	147.37508
758.241	151.37971
758.664	151.37794
759.087	155.34327
759.51	132.32698
759.933	162.3858
760.356	143.36385
760.778	128.31347
761.201	192.46005
761.623	180.4313
762.046	156.36752
762.468	182.43177
762.89	185.45028
763.312	143.34702
763.734	126.30238
764.156	151.36973
764.578	183.41574
765	157.37956
765.421	106.26861
765.843	136.35402
766.264	138.3318
766.686	123.30786
767.107	134.32304
767.528	76.19245
767.949	134.33859
768.37	122.29844
768.791	129.31093
769.212	116.29018
769.632	78.18276
770.053	96.25255
770.473	103.25061
770.894	163.40369
771.314	128.30484
771.734	86.20135
772.154	133.33924
772.575	148.34066
772.994	93.21197
773.414	128.30624
773.834	98.24498
774.254	121.29506
774.673	148.35746
775.093	109.26907
775.512	103.25342
775.931	100.25323
776.351	135.33276
776.77	120.29202
777.189	144.33978
777.607	74.18952
778.026	98.24391
778.445	31.07838
778.864	78.20053
779.282	130.31091
779.701	96.2418
780.119	94.23727
780.537	76.19012
780.955	128.32355
781.373	113.27843
781.791	52.11802
782.209	127.29133
782.627	108.28325
783.045	102.2345
783.462	139.35179
783.88	76.19682
784.297	75.18908
784.715	30.07772
785.132	115.27719
785.549	114.28374
785.966	91.22867
786.383	77.1898
786.8	85.19788
787.217	113.26679
787.633	77.19238
788.05	149.35041
788.466	128.30003
788.883	83.21156
789.299	103.24742
789.715	123.29703
790.131	86.21381
790.547	82.20491
790.963	123.30318
791.379	96.24206
791.795	109.24803
792.21	101.23568
792.626	96.22749
793.041	69.17077
793.457	94.23191
793.872	104.24378
794.287	70.16748
794.702	81.19973
795.117	73.18159
795.532	75.18806
795.947	104.24958
796.362	131.31036
796.776	122.28418
797.191	104.25356
797.605	41.09703
798.02	51.12483
798.434	138.30441
798.848	93.22848
799.262	61.1518
799.676	106.25757
800.09	100.24517
800.504	99.23952
800.918	75.17412
801.331	93.24313
801.745	80.18399
802.158	59.14799
802.572	121.29143
802.985	90.2173
803.398	146.34396
803.811	96.24603
804.224	115.2844
804.637	80.1906
805.05	108.24919
805.462	116.28313
805.875	41.10682
806.288	55.13322
806.7	82.20587
807.112	136.31204
807.525	109.26749
807.937	71.17565
808.349	114.28363
808.761	103.2522
809.173	93.22475
809.584	114.27991
809.996	78.19088
810.408	42.10892
810.819	66.15561
811.231	74.19104
811.642	16.03857
812.053	66.15724
812.464	89.2111
812.875	121.30657
813.286	73.18784
813.697	179.41061
814.108	90.21935
814.519	101.22424
814.929	121.30602
815.34	89.21533
815.75	52.13257
816.16	79.19673
816.571	79.20491
816.981	112.26273
817.391	97.23327
817.801	52.12961
818.211	102.24199
818.62	51.1233
819.03	93.22712
819.44	90.23428
819.849	94.23591
820.259	80.20445
820.668	87.21334
821.077	46.11474
821.486	125.29821
821.895	92.22656
822.304	50.13287
822.713	68.16095
823.122	77.19196
823.531	97.22892
823.939	90.21853
824.348	86.20858
824.756	63.15803
825.164	118.29444
825.573	70.17562
825.981	97.23945
826.389	103.25724
826.797	62.15549
827.205	87.19909
827.612	82.20194
828.02	78.1829
828.428	102.2582
828.835	77.20226
829.243	99.23473
829.65	33.08257
830.057	104.25081
830.464	59.14404
830.871	100.23815
831.278	92.22146
831.685	92.20456
832.092	83.2027
832.499	71.1554
832.905	91.22941
833.312	115.2601
833.718	82.2038
834.124	83.18925
834.531	91.22843
834.937	72.18459
835.343	111.26572
835.749	126.29118
836.155	97.25254
836.561	64.15749
836.966	99.2407
837.372	101.25544
837.777	64.15947
838.183	120.26415
838.588	79.19566
838.993	104.25148
839.399	64.15651
839.804	59.14393
840.209	70.17795
840.613	71.1579
841.018	68.17207
841.423	72.1844
841.828	74.18679
842.232	118.28952
842.637	69.16272
843.041	45.11567
843.445	63.15803
843.849	49.12163
844.253	105.24771
844.657	40.10111
845.061	83.18772
845.465	73.17602
845.869	81.18767
846.272	51.12446
846.676	53.12847
847.079	56.14251
847.483	122.3011
847.886	129.3101
848.289	64.17064
848.692	66.16701
849.095	83.19862
849.498	168.41782
849.901	102.23225
850.304	73.17415
850.707	78.19829
851.109	96.24145
851.512	79.19351
851.914	24.06086
852.316	106.26593
852.718	70.18034
853.121	94.22893
853.523	60.14031
853.925	48.12542
854.326	57.14257
854.728	70.17965
855.13	57.14703
855.531	85.20216
855.933	112.26632
856.334	68.16925
856.736	80.17854
857.137	58.13494
857.538	84.21021
857.939	51.12617
858.34	138.33142
858.741	55.14383
859.142	72.17259
859.542	83.21802
859.943	101.24905
860.343	61.15097
860.744	150.35983
861.144	91.22067
861.544	10.02425
861.945	86.21809
862.345	85.20689
862.745	56.13923
863.145	99.23491
863.544	94.236
863.944	78.18362
864.344	91.22472
864.743	106.26075
865.143	134.33956
865.542	40.09314
865.941	77.18994
866.34	83.19793
866.74	66.17684
867.139	69.16486
867.537	68.17293
867.936	63.15151
868.335	93.23512
868.734	83.21111
869.132	68.15771
869.531	123.29388
869.929	57.12997
870.327	125.2958
870.726	109.26927
871.124	117.27033
871.522	61.15527
871.92	111.27108
872.318	82.19955
872.715	102.25045
873.113	97.2346
873.511	77.19113
873.908	47.11883
874.306	107.26365
874.703	84.20915
875.1	83.21134
875.497	92.2191
875.894	25.0616
876.291	76.18585
876.688	65.16737
877.085	91.21693
877.482	75.18711
877.878	56.1348
878.275	63.15985
878.671	97.21428
879.068	129.30716
879.464	110.26318
879.86	69.16278
880.256	112.27358
880.652	51.12981
881.048	96.23615
881.444	119.27986
881.84	50.1272
882.236	88.21998
882.631	68.16653
883.027	136.32438
883.422	51.1305
883.817	58.14567
884.213	80.20438
884.608	42.10324
885.003	75.18016
885.398	56.14014
885.793	58.14551
886.188	54.13426
886.582	132.33402
886.977	111.26064
887.371	64.16161
887.766	17.04257
888.16	106.2621
888.554	161.3904
888.949	95.23683
889.343	91.22083
889.737	52.1386
890.131	105.261
890.525	104.26364
890.918	94.23489
891.312	110.26046
891.706	71.18574
892.099	106.26727
892.492	127.26986
892.886	77.18763
893.279	117.29474
893.672	87.22019
894.065	68.16986
894.458	69.17308
894.851	106.25728
895.244	78.19836
895.637	89.21298
896.029	83.20187
896.422	105.25414
896.814	73.18087
897.206	60.14273
897.599	66.16289
897.991	68.164
898.383	72.16956
898.775	76.17081
899.167	76.17647
899.559	59.14922
899.951	98.22908
900.342	99.24976
900.734	35.08713
901.125	90.23468
901.517	69.16889
901.908	130.30722
902.299	86.20897
902.69	74.17393
903.082	108.25888
903.473	56.13403
903.863	70.17808
904.254	64.14826
904.645	109.26838
905.036	48.11633
905.426	126.28434
905.817	76.18571
906.207	75.17797
906.597	87.20213
906.987	134.34245
907.378	75.18894
907.768	93.2442
908.158	79.19171
908.547	53.1369
908.937	81.20683
909.327	105.25251
909.717	132.33044
910.106	59.14156
910.495	106.2621
910.885	90.22644
911.274	92.22831
911.663	105.26404
912.052	133.32336
912.441	72.18245
912.83	123.27842
913.219	76.19811
913.608	120.29028
913.997	47.11794
914.385	118.27843
914.774	87.21049
915.162	60.14278
915.55	92.22095
915.939	78.19597
916.327	80.19868
916.715	58.14766
917.103	123.29882
917.491	97.23804
917.878	76.18606
918.266	84.21663
918.654	89.22589
919.041	54.14091
919.429	30.07112
919.816	71.17938
920.203	72.17397
920.591	49.12158
920.978	89.21647
921.365	96.24998
921.752	85.20138
922.139	68.14717
922.525	87.20755
922.912	88.21319
923.299	77.1905
923.685	66.17175
924.072	95.21723
924.458	72.1777
924.844	57.14091
925.231	52.12103
925.617	60.15237
926.003	61.15565
926.389	66.16606
926.774	84.21165
927.16	101.24859
927.546	57.14534
927.931	108.26675
928.317	98.22368
928.702	110.25734
929.088	62.14635
929.473	81.20501
929.858	44.10652
930.243	101.24012
930.628	81.19598
931.013	50.12395
931.398	101.23002
931.783	84.21993
932.167	96.23275
932.552	100.24835
932.937	102.25082
933.321	74.18492
933.705	58.14604
934.09	135.33606
934.474	105.24684
934.858	34.08845
935.242	54.12509
935.626	69.17606
936.009	69.18296
936.393	67.17
936.777	97.24637
937.16	73.18921
937.544	102.23797
937.927	55.13945
938.311	130.31269
938.694	110.28801
939.077	46.11022
939.46	120.29093
939.843	106.21851
940.226	65.16632
940.609	87.19829
940.991	43.1096
941.374	91.22075
941.757	69.1697
942.139	72.16102
942.522	96.22494
942.904	62.14873
943.286	81.20471
943.668	89.22901
944.05	45.11096
944.432	86.21085
944.814	55.13537
945.196	41.10009
945.578	2.0048
945.959	100.23211
946.341	97.2361
946.722	87.20277
947.104	93.22051
947.485	93.21462
947.866	70.17574
948.247	67.16855
948.628	68.16536
949.009	81.20632
949.39	99.2443
949.771	86.19866
950.152	56.1373
950.532	37.09124
950.913	90.21549
951.293	38.10286
951.674	61.14725
952.054	43.10669
952.434	39.09702
952.814	45.10719
953.194	99.25696
953.574	65.15969
953.954	94.22137
954.334	76.18854
954.714	71.17236
955.093	72.17633
955.473	49.12256
955.853	63.16273
956.232	54.14791
956.611	99.23528
956.99	28.07065
957.37	94.23769
957.749	100.23633
958.128	80.20049
958.506	89.22933
958.885	106.26488
959.264	47.11525
959.643	122.27362
960.021	92.22623
960.4	76.17137
960.778	78.19117
961.156	51.12784
961.535	106.24438
961.913	62.14476
962.291	71.18148
962.669	42.10655
963.047	70.17802
963.424	107.27033
963.802	70.1715
964.18	127.31695
964.557	122.277
964.935	100.23468
965.312	114.29359
965.69	80.19926
966.067	105.25308
966.444	85.20813
966.821	61.15696
967.198	101.2427
967.575	76.18599
967.952	112.26078
968.329	51.12409
968.705	107.22667
969.082	57.14601
969.458	40.09614
969.835	81.19605
970.211	63.16132
970.587	108.26606
970.963	114.28919
971.339	58.15124
971.715	93.23042
972.091	112.27266
972.467	96.23746
972.843	37.09204
973.219	129.30515
973.594	44.11521
973.97	117.27495
974.345	81.19272
974.721	132.31472
975.096	58.14014
975.471	90.21187
975.846	83.19816
976.221	57.14457
976.596	91.21643
976.971	102.24943
977.346	99.22828
977.72	72.18271
978.095	74.19045
978.469	97.22946
978.844	128.3173
979.218	66.15773
979.593	97.23035
979.967	74.17948
980.341	64.14696
980.715	62.15588
981.089	54.13509
981.463	68.15558
981.837	64.15598
982.21	107.24624
982.584	80.19213
982.957	53.13227
983.331	93.21804
983.704	53.13016
984.078	74.18156
984.451	101.24996
984.824	46.11211
985.197	104.25006
985.57	103.25585
985.943	127.30923
986.316	106.25776
986.688	91.21776
987.061	108.25028
987.434	91.23546
987.806	64.15482
988.179	85.1992
988.551	127.31776
988.923	88.21519
989.295	92.22815
989.667	63.15013
990.039	50.12354
990.411	78.17853
990.783	95.21679
991.155	19.04592
991.527	116.28219
991.898	92.22748
992.27	56.13837
992.641	81.20208
993.012	103.23987
993.384	50.11926
993.755	68.17281
994.126	56.13454
994.497	64.15668
994.868	108.24521
995.239	71.17139
995.61	51.1283
995.98	56.13587
996.351	71.17514
996.722	42.09756
997.092	44.10431
997.462	43.10058
997.833	65.15364
998.203	100.24016
998.573	61.15158
998.943	70.1635
999.313	48.11506
999.683	86.20497
1000.053	91.20766
1000.423	105.25251
1000.792	59.15266
1001.162	57.14009
1001.531	113.27535
1001.901	101.24941
1002.27	109.24069
1002.639	78.19829
1003.009	77.18215
1003.378	87.22097
1003.747	83.19482
1004.116	35.08398
1004.485	78.18541
1004.853	79.19909
1005.222	76.19074
1005.591	107.25125
1005.959	38.08582
1006.328	21.04754
1006.696	63.15156
1007.064	85.21244
1007.433	84.20861
1007.801	113.27412
1008.169	80.20092
1008.537	79.17386
1008.905	24.05619
1009.273	118.2878
1009.64	79.18738
1010.008	94.22215
1010.375	134.32023
1010.743	145.32848
1011.11	58.13702
1011.478	69.17014
1011.845	105.24424
1012.212	78.17552
1012.579	45.11055
1012.946	127.29775
1013.313	84.19859
1013.68	131.28951
1014.047	59.14032
1014.414	46.10871
1014.78	76.18792
1015.147	94.22541
1015.513	109.25964
1015.88	125.31535
1016.246	91.2229
1016.612	96.2177
1016.978	81.1973
1017.344	90.22074
1017.71	130.31221
1018.076	89.20825
1018.442	78.19962
1018.808	71.17675
1019.174	98.24365
1019.539	155.34928
1019.905	51.12022
1020.27	58.14289
1020.636	102.24208
1021.001	66.15749
1021.366	40.09621
1021.731	90.22977
1022.096	35.08849
1022.461	57.13468
1022.826	73.17269
1023.191	92.23957
1023.556	143.32895
1023.92	69.16901
1024.285	63.15334
1024.649	82.1997
1025.014	90.22123
1025.378	102.25396
1025.742	61.15114
1026.107	74.16652
1026.471	103.23789
1026.835	103.25276
1027.199	39.09404
1027.562	88.20296
1027.926	125.30129
1028.29	90.22604
1028.654	78.17839
1029.017	84.20511
1029.381	65.15477
1029.744	89.22533
1030.107	114.26628
1030.471	93.22076
1030.834	96.21628
1031.197	105.25021
1031.56	70.16447
1031.923	79.20314
1032.286	84.1959
1032.648	92.21818
1033.011	51.11699
1033.374	137.31641
1033.736	9.02382
1034.099	87.21049
1034.461	49.12375
1034.823	25.06251
1035.185	88.2199
1035.548	86.2078
1035.91	149.35
1036.272	65.14743
1036.634	116.28018
1036.995	72.16844
1037.357	77.1863
1037.719	90.21713
1038.08	86.20269
1038.442	87.20493
1038.803	94.22369
1039.165	111.27692
1039.526	77.18503
1039.887	108.25543
1040.248	39.09624
1040.609	110.26869
1040.97	76.18474
1041.331	81.20384
1041.692	12.02821
1042.053	107.24072
1042.413	84.19435
1042.774	78.18861
1043.134	120.28172
1043.495	91.22695
1043.855	100.24016
1044.215	85.20952
1044.576	66.15724
1044.936	101.22909
1045.296	91.2253
1045.656	95.23106
1046.016	73.17535
1046.375	108.25898
1046.735	60.13568
1047.095	65.15162
1047.454	85.17865
1047.814	96.22863
1048.173	91.2156
1048.533	73.16638
1048.892	14.03382
1049.251	78.1947
1049.61	73.17888
1049.969	90.21038
1050.328	54.11692
1050.687	66.16001
1051.046	99.23871
1051.405	45.11198
1051.763	69.15797
1052.122	64.15912
1052.48	82.19978
1052.839	73.17088
1053.197	59.13854
1053.555	101.22778
1053.914	73.17768
1054.272	94.22524
1054.63	57.1391
1054.988	63.1492
1055.345	97.20666
1055.703	72.17246
1056.061	70.17934
1056.419	55.14216
1056.776	120.28699
1057.134	58.13398
1057.491	100.24799
1057.848	80.19796
1058.206	79.18463
1058.563	88.19233
1058.92	69.15835
1059.277	118.28726
1059.634	71.16626
1059.991	103.24412
1060.348	93.2082
1060.704	60.14262
1061.061	155.35242
1061.418	62.14992
1061.774	95.23244
1062.131	42.11113
1062.487	94.21775
1062.843	72.17868
1063.199	87.21476
1063.555	73.16826
1063.911	87.21815
1064.267	125.25623
1064.623	67.1621
1064.979	127.29623
1065.335	101.23892
1065.691	52.12451
1066.046	96.20892
1066.402	63.14266
1066.757	112.27937
1067.112	58.14204
1067.468	33.07812
1067.823	85.20286
1068.178	79.18991
1068.533	135.32181
1068.888	99.23419
1069.243	77.18896
1069.598	59.14302
1069.952	19.04303
1070.307	72.17738
1070.662	95.22342
1071.016	61.13628
1071.371	71.16071
1071.725	119.28074
1072.079	78.18647
1072.434	69.16694
1072.788	45.10719
1073.142	84.20518
1073.496	90.2117
1073.85	107.24516
1074.203	103.24723
1074.557	41.10912
1074.911	126.29615
1075.265	97.22323
1075.618	114.27483
1075.971	85.20068
1076.325	65.16463
1076.678	54.1233
1077.031	83.18642
1077.385	90.19645
1077.738	69.15504
1078.091	57.12934
1078.444	107.24545
1078.796	72.17581
1079.149	76.18799
1079.502	48.11335
1079.855	79.18304
1080.207	110.26779
1080.56	32.0829
1080.912	91.21967
1081.264	73.17489
1081.617	36.0879
1081.969	64.16091
1082.321	63.15334
1082.673	25.0573
1083.025	102.23937
1083.377	121.25554
1083.728	87.20133
1084.08	69.17152
1084.432	76.18225
1084.783	86.19993
1085.135	69.17221
1085.486	54.12335
1085.838	69.1692
1086.189	27.06577
1086.54	107.25252
1086.891	61.15384
1087.242	94.22678
1087.593	117.28104
1087.944	57.12871
1088.295	88.19834
1088.646	85.20449
1088.996	33.07969
1089.347	44.108
1089.698	53.12508
1090.048	127.32519
1090.398	69.1593
1090.749	80.19016
1091.099	70.17524
1091.449	67.16624
1091.799	77.19168
1092.149	11.02699
1092.499	75.18194
1092.849	60.1521
1093.199	110.27249
1093.548	63.15087
1093.898	76.18909
1094.248	59.15124
1094.597	19.04872
1094.947	76.20169
1095.296	102.24924
1095.645	96.2475
1095.994	93.22136
1096.343	87.21728
1096.692	57.14942
1097.041	46.12451
1097.39	121.29935
1097.739	93.23972
1098.088	99.26286
1098.437	31.08162
1098.785	94.25137
1099.134	111.29147
1099.482	69.18903
1099.83	106.27564
1100.179	50.13029
1100.527	69.18259
1100.875	30.07951
1101.223	69.18247
1101.571	56.15447
1101.919	1.00263
1102.267	64.17963
1102.615	2.00643
1102.962	17.05469
1103.31	0
1103.658	14.04508
