Data from N2 R15 sample 1_Subt2__2__15-33-08-495.txt Node

Date: Tue Sep 02 15:33:08 PDT 2025
User: uwsun
Spectrometer: HDX01956
Trigger mode: 0
Integration Time (sec): 5.000000E-1
Scans to average: 1
Nonlinearity correction enabled: true
Boxcar width: 0
Storing dark spectrum: false
XAxis mode: Wavelengths
Number of Pixels in Spectrum: 2068
>>>>>Begin Spectral Data<<<<<
194.03	221.59901
194.578	223.68553
195.127	237.71592
195.676	209.63577
196.225	342.85479
196.773	341.88338
197.321	425.05734
197.87	562.24372
198.418	615.32633
198.966	569.24745
199.513	464.98695
200.061	457.99171
200.609	598.33943
201.156	511.92635
201.704	535.13236
202.251	507.1449
202.798	510.1266
203.345	568.17898
203.892	541.14657
204.438	602.19071
204.985	509.0048
205.532	523.16715
206.078	596.21296
206.624	567.15673
207.17	605.15445
207.716	563.13451
208.262	557.89621
208.808	516.06086
209.354	514.04961
209.899	614.29615
210.445	545.1294
210.99	604.19355
211.535	592.15065
212.08	620.1817
212.625	546.15089
213.17	644.34827
213.715	525.96144
214.259	602.15567
214.804	599.23319
215.348	551.04919
215.892	568.13542
216.436	659.24553
216.98	683.21672
217.524	559.09957
218.068	558.18395
218.612	611.28332
219.155	602.16901
219.698	505.01836
220.242	558.17674
220.785	544.06674
221.328	547.15275
221.871	588.258
222.414	538.13896
222.956	490.00051
223.499	521.98638
224.041	577.12598
224.583	638.12847
225.126	530.97917
225.668	523.07503
226.21	533.13549
226.751	469.86622
227.293	528.01676
227.835	550.12835
228.376	542.0548
228.918	542.16395
229.459	528.10996
230	517.03974
230.541	545.05335
231.082	494.01828
231.622	533.03306
232.163	523.06827
232.704	513.07719
233.244	496.04715
233.784	531.10524
234.324	484.88879
234.864	508.96952
235.404	509.02692
235.944	559.11042
236.484	575.20601
237.023	491.98277
237.563	527.01751
238.102	560.10335
238.641	553.17817
239.18	464.91906
239.719	545.15305
240.258	553.03258
240.797	592.16871
241.335	526.08729
241.874	563.87459
242.412	490.99688
242.95	500.00202
243.488	579.08925
244.026	572.08529
244.564	610.01115
245.102	523.97663
245.64	596.19149
246.177	520.9727
246.715	565.13071
247.252	536.02675
247.789	604.91453
248.326	544.08132
248.863	570.01947
249.4	582.08604
249.936	538.90574
250.473	582.11237
251.009	558.0494
251.546	573.02986
252.082	590.05044
252.618	543.99441
253.154	563.11526
253.69	569.04887
254.226	508.01292
254.761	590.0776
255.297	586.03791
255.832	604.16454
256.367	583.12532
256.903	542.97532
257.438	612.17208
257.972	580.05021
258.507	560.04439
259.042	592.03713
259.576	570.98636
260.111	576.09077
260.645	598.04382
261.179	580.10104
261.713	578.0402
262.247	548.03865
262.781	563.94915
263.315	550.10903
263.849	580.19053
264.382	595.11117
264.915	573.08957
265.449	566.11886
265.982	633.15544
266.515	638.25378
267.048	616.03182
267.58	657.14012
268.113	573.9934
268.646	610.22008
269.178	535.97087
269.71	621.07979
270.243	573.06207
270.775	610.26348
271.307	615.20141
271.838	615.18607
272.37	585.17189
272.902	654.1803
273.433	622.07667
273.965	592.16871
274.496	596.20966
275.027	645.28335
275.558	617.20247
276.089	553.10052
276.62	663.35964
277.15	652.29218
277.681	625.07471
278.211	618.22412
278.741	614.06336
279.272	593.0779
279.802	610.23136
280.332	636.18643
280.861	632.21278
281.391	576.04136
281.921	634.22073
282.45	657.31212
282.98	648.35905
283.509	637.12347
284.038	623.11878
284.567	660.21608
285.096	673.27949
285.625	644.14147
286.153	612.13254
286.682	662.17528
287.21	603.1523
287.739	615.14746
288.267	634.20726
288.795	682.4273
289.323	617.12674
289.851	634.16398
290.378	615.07724
290.906	628.1877
291.433	650.275
291.961	644.12313
292.488	624.22738
293.015	609.11771
293.542	622.23895
294.069	676.28427
294.596	725.38255
295.122	670.23207
295.649	717.1887
296.175	704.31289
296.702	738.36417
297.228	759.39992
297.754	690.16875
298.28	743.2523
298.806	732.32542
299.332	658.09334
299.857	753.25268
300.383	725.40797
300.908	639.1829
301.433	737.33891
301.958	757.30161
302.483	714.34342
303.008	779.43975
303.533	733.46007
304.058	792.37611
304.582	714.2501
305.107	665.32812
305.631	758.27176
306.155	714.22455
306.679	702.20971
307.203	784.31264
307.727	741.29238
308.251	784.42195
308.775	705.22362
309.298	758.31133
309.822	809.48861
310.345	851.42554
310.868	763.31755
311.391	854.50213
311.914	787.42487
312.437	822.32323
312.96	805.33797
313.482	844.39645
314.005	802.44286
314.527	782.48891
315.049	922.62797
315.571	813.22581
316.093	817.42452
316.615	854.41694
317.137	893.28196
317.659	942.55228
318.18	888.46705
318.702	933.43283
319.223	878.15917
319.744	940.35947
320.265	885.42944
320.786	915.49639
321.307	939.54433
321.828	970.39008
322.348	950.43463
322.869	949.42071
323.389	746.73271
323.909	1002.42994
324.43	1009.55284
324.95	952.35223
325.47	993.52362
325.989	984.42258
326.509	1021.30667
327.029	1047.36875
327.548	1027.33787
328.067	1044.48746
328.587	1060.5921
329.106	1107.41676
329.625	1125.80967
330.144	1061.39
330.662	1102.41755
331.181	1138.47129
331.7	1063.40201
332.218	1162.30229
332.736	1182.48016
333.255	1161.43385
333.773	1207.49972
334.291	1205.64213
334.808	1124.28322
335.326	1269.39864
335.844	1209.38417
336.361	1254.61302
336.879	1182.35538
337.396	1259.47578
337.913	1315.38346
338.43	1388.35351
338.947	1343.46114
339.464	1400.20746
339.981	1314.39623
340.497	1373.54693
341.014	1343.4657
341.53	1386.2705
342.046	1351.45515
342.562	1426.55269
343.078	1437.37107
343.594	1487.42137
344.11	1554.41806
344.626	1462.52257
345.141	1486.24708
345.657	1550.26942
346.172	1587.40609
346.687	1489.22646
347.202	1540.16237
347.717	1603.33449
348.232	1641.47042
348.747	1543.18713
349.261	1548.997
349.776	1557.21923
350.29	1678.32193
350.805	1666.38463
351.319	1702.18172
351.833	1571.04303
352.347	1681.16045
352.861	1641.10984
353.374	1671.11102
353.888	1728.2195
354.401	1747.05074
354.915	1776.91929
355.428	1780.22587
355.941	1738.01203
356.454	1923.94688
356.967	1814.0669
357.48	1876.974
357.993	1883.15667
358.505	1841.09307
359.018	1914.08778
359.53	1979.98934
360.042	2014.76647
360.554	2022.00885
361.066	1917.99705
361.578	2057.65249
362.09	1951.91685
362.602	1927.66721
363.113	1976.78023
363.625	2060.64895
364.136	2105.57621
364.647	1954.64528
365.158	2198.64297
365.669	2046.76305
366.18	2203.65411
366.691	2145.46915
367.201	2095.67993
367.712	2105.49497
368.222	2163.46801
368.733	2218.24898
369.243	2219.26518
369.753	2392.31802
370.263	2401.37696
370.773	2266.49949
371.282	2368.27533
371.792	2417.00736
372.301	2501.12169
372.811	2563.31752
373.32	2498.67251
373.829	2499.85528
374.338	2735.5351
374.847	2700.54929
375.356	2845.46476
375.865	2936.08097
376.373	3081.0605
376.882	3189.23815
377.39	3235.03392
377.898	3113.96756
378.407	3375.68002
378.915	3588.5676
379.423	3684.56121
379.93	3850.51915
380.438	3870.52383
380.946	4103.6211
381.453	4291.78287
381.96	4234.95698
382.468	4402.54604
382.975	4911.2426
383.482	5290.69534
383.989	5317.34591
384.495	5378.7623
385.002	5546.26426
385.509	5909.6905
386.015	6217.38412
386.521	6625.64749
387.028	6822.90509
387.534	7076.77849
388.04	7414.62018
388.546	7180.49969
389.051	7665.94926
389.557	8314.8961
390.063	9403.34994
390.568	9594.99492
391.073	9638.02928
391.578	10107.12491
392.084	10270.50797
392.589	10454.66348
393.093	10797.91571
393.598	12025.68085
394.103	13227.59125
394.607	14731.50987
395.112	15940.32442
395.616	16530.70881
396.12	17892.04452
396.624	19772.25311
397.128	21751.56196
397.632	24306.42454
398.136	26064.05127
398.639	26137.24895
399.143	27996.23722
399.646	27808.80718
400.15	24802.02174
400.653	20124.16724
401.156	13866.23708
401.659	5169.95759
402.162	1054.15589
402.664	0
403.167	0
403.67	0
404.172	0
404.674	0
405.176	0
405.678	0
406.18	0
406.682	0
407.184	0
407.686	0
408.187	0
408.688	0
409.19	0
409.691	0
410.192	0
410.693	0
411.194	435.30976
411.694	4082.94878
412.195	8864.71461
412.696	12089.80453
413.196	12760.96929
413.696	12863.67595
414.196	13703.56671
414.696	17261.84252
415.196	21764.24417
415.696	29583.19008
416.196	36460.31858
416.695	40057.39798
417.195	32379.74602
417.694	30765.30933
418.194	29706.21783
418.693	27034.23817
419.192	26216.40091
419.691	25573.79642
420.19	25331.94328
420.688	24712.83944
421.187	23830.68937
421.685	22698.76707
422.184	21108.17159
422.682	18164.08193
423.18	15148.41704
423.678	13230.82568
424.176	12168.0237
424.674	11441.33318
425.172	11030.58167
425.669	10533.95902
426.167	10026.71398
426.664	9048.58712
427.161	8122.80404
427.659	7524.65886
428.156	7059.38992
428.652	6636.51777
429.149	6195.51602
429.646	6137.15598
430.143	5900.997
430.639	5509.73285
431.135	5046.44579
431.632	4841.20744
432.128	4516.71679
432.624	4199.53576
433.12	3864.53927
433.616	3935.53668
434.111	3579.5515
434.607	3457.63132
435.103	3487.60004
435.598	3477.62091
436.093	3300.91007
436.588	3073.05588
437.083	2943.22495
437.578	2899.36809
438.073	2579.71722
438.568	2674.82925
439.062	2562.58718
439.557	2448.99241
440.051	2263.99285
440.546	2249.03459
441.04	2222.23071
441.534	2103.50224
442.028	2124.406
442.522	2028.44225
443.015	1995.26275
443.509	1999.59454
444.002	1938.61714
444.496	1901.37425
444.989	1846.69441
445.482	1792.7559
445.975	1762.50551
446.468	1759.42908
446.961	1811.42885
447.454	1715.60722
447.947	1573.71139
448.439	1690.83413
448.931	1549.63545
449.424	1581.9736
449.916	1627.87733
450.408	1527.68765
450.9	1460.86699
451.392	1470.99008
451.884	1455.81037
452.375	1329.93784
452.867	1482.82909
453.358	1343.77748
453.849	1416.68168
454.341	1324.80213
454.832	1342.72275
455.323	1324.98324
455.814	1349.89736
456.304	1310.90619
456.795	1339.90688
457.285	1364.9041
457.776	1337.97388
458.266	1228.98464
458.756	1215.04243
459.247	1162.97991
459.737	1097.96363
460.226	1084.86928
460.716	1045.97896
461.206	1034.00356
461.695	1045.11666
462.185	1086.02509
462.674	1117.01394
463.163	1121.95234
463.653	1066.84434
464.142	998.04684
464.63	999.10435
465.119	1008.99873
465.608	902.93815
466.096	980.92578
466.585	912.99358
467.073	956.0961
467.561	930.09009
468.05	873.9998
468.538	830.06179
469.026	942.11732
469.513	856.85601
470.001	837.95326
470.489	787.97873
470.976	860.02305
471.463	788.09148
471.951	789.11506
472.438	689.91044
472.925	660.87523
473.412	774.09896
473.899	746.97183
474.385	640.95408
474.872	673.91854
475.359	622.92889
475.845	621.74285
476.331	677.87119
476.817	614.94472
477.303	643.9189
477.789	549.85382
478.275	495.81221
478.761	586.91489
479.247	565.81384
479.732	521.86253
480.218	518.9216
480.703	521.87686
481.188	513.71766
481.673	490.75462
482.158	404.57281
482.643	549.97147
483.128	454.70698
483.612	458.74455
484.097	507.87331
484.581	470.7688
485.066	375.66037
485.55	380.58926
486.034	425.64307
486.518	376.63669
487.002	346.62254
487.486	337.61117
487.969	335.60909
488.453	369.70131
488.936	311.52246
489.42	412.66445
489.903	367.70396
490.386	-104.14097
490.869	362.58908
491.352	335.63482
491.835	344.53184
492.318	330.56363
492.8	336.521
493.283	288.57285
493.765	281.54108
494.247	377.6785
494.73	273.46965
495.212	348.65897
495.694	245.45088
496.175	248.46133
496.657	296.55474
497.139	305.40579
497.62	172.32808
498.102	199.39997
498.583	252.51059
499.064	199.355
499.545	233.42664
500.026	170.30947
500.507	222.41687
500.988	183.37495
501.469	182.37416
501.949	229.4641
502.43	94.18592
502.91	197.32748
503.39	171.35765
503.87	174.33577
504.35	212.41283
504.83	141.25504
505.31	153.30837
505.79	167.33054
506.269	200.38649
506.749	92.17659
507.228	184.35609
507.707	162.29715
508.187	224.44347
508.666	136.28023
509.145	113.22209
509.623	106.21054
510.102	112.23057
510.581	197.39888
511.059	116.24633
511.538	127.28114
512.016	105.21406
512.494	139.28686
512.972	149.30045
513.45	83.16274
513.928	108.22303
514.406	105.21348
514.884	138.30224
515.361	115.23488
515.839	119.23002
516.316	186.376
516.793	139.3018
517.27	134.27871
517.747	87.19284
518.224	75.15026
518.701	112.21332
519.178	79.16867
519.654	134.27412
520.131	97.20729
520.607	116.24901
521.083	132.25741
521.56	92.18786
522.036	115.21696
522.512	127.27128
522.987	74.15179
523.463	100.20549
523.939	159.33491
524.414	124.24745
524.89	89.18367
525.365	104.20339
525.84	53.10943
526.315	70.14709
526.79	116.22578
527.265	129.2533
527.74	131.27557
528.215	87.17874
528.689	103.19718
529.164	96.18133
529.638	95.21425
530.112	68.13999
530.587	90.16583
531.061	57.12049
531.534	169.35331
532.008	118.24587
532.482	147.29164
532.956	75.16749
533.429	157.32866
533.903	166.31586
534.376	145.27624
534.849	180.3582
535.322	122.2507
535.795	160.33858
536.268	163.3379
536.741	145.30274
537.213	183.36374
537.686	163.34213
538.158	130.2511
538.631	160.33828
539.103	195.37168
539.575	205.364
540.047	173.32686
540.519	142.29601
540.991	215.45267
541.463	173.36248
541.934	226.43988
542.406	199.40607
542.877	219.42067
543.348	267.5473
543.82	333.68443
544.291	272.53774
544.762	242.48584
545.233	273.57806
545.703	283.52108
546.174	315.60976
546.645	254.50828
547.115	377.74446
547.585	429.7959
548.056	415.80489
548.526	473.87974
548.996	483.92605
549.466	556.06771
549.935	524.96469
550.405	626.02516
550.875	643.14945
551.344	600.10476
551.814	692.18165
552.283	787.22918
552.752	774.29868
553.221	781.19855
553.69	866.3401
554.159	886.53582
554.628	1051.53934
555.096	1051.82225
555.565	1106.60408
556.033	1148.79128
556.502	1216.93647
556.97	1237.74649
557.438	1319.00024
557.906	1495.17512
558.374	1568.12825
558.842	1596.2794
559.31	1716.15645
559.777	1790.44772
560.245	2018.4947
560.712	2099.46698
561.18	2315.3063
561.647	2464.38056
562.114	2621.46226
562.581	2874.87883
563.048	3119.493
563.514	3181.79284
563.981	3448.3545
564.448	3672.14421
564.914	4008.21354
565.381	4344.90489
565.847	4627.91683
566.313	4960.69147
566.779	5351.3
567.245	5599.3976
567.711	5934.40104
568.176	6249.96516
568.642	6650.50702
569.108	7027.42921
569.573	7434.41757
570.038	7958.57917
570.504	8409.27458
570.969	8794.04197
571.434	9295.08856
571.899	9799.35328
572.363	10322.21797
572.828	10813.1641
573.293	11126.60145
573.757	11701.56459
574.222	12305.49624
574.686	12686.03171
575.15	13070.09598
575.614	13536.13048
576.078	13902.87044
576.542	14187.7588
577.006	14488.70518
577.469	14683.88652
577.933	15033.18518
578.396	15081.48606
578.86	15068.52117
579.323	15053.23616
579.786	15055.94608
580.249	14888.39192
580.712	14971.88411
581.175	14717.32846
581.637	14503.3543
582.1	14320.40926
582.563	14156.21633
583.025	13868.04976
583.487	13624.5007
583.95	13328.28524
584.412	13173.23834
584.874	12763.61208
585.336	12475.93801
585.797	11990.71346
586.259	11677.16533
586.721	11386.71974
587.182	11205.79386
587.643	10843.31434
588.105	10513.77558
588.566	10170.90493
589.027	9995.92552
589.488	9658.00241
589.949	9419.30224
590.41	9249.14296
590.87	9006.37942
591.331	8696.75384
591.791	8454.38778
592.252	8234.05877
592.712	8123.04504
593.172	7941.69005
593.632	7740.44169
594.092	7629.38026
594.552	7370.0951
595.011	7241.21489
595.471	7082.07454
595.931	6830.98597
596.39	6633.2818
596.849	6475.15784
597.308	6285.86236
597.768	6203.70031
598.227	6048.43513
598.685	5962.21596
599.144	5836.32671
599.603	5764.43522
600.062	5568.85313
600.52	5440.20857
600.978	5363.61831
601.437	5351.42605
601.895	5171.08474
602.353	5244.30346
602.811	5005.41393
603.269	4909.91347
603.727	4726.01479
604.184	4675.65672
604.642	4622.21901
605.099	4551.91932
605.557	4381.33105
606.014	4320.60675
606.471	4283.49028
606.928	4199.62163
607.385	4115.38162
607.842	4110.0574
608.299	4041.22316
608.755	3967.44481
609.212	3861.01575
609.668	3788.00652
610.125	3868.52916
610.581	3732.54684
611.037	3685.34373
611.493	3538.59283
611.949	3424.69829
612.405	3400.77266
612.861	3419.63416
613.316	3276.71624
613.772	3276.51768
614.227	3155.68692
614.683	3193.21973
615.138	3035.67251
615.593	3014.64804
616.048	2996.60234
616.503	2954.99532
616.958	2900.08227
617.412	2797.78668
617.867	2740.4455
618.321	2783.1904
618.776	2689.4959
619.23	2689.7716
619.684	2625.61139
620.138	2635.75654
620.592	2508.94501
621.046	2436.78895
621.5	2415.93692
621.954	2383.6112
622.407	2341.5549
622.861	2339.93369
623.314	2340.65982
623.768	2227.72165
624.221	2198.07841
624.674	2170.66693
625.127	2096.70935
625.58	2092.62856
626.033	2113.51627
626.485	1973.74741
626.938	1997.75715
627.39	2051.69462
627.843	1961.63628
628.295	1927.61972
628.747	1853.68451
629.199	1831.51051
629.651	1770.47109
630.103	1724.47415
630.555	1735.23119
631.006	1751.59175
631.458	1694.57024
631.909	1736.53155
632.361	1652.51311
632.812	1636.46369
633.263	1576.21144
633.714	1593.21105
634.165	1578.60042
634.616	1498.45949
635.067	1534.28921
635.518	1468.45101
635.968	1474.96588
636.419	1391.11041
636.869	1410.39061
637.319	1407.29823
637.769	1418.21345
638.219	1344.34284
638.669	1323.30545
639.119	1361.42653
639.569	1255.26315
640.019	1341.25167
640.468	1303.11547
640.918	1333.36668
641.367	1228.04921
641.816	1261.07998
642.265	1259.16704
642.714	1217.11992
643.163	1174.05381
643.612	1147.11918
644.061	1173.85118
644.51	1152.00359
644.958	1161.93111
645.406	1157.13453
645.855	1160.20867
646.303	1170.10237
646.751	1078.91311
647.199	1131.98417
647.647	1158.04368
648.095	1122.99142
648.543	1123.74953
648.99	1075.02817
649.438	1122.06205
649.885	1017.03438
650.333	1091.60416
650.78	1029.99463
651.227	1027.00816
651.674	1030.86641
652.121	1020.00147
652.568	1003.97185
653.015	1047.14262
653.461	973.88145
653.908	1067.97328
654.354	956.87098
654.801	967.84401
655.247	1024.78982
655.693	967.08881
656.139	967.89743
656.585	956.88331
657.031	947.8032
657.477	876.55861
657.922	945.77938
658.368	914.88301
658.813	936.7973
659.259	904.80574
659.704	905.74811
660.149	926.78148
660.594	834.67577
661.039	892.68804
661.484	925.83964
661.929	946.82525
662.373	842.80901
662.818	871.82765
663.262	833.70333
663.707	883.89511
664.151	870.79871
664.595	856.74764
665.039	873.84391
665.483	923.97759
665.927	905.7848
666.371	820.60978
666.814	881.7764
667.258	849.69928
667.701	915.63615
668.145	847.80534
668.588	826.73964
669.031	797.60612
669.474	845.73568
669.917	854.59713
670.36	849.80179
670.803	894.8253
671.245	888.5572
671.688	825.73183
672.13	769.48504
672.573	783.73582
673.015	821.69467
673.457	848.55934
673.899	835.73745
674.341	813.69163
674.783	829.70432
675.225	806.71456
675.666	741.55604
676.108	797.48336
676.549	864.74488
676.991	759.4496
677.432	764.30143
677.873	784.57084
678.314	781.62067
678.755	808.70095
679.196	730.46319
679.637	742.5954
680.078	757.54847
680.518	787.5932
680.959	732.54218
681.399	748.63035
681.839	793.67849
682.28	698.52835
682.72	770.52997
683.16	695.53871
683.6	719.4441
684.039	748.35033
684.479	644.41889
684.919	684.39423
685.358	744.6681
685.798	741.72004
686.237	713.52807
686.676	751.52786
687.115	697.45197
687.554	696.46626
687.993	676.32671
688.432	705.42245
688.871	680.36786
689.309	676.43904
689.748	732.33486
690.186	741.55877
690.625	683.42277
691.063	662.42019
691.501	679.50076
691.939	718.58736
692.377	685.48946
692.815	707.49696
693.253	718.5292
693.69	689.33859
694.128	703.51051
694.565	668.42446
695.003	690.56531
695.44	692.44378
695.877	664.38345
696.314	742.39278
696.751	741.48424
697.188	691.40693
697.625	748.5076
698.061	674.44348
698.498	691.49106
698.934	723.5402
699.371	659.38671
699.807	696.46241
700.243	682.46314
700.679	720.43647
701.115	785.61232
701.551	756.56142
701.987	771.50954
702.422	759.57847
702.858	737.54627
703.294	815.59131
703.729	743.60406
704.164	739.5675
704.599	712.39682
705.035	682.35236
705.47	713.53661
705.904	675.40048
706.339	768.56284
706.774	753.54514
707.209	760.52971
707.643	796.66393
708.078	733.57638
708.512	697.55275
708.946	715.51918
709.38	758.57464
709.814	732.47126
710.248	745.60083
710.682	721.51466
711.116	740.55018
711.549	760.73324
711.983	682.40086
712.416	759.57357
712.85	678.51381
713.283	750.55801
713.716	770.7031
714.149	756.58303
714.582	765.49495
715.015	793.73906
715.448	711.59636
715.881	775.47092
716.313	717.48376
716.746	651.37285
717.178	654.41024
717.61	692.56985
718.043	701.5578
718.475	709.52537
718.907	745.67069
719.339	680.3666
719.77	616.31742
720.202	660.50144
720.634	622.36637
721.065	601.29112
721.497	616.36734
721.928	569.27623
722.359	606.3217
722.79	571.24605
723.221	597.36922
723.652	639.49367
724.083	554.13964
724.514	588.22544
724.945	509.10447
725.375	525.11842
725.806	574.31142
726.236	554.30568
726.666	511.11729
727.096	537.21274
727.526	438.0443
727.956	507.06176
728.386	524.1908
728.816	485.14131
729.246	472.06725
729.675	432.99975
730.105	462.06239
730.534	460.00368
730.964	482.13578
731.393	464.07804
731.822	413.99789
732.251	424.01318
732.68	445.98417
733.109	422.98049
733.537	411.93701
733.966	408.95806
734.395	447.9663
734.823	400.8538
735.251	376.86121
735.68	382.91065
736.108	383.9216
736.536	340.76845
736.964	317.70756
737.392	320.77048
737.82	347.79688
738.247	305.70493
738.675	329.75555
739.102	304.73224
739.53	282.69516
739.957	272.67889
740.384	348.82231
740.811	301.73693
741.238	287.6778
741.665	267.60114
742.092	315.72456
742.519	259.62305
742.945	276.6426
743.372	262.63062
743.798	281.69995
744.225	271.62536
744.651	273.66468
745.077	276.66733
745.503	255.60597
745.929	260.60678
746.355	284.68486
746.781	238.57612
747.207	205.47232
747.632	189.45364
748.058	254.61715
748.483	263.58874
748.908	214.52153
749.334	247.59148
749.759	163.38095
750.184	152.35935
750.609	229.55068
751.033	227.52592
751.458	246.53877
751.883	234.56686
752.307	201.46532
752.732	162.40011
753.156	193.46922
753.58	247.57225
754.005	210.52322
754.429	152.35475
754.853	202.49156
755.277	213.49466
755.7	184.4501
756.124	149.36672
756.548	150.35297
756.971	167.40358
757.394	169.43015
757.818	196.49577
758.241	166.4163
758.664	183.45537
759.087	123.27422
759.51	187.45854
759.933	157.37426
760.356	218.54728
760.778	166.40366
761.201	177.42532
761.623	183.43824
762.046	203.47386
762.468	173.41113
762.89	209.5064
763.312	183.44074
763.734	126.30238
764.156	118.2907
764.578	173.39382
765	143.34663
765.421	96.2437
765.843	150.38952
766.264	189.45001
766.686	173.42908
767.107	136.32774
767.528	124.31131
767.949	123.31141
768.37	124.30322
768.791	142.34142
769.212	101.25334
769.632	90.21038
770.053	131.34258
770.473	166.39912
770.894	138.34334
771.314	158.37411
771.734	110.25633
772.154	138.35168
772.575	146.33619
772.994	110.24985
773.414	209.49227
773.834	106.26459
774.254	122.29745
774.673	139.3363
775.093	134.32926
775.512	116.28472
775.931	99.25074
776.351	103.25538
776.77	85.20821
777.189	94.22395
777.607	84.21475
778.026	98.24391
778.445	52.13098
778.864	132.33616
779.282	111.26643
779.701	121.3034
780.119	72.18245
780.537	112.27835
780.955	131.33096
781.373	117.28807
781.791	94.21152
782.209	150.3425
782.627	112.29354
783.045	100.22999
783.462	115.2923
783.88	77.19937
784.297	77.19405
784.715	69.17755
785.132	72.17495
785.549	73.18305
785.966	97.24349
786.383	85.20921
786.8	131.30219
787.217	87.20644
787.633	74.18498
788.05	191.4455
788.466	138.32284
788.883	50.12819
789.299	74.17874
789.715	140.33699
790.131	114.28198
790.547	112.27835
790.963	117.28871
791.379	113.28406
791.795	90.20559
792.21	113.26306
792.626	111.26227
793.041	110.27019
793.457	99.24403
793.872	120.2804
794.287	47.11294
794.702	163.39584
795.117	94.23294
795.532	61.15334
795.947	122.29177
796.362	127.30112
796.776	161.37213
797.191	76.18626
797.605	60.14147
798.02	103.24967
798.434	142.31297
798.848	71.17514
799.262	60.14934
799.676	110.26709
800.09	114.27877
800.504	109.26322
800.918	113.26036
801.331	77.20185
801.745	103.2358
802.158	77.19252
802.572	106.25602
802.985	94.22678
803.398	113.26793
803.811	148.37583
804.224	96.23824
804.637	63.15059
805.05	59.13746
805.462	118.28791
805.875	59.15324
806.288	76.18336
806.7	100.25025
807.112	66.15355
807.525	99.2434
807.937	57.14138
808.349	102.25433
808.761	98.24018
809.173	98.23661
809.584	131.32064
809.996	83.20293
810.408	40.10377
810.819	100.23422
811.231	94.24183
811.642	124.29281
812.053	195.45304
812.464	240.55262
812.875	236.58564
813.286	186.46914
813.697	204.46561
814.108	136.32861
814.519	144.31685
814.929	122.30849
815.34	70.16997
815.75	86.21793
816.16	141.34716
816.571	111.28631
816.981	125.29248
817.391	81.19538
817.801	65.16163
818.211	116.27445
818.62	115.27467
819.03	100.2439
819.44	122.31583
819.849	84.2112
820.259	132.33425
820.668	44.10876
821.077	82.2032
821.486	103.24676
821.895	159.38671
822.304	82.21674
822.713	97.2283
823.122	93.23118
823.531	102.24049
823.939	123.2968
824.348	116.27975
824.756	101.25161
825.164	97.24296
825.573	67.16818
825.981	124.30458
826.389	126.31337
826.797	89.22212
827.205	53.12212
827.612	110.26949
828.02	84.19674
828.428	112.28301
828.835	101.26422
829.243	126.29719
829.65	75.18623
830.057	113.27206
830.464	94.22798
830.871	159.37437
831.278	91.21909
831.685	139.30604
832.092	115.27918
832.499	140.30196
832.905	73.18463
833.312	117.26451
833.718	160.39198
834.124	102.23168
834.531	97.24322
834.937	102.26013
835.343	94.22576
835.749	148.34052
836.155	114.29594
836.561	73.17934
836.966	81.1976
837.372	76.19307
837.777	69.17177
838.183	100.22105
838.588	78.19322
838.993	91.22058
839.399	50.12259
839.804	31.07602
840.209	87.2205
840.613	97.21455
841.018	111.27873
841.423	71.18187
841.828	85.21413
842.232	132.32303
842.637	88.20676
843.041	89.22701
843.445	107.26627
843.849	92.22656
844.253	102.24077
844.657	28.07093
845.061	97.21876
845.465	137.32633
845.869	105.24212
846.272	58.14136
846.676	162.38462
847.079	82.20772
847.483	141.34678
847.886	141.33818
848.289	99.26242
848.692	78.19696
849.095	109.25954
849.498	110.27647
849.901	146.32947
850.304	146.34343
850.707	114.28796
851.109	162.40261
851.512	105.25595
851.914	41.10366
852.316	111.27823
852.718	40.10359
853.121	87.21216
853.523	113.2615
853.925	96.24878
854.326	76.18943
854.728	84.21505
855.13	31.08032
855.531	80.19045
855.933	100.23834
856.334	72.17907
856.736	52.11672
857.137	77.17848
857.538	85.21267
857.939	90.22107
858.34	93.22526
858.741	69.18002
859.142	83.19854
859.542	83.21802
859.943	104.2563
860.343	79.19487
860.744	128.30834
861.144	96.23257
861.544	43.10364
861.945	86.21809
862.345	82.1997
862.745	71.17604
863.145	95.2256
863.544	53.13404
863.944	90.21137
864.344	120.29475
864.743	71.17578
865.143	137.34698
865.542	30.06999
865.941	78.19237
866.34	125.29569
866.74	100.26644
867.139	59.14124
867.537	87.2205
867.936	53.1277
868.335	98.24754
868.734	75.19103
869.132	77.17826
869.531	119.28454
869.929	67.15246
870.327	79.18861
870.726	120.29584
871.124	149.34207
871.522	81.20544
871.92	104.25432
872.318	104.25205
872.715	106.26008
873.113	93.22509
873.511	77.19113
873.908	20.05081
874.306	80.1981
874.703	116.28714
875.1	143.36024
875.497	75.1792
875.894	62.15173
876.291	96.23388
876.688	46.11884
877.085	109.25894
877.482	91.22637
877.878	92.21994
878.275	99.24958
878.671	108.23804
879.068	107.25585
879.464	128.30519
879.86	35.08312
880.256	78.19173
880.652	68.17256
881.048	67.1657
881.444	69.16385
881.84	116.29165
882.236	83.20767
882.631	73.17861
883.027	99.23781
883.422	101.25617
883.817	55.13821
884.213	51.13096
884.608	34.0837
885.003	64.15406
885.398	64.15993
885.793	81.20237
886.188	68.16863
886.582	145.36606
886.977	139.3246
887.371	80.20143
887.766	61.15152
888.16	144.35357
888.554	129.31469
888.949	97.24173
889.343	113.27309
889.737	42.11213
890.131	72.18005
890.525	114.28847
890.918	74.18559
891.312	105.24886
891.706	72.18832
892.099	127.31902
892.492	129.27399
892.886	81.19723
893.279	89.22533
893.672	83.21022
894.065	104.25809
894.458	103.25678
894.851	113.27391
895.244	64.16316
895.637	99.23645
896.029	117.28275
896.422	117.28254
896.814	61.15147
897.206	89.21053
897.599	133.3242
897.991	91.21851
898.383	78.18348
898.775	86.19288
899.167	83.19246
899.559	123.30753
899.951	142.32907
900.342	86.21747
900.734	43.10689
901.125	105.27309
901.517	115.27907
901.908	126.298
902.299	74.18022
902.69	94.22008
903.082	109.26123
903.473	69.16474
903.863	77.19564
904.254	127.29051
904.645	145.35464
905.036	67.1618
905.426	139.31284
905.817	66.16158
906.207	55.13101
906.597	72.16778
906.987	91.23432
907.378	97.2434
907.768	94.24679
908.158	85.20604
908.547	59.15224
908.937	104.26448
909.327	73.17662
909.717	122.30596
910.106	95.22638
910.495	122.30077
910.885	114.28559
911.274	74.18425
911.663	132.33032
912.052	103.25183
912.441	90.22734
912.83	90.20509
913.219	92.23916
913.608	88.21415
913.997	82.20446
914.385	93.22051
914.774	132.31665
915.162	65.15453
915.55	87.20914
915.939	57.14375
916.327	98.24258
916.715	72.18284
917.103	126.30594
917.491	96.23563
917.878	115.27949
918.266	64.16563
918.654	88.22339
919.041	74.19243
919.429	104.24301
919.816	65.16439
920.203	53.12852
920.591	77.19008
920.978	108.26174
921.365	106.27555
921.752	82.19439
922.139	95.20442
922.525	66.15809
922.912	52.12683
923.299	70.1734
923.685	64.1666
924.072	109.24854
924.458	68.16795
924.844	79.19451
925.231	93.21471
925.617	81.20493
926.003	146.36694
926.389	86.2156
926.774	109.27341
927.16	118.28952
927.546	69.17557
927.931	108.26675
928.317	87.19901
928.702	140.32559
929.088	79.18587
929.473	76.19252
929.858	43.10412
930.243	73.17449
930.628	71.1721
931.013	59.14602
931.398	100.22778
931.783	85.22252
932.167	88.21367
932.552	73.18219
932.937	153.37267
933.321	67.16764
933.705	67.16842
934.09	131.32634
934.474	91.21451
934.858	95.24453
935.242	82.1889
935.626	107.27119
936.009	68.18034
936.393	101.25471
936.777	75.19124
937.16	65.16871
937.544	106.2471
937.927	59.14948
938.311	119.28683
938.694	93.2442
939.077	67.1599
939.46	122.29567
939.843	128.26255
940.226	97.24681
940.609	112.25398
940.991	55.13989
941.374	43.10525
941.757	112.27327
942.139	81.18081
942.522	120.27985
942.904	89.21241
943.286	106.2667
943.668	99.2543
944.05	72.17666
944.432	70.17213
944.814	114.27753
945.196	42.10252
945.578	52.12356
945.959	92.21388
946.341	143.34506
946.722	126.29141
947.104	111.26227
947.485	100.23045
947.866	31.07838
948.247	46.11615
948.628	87.21081
949.009	90.22888
949.39	75.18589
949.771	97.22358
950.152	106.25747
950.532	45.1108
950.913	93.22255
951.293	73.19647
951.674	110.26308
952.054	102.25036
952.434	108.26528
952.814	120.28172
953.194	99.25696
953.574	100.24408
953.954	92.21675
954.334	130.31931
954.714	45.10978
955.093	116.28176
955.473	32.08028
955.853	67.17294
956.232	83.2263
956.611	95.22594
956.99	87.21721
957.37	68.17275
957.749	65.15465
958.128	84.21036
958.506	78.20137
958.885	97.24279
959.264	100.24281
959.643	114.2561
960.021	100.24554
960.4	45.10211
960.778	128.31079
961.156	69.17239
961.535	87.20133
961.913	87.20213
962.291	54.13844
962.669	39.09899
963.047	88.22308
963.424	65.16545
963.802	68.16666
964.18	113.28273
964.557	95.21688
964.935	106.24846
965.312	73.18934
965.69	96.23842
966.067	93.22467
966.444	128.31091
966.821	86.22033
967.198	100.24035
967.575	104.25318
967.952	93.21735
968.329	79.19121
968.705	153.32086
969.082	81.20661
969.458	27.06505
969.835	81.19605
970.211	62.15879
970.587	78.19322
970.963	107.27177
971.339	62.16156
971.715	82.20357
972.091	93.22721
972.467	90.22286
972.843	63.15598
973.219	125.29592
973.594	85.221
973.97	137.32069
974.345	115.27183
974.721	125.29843
975.096	71.17113
975.471	122.28541
975.846	103.24497
976.221	73.18463
976.596	83.19771
976.971	74.1819
977.346	124.28451
977.72	56.14251
978.095	62.1599
978.469	54.1288
978.844	107.26627
979.218	90.21409
979.593	87.207
979.967	119.28617
980.341	99.22573
980.715	98.2448
981.089	97.24077
981.463	85.19381
981.837	86.20874
982.21	137.31339
982.584	61.14703
982.957	60.14955
983.331	110.25703
983.704	127.30761
984.078	111.27048
984.451	148.36312
984.824	70.16984
985.197	106.25477
985.57	118.2923
985.943	79.19408
986.316	120.29104
986.688	84.20128
987.061	49.11488
987.434	99.25581
987.806	101.24261
988.179	80.18767
988.551	99.24895
988.923	95.23201
989.295	128.31533
989.667	28.06717
990.039	71.17475
990.411	101.23011
990.783	86.19661
991.155	43.10345
991.527	136.3296
991.898	123.3024
992.27	38.0942
992.641	111.27542
993.012	106.24671
993.384	107.25243
993.755	70.17783
994.126	98.23357
994.497	69.16876
994.868	65.14887
995.239	92.2212
995.61	67.16806
995.98	59.14307
996.351	88.21639
996.722	87.20029
997.092	49.11605
997.462	58.13526
997.833	102.23937
998.203	120.2871
998.573	88.21759
998.943	105.24357
999.313	91.21635
999.683	75.17913
1000.053	123.27887
1000.423	107.25722
1000.792	91.23416
1001.162	58.14252
1001.531	89.21784
1001.901	72.17875
1002.27	126.27724
1002.639	81.20581
1003.009	67.1588
1003.378	36.09226
1003.747	116.27052
1004.116	76.18093
1004.485	63.15018
1004.853	93.23378
1005.222	75.18826
1005.591	54.12811
1005.959	65.14599
1006.328	89.19867
1006.696	64.15394
1007.064	78.1952
1007.433	124.3057
1007.801	90.21927
1008.169	81.2034
1008.537	119.25969
1008.905	47.10954
1009.273	135.32822
1009.64	80.18972
1010.008	70.1662
1010.375	131.31324
1010.743	115.26211
1011.11	52.12299
1011.478	121.2955
1011.845	98.22827
1012.212	77.1733
1012.579	91.22166
1012.946	126.29546
1013.313	112.26335
1013.68	128.28306
1014.047	78.18483
1014.414	74.17393
1014.78	79.19523
1015.147	115.27467
1015.513	98.23393
1015.88	120.303
1016.246	115.28043
1016.612	124.2796
1016.978	90.21886
1017.344	77.18931
1017.71	122.29344
1018.076	129.29947
1018.442	83.21223
1018.808	77.19147
1019.174	53.13285
1019.539	181.40569
1019.905	66.15513
1020.27	50.12336
1020.636	133.31376
1021.001	121.28567
1021.366	60.14377
1021.731	91.23228
1022.096	50.12607
1022.461	85.19975
1022.826	108.25375
1023.191	88.22931
1023.556	113.2615
1023.92	89.21719
1024.285	69.16776
1024.649	105.25461
1025.014	127.31004
1025.378	39.09821
1025.742	95.23391
1026.107	75.16873
1026.471	132.3031
1026.835	78.1923
1027.199	75.17961
1027.562	92.21202
1027.926	77.18728
1028.29	103.25808
1028.654	80.18289
1029.017	125.30288
1029.381	84.19928
1029.744	89.22533
1030.107	115.26856
1030.471	87.20676
1030.834	110.24712
1031.197	113.26886
1031.56	66.15519
1031.923	102.26123
1032.286	91.21193
1032.648	142.3335
1033.011	15.03466
1033.374	132.30517
1033.736	62.16261
1034.099	92.22238
1034.461	30.07602
1034.823	81.20047
1035.185	102.25424
1035.548	77.18637
1035.91	97.23017
1036.272	107.24062
1036.634	115.27781
1036.995	76.17766
1037.357	110.26448
1037.719	127.30425
1038.08	124.29009
1038.442	101.23725
1038.803	116.27488
1039.165	92.23031
1039.526	60.14465
1039.887	84.19959
1040.248	49.12069
1040.609	100.24472
1040.97	104.25148
1041.331	116.29008
1041.692	33.07725
1042.053	127.28454
1042.413	63.14637
1042.774	94.22661
1043.134	108.25414
1043.495	62.15544
1043.855	111.26602
1044.215	95.23374
1044.576	62.14783
1044.936	95.21574
1045.296	104.25687
1045.656	89.21671
1046.016	123.29265
1046.375	77.18574
1046.735	69.15574
1047.095	65.15162
1047.454	125.2604
1047.814	131.30988
1048.173	86.20395
1048.533	97.22001
1048.892	37.08898
1049.251	106.26325
1049.61	80.19578
1049.969	55.12945
1050.328	97.20809
1050.687	86.20772
1051.046	62.15054
1051.405	124.30413
1051.763	63.1444
1052.122	92.22756
1052.48	80.19498
1052.839	123.28509
1053.197	86.20088
1053.555	167.37154
1053.914	91.22075
1054.272	140.33252
1054.63	74.18002
1054.988	72.17022
1055.345	108.22954
1055.703	122.28943
1056.061	74.18945
1056.419	97.2489
1056.776	115.2753
1057.134	77.1772
1057.491	117.28924
1057.848	58.1441
1058.206	62.14539
1058.563	74.16221
1058.92	109.24813
1059.277	101.24666
1059.634	104.24196
1059.991	108.25572
1060.348	90.2016
1060.704	62.14732
1061.061	117.26807
1061.418	79.19042
1061.774	87.21318
1062.131	60.15827
1062.487	75.17439
1062.843	90.22262
1063.199	100.24626
1063.555	50.11578
1063.911	70.17606
1064.267	91.18797
1064.623	73.17642
1064.979	155.35955
1065.335	117.27591
1065.691	65.15525
1066.046	82.17899
1066.402	75.16942
1066.757	94.23523
1067.112	97.23583
1067.468	49.11564
1067.823	86.20521
1068.178	100.23943
1068.533	78.18797
1068.888	83.19695
1069.243	62.15257
1069.598	47.11419
1069.952	47.10583
1070.307	93.22822
1070.662	37.088
1071.016	31.06969
1071.371	96.2162
1071.725	112.26458
1072.079	94.22404
1072.434	60.14541
1072.788	93.21948
1073.142	112.27215
1073.496	56.1326
1073.85	77.17748
1074.203	91.21892
1074.557	84.22195
1074.911	107.25243
1075.265	78.18018
1075.618	137.32883
1075.971	97.22848
1076.325	98.24675
1076.678	60.13684
1077.031	52.11754
1077.385	81.17714
1077.738	90.20136
1078.091	30.06845
1078.444	123.28125
1078.796	42.10313
1079.149	109.26798
1079.502	86.20159
1079.855	94.21714
1080.207	78.19102
1080.56	34.08805
1080.912	111.26694
1081.264	96.22898
1081.617	111.26724
1081.969	73.18324
1082.321	52.12683
1082.673	21.04817
1083.025	101.23707
1083.377	-145.32407
1083.728	82.18995
1084.08	94.2326
1084.432	63.15145
1084.783	110.25451
1085.135	69.17221
1085.486	42.09617
1085.838	86.21022
1086.189	77.18581
1086.54	115.27098
1086.891	58.14635
1087.242	72.17443
1087.593	87.21017
1087.944	83.18642
1088.295	119.26651
1088.646	122.29144
1088.996	35.08449
1089.347	84.20465
1089.698	46.10871
1090.048	123.31517
1090.398	115.26306
1090.749	77.18313
1091.099	40.10068
1091.449	63.15643
1091.799	91.22596
1092.149	46.11215
1092.499	35.08554
1092.849	88.22197
1093.199	99.24573
1093.548	74.17684
1093.898	79.19645
1094.248	105.26697
1094.597	55.14014
1094.947	88.23307
1095.296	80.19629
1095.645	84.21701
1095.994	89.212
1096.343	76.19019
1096.692	41.10777
1097.041	46.12451
1097.39	103.25566
1097.739	59.15298
1098.088	113.29933
1098.437	43.11299
1098.785	110.29338
1099.134	87.22938
1099.482	77.21068
1099.83	85.22183
1100.179	25.06542
1100.527	80.21131
1100.875	52.13731
1101.223	75.19814
1101.571	47.12983
1101.919	11.0289
1102.267	52.14622
1102.615	5.01607
1102.962	27.08676
1103.31	14.04494
1103.658	26.0836
