Data from N2 R15 sample 2_Subt2__3__15-33-33-982.txt Node

Date: Tue Sep 02 15:33:33 PDT 2025
User: uwsun
Spectrometer: HDX01956
Trigger mode: 0
Integration Time (sec): 5.000000E-1
Scans to average: 1
Nonlinearity correction enabled: true
Boxcar width: 0
Storing dark spectrum: false
XAxis mode: Wavelengths
Number of Pixels in Spectrum: 2068
>>>>>Begin Spectral Data<<<<<
194.03	312.83308
194.578	293.89237
195.127	337.00119
195.676	338.00736
196.225	409.00749
196.773	402.02797
197.321	599.44373
197.87	772.63436
198.418	741.55535
198.966	734.55384
199.513	675.36807
200.061	679.4019
200.609	757.64057
201.156	695.19985
201.704	743.50197
202.251	709.53582
202.798	711.50543
203.345	837.63432
203.892	754.52458
204.438	808.52211
204.985	746.39205
205.532	775.64036
206.078	861.64792
206.624	773.50419
207.17	868.55231
207.716	747.44249
208.262	826.22799
208.808	722.41647
209.354	733.42353
209.899	851.70408
210.445	810.58041
210.99	718.38143
211.535	858.56356
212.08	820.48814
212.625	832.64488
213.17	774.57435
213.715	728.26398
214.259	804.4694
214.804	778.53799
215.348	799.43121
215.892	804.52049
216.436	834.50976
216.98	814.40175
217.524	808.49755
218.068	790.59236
218.612	795.60281
219.155	776.44528
219.698	790.49033
220.242	719.46335
220.785	715.3463
221.328	751.51261
221.871	760.56618
222.414	695.4215
222.956	697.35737
223.499	773.37246
224.041	733.37822
224.583	816.37756
225.126	665.18581
225.668	726.425
226.21	665.37664
226.751	642.1332
227.293	740.35356
227.835	701.38977
228.376	727.35352
228.918	748.5359
229.459	686.39262
230	674.30722
230.541	701.30502
231.082	723.41476
231.622	675.26462
232.163	668.32024
232.704	678.3726
233.244	667.35615
233.784	744.47618
234.324	642.13084
234.864	689.25597
235.404	693.33997
235.944	768.4523
236.484	662.36217
237.023	667.27915
237.563	766.39558
238.102	687.31376
238.641	683.41458
239.18	709.32256
239.719	718.4623
240.258	766.35613
240.797	668.29556
241.335	759.48812
241.874	731.07932
242.412	763.45443
242.95	693.32782
243.488	713.29784
244.026	720.31757
244.564	763.21235
245.102	789.37558
245.64	755.45448
246.177	730.2936
246.715	814.53644
247.252	734.33986
247.789	809.14997
248.326	686.31913
248.863	724.2444
249.4	791.40086
249.936	724.15644
250.473	792.43795
251.009	817.44027
251.546	782.33146
252.082	797.3443
252.618	794.3614
253.154	759.4356
253.69	796.38526
254.226	734.38789
254.761	747.3111
255.297	709.21628
255.832	736.37471
256.367	755.39809
256.903	743.26727
257.438	823.497
257.972	781.34298
258.507	744.3253
259.042	830.36488
259.576	721.19667
260.111	770.39013
260.645	792.31305
261.179	774.40093
261.713	719.24798
262.247	761.3686
262.781	736.1817
263.315	815.54471
263.849	793.55048
264.382	808.43067
264.915	766.38923
265.449	764.4412
265.982	885.51423
266.515	777.47758
267.048	852.33687
267.58	842.39082
268.113	737.22128
268.646	810.54605
269.178	829.39161
269.71	791.31464
270.243	801.4017
270.775	822.62281
271.307	821.5266
271.838	846.54243
272.37	834.57579
272.902	859.4704
273.433	873.41237
273.965	764.44824
274.496	820.58029
275.027	815.55824
275.558	792.48024
276.089	780.47143
276.62	878.71409
277.15	799.52981
277.681	868.39754
278.211	825.5561
278.741	826.35151
279.272	814.39802
279.802	788.52652
280.332	853.50702
280.861	835.52502
281.391	809.37718
281.921	867.57721
282.45	851.62404
282.98	893.77263
283.509	857.42624
284.038	834.41795
284.567	891.54818
285.096	882.5928
285.625	859.43899
286.153	830.45372
286.682	875.46907
287.21	832.50308
287.739	845.4882
288.267	860.54903
288.795	871.74738
289.323	853.46635
289.851	938.59275
290.378	911.47407
290.906	857.53141
291.433	863.60882
291.961	941.5151
292.488	870.61349
293.015	864.48571
293.542	903.6827
294.069	897.61377
294.596	946.70865
295.122	997.68552
295.649	960.48707
296.175	962.68115
296.702	955.67107
297.228	934.64835
297.754	951.49932
298.28	994.56336
298.806	937.60946
299.332	964.46978
299.857	989.54069
300.383	967.77109
300.908	931.59998
301.433	972.66221
301.958	1038.65357
302.483	986.73315
303.008	1009.75937
303.533	1022.90068
304.058	1023.67091
304.582	992.61242
305.107	1011.85928
305.631	1032.60473
306.155	996.58186
306.679	1071.6681
307.203	1126.7131
307.727	1039.67261
308.251	1036.76067
308.775	1057.66722
309.298	990.60915
309.822	1073.84581
310.345	1119.74023
310.868	1105.73832
311.391	1142.86046
311.914	1082.81446
312.437	1133.66734
312.96	1087.6696
313.482	1110.70462
314.005	1138.87458
314.527	1067.89304
315.049	1167.93159
315.571	1153.56657
316.093	1210.89625
316.615	1112.71674
317.137	1207.56831
317.659	1243.88169
318.18	1245.85905
318.702	1236.73353
319.223	1205.42306
319.744	1285.66631
320.265	1240.80769
320.786	1274.88044
321.307	1297.92685
321.828	1301.67819
322.348	1373.82041
322.869	1340.7779
323.389	1136.93922
323.909	1368.73648
324.43	1406.9198
324.95	1353.68832
325.47	1360.86828
325.989	1418.78483
326.509	1432.58607
327.029	1485.66811
327.548	1366.58387
328.067	1442.80798
328.587	1533.98874
329.106	1441.64224
329.625	1598.23853
330.144	1515.69611
330.662	1561.70914
331.181	1590.75581
331.7	1620.7597
332.218	1574.50262
332.736	1671.75566
333.255	1645.70416
333.773	1681.76087
334.291	1734.97807
334.808	1662.53793
335.326	1732.58982
335.844	1685.60617
336.361	1781.90339
336.879	1716.59968
337.396	1736.70015
337.913	1865.56265
338.43	1909.48288
338.947	1806.63443
339.464	1896.28872
339.981	1882.58294
340.497	1876.73887
341.014	1954.66578
341.53	1902.37604
342.046	1975.64794
342.562	2050.73499
343.078	1955.48302
343.594	2064.52673
344.11	2142.49137
344.626	2077.67348
345.141	2156.29284
345.657	2199.29529
346.172	2150.46333
346.687	2121.26856
347.202	2178.16225
347.717	2259.35524
348.232	2268.51675
348.747	2335.16272
349.261	2274.92319
349.776	2277.21434
350.29	2317.31069
350.805	2521.35068
351.319	2431.10156
351.833	2321.96793
352.347	2403.08443
352.861	2441.01222
353.374	2510.98815
353.888	2573.10439
354.401	2487.91462
354.915	2517.73996
355.428	2584.10427
355.941	2603.82226
356.454	2772.68509
356.967	2574.90524
357.48	2581.79282
357.993	2629.99948
358.505	2688.89549
359.018	2838.83038
359.53	2816.72661
360.042	2851.44779
360.554	2749.78736
361.066	2740.76045
361.578	2803.35004
362.09	2749.66353
362.602	2819.31993
363.113	2868.44582
363.625	2917.28811
364.136	3034.15555
364.647	2867.27636
365.158	3072.24715
365.669	3034.35833
366.18	3149.21976
366.691	3030.04921
367.201	2951.3184
367.712	3163.98811
368.222	3053.04256
368.733	3162.75791
369.243	3213.74743
369.753	3382.79229
370.263	3408.84616
370.773	3351.95362
371.282	3386.73196
371.792	3389.47032
372.301	3492.57606
372.811	3619.74271
373.32	3556.09272
373.829	3648.22296
374.338	3905.93355
374.847	4042.87845
375.356	4029.88113
375.865	4187.61333
376.373	4378.6225
376.882	4530.73769
377.39	4566.64068
377.898	4615.60054
378.407	4951.73987
378.915	5139.94588
379.423	5302.04485
379.93	5476.41516
380.438	5709.84975
380.946	5943.62868
381.453	6032.11256
381.96	6321.50246
382.468	6760.21636
382.975	7379.81879
383.482	7624.59015
383.989	7657.91409
384.495	7857.60946
385.002	8153.30593
385.509	8592.62292
386.015	9204.49574
386.521	9865.91864
387.028	9992.53485
387.534	10206.13661
388.04	10965.89737
388.546	10773.75217
389.051	11262.03595
389.557	12412.37815
390.063	13782.42696
390.568	14180.39193
391.073	14388.94115
391.578	14826.39488
392.084	15235.78564
392.589	15446.17095
393.093	16367.80021
393.598	18119.40493
394.103	19695.07845
394.607	21635.55269
395.112	23381.20127
395.616	24485.41018
396.12	26789.79143
396.624	29185.12798
397.128	31412.68765
397.632	35640.22428
398.136	37694.83926
398.639	35589.25016
399.143	32275.10518
399.646	28888.45294
400.15	25083.82847
400.653	20124.16724
401.156	13866.23708
401.659	5169.95759
402.162	1054.15589
402.664	0
403.167	0
403.67	0
404.172	0
404.674	0
405.176	0
405.678	0
406.18	0
406.682	0
407.184	0
407.686	0
408.187	0
408.688	0
409.19	0
409.691	0
410.192	0
410.693	0
411.194	435.30976
411.694	4082.94878
412.195	8864.71461
412.696	12089.80453
413.196	12760.96929
413.696	12863.67595
414.196	13703.56671
414.696	17261.84252
415.196	21764.24417
415.696	29583.19008
416.196	36460.31858
416.695	40057.39798
417.195	41392.74103
417.694	42163.45274
418.194	41749.74004
418.693	38657.4113
419.192	37196.38085
419.691	36767.30631
420.19	36545.60751
420.688	35436.71297
421.187	34625.13965
421.685	32057.6537
422.184	29524.54868
422.682	25577.59826
423.18	21075.90291
423.678	18496.42251
424.176	17307.3997
424.674	16172.26319
425.172	15797.00935
425.669	14969.34943
426.167	13939.99701
426.664	12792.95484
427.161	11740.13374
427.659	10920.5409
428.156	10068.68422
428.652	9407.32522
429.149	8914.01821
429.646	8794.87005
430.143	8371.26644
430.639	7700.95736
431.135	7176.46807
431.632	6911.52423
432.128	6390.27701
432.624	6031.11675
433.12	5607.85442
433.616	5541.68252
434.111	5243.10636
434.607	5053.82498
435.103	5106.9011
435.598	4904.74
436.093	4750.62769
436.588	4597.61776
437.083	4334.67514
437.578	4163.78882
438.073	3798.06218
438.568	3817.206
439.062	3770.9494
439.557	3527.39635
440.051	3460.33764
440.546	3173.53287
441.04	3073.79007
441.534	3095.03451
442.028	3066.94727
442.522	2950.01535
443.015	2973.77881
443.509	2866.23016
444.002	2768.28854
444.496	2718.01238
444.989	2705.38923
445.482	2668.47231
445.975	2735.11659
446.468	2666.05654
446.961	2565.12509
447.454	2518.34008
447.947	2408.50046
448.439	2507.62884
448.931	2432.38756
449.424	2460.82994
449.916	2389.72662
450.408	2255.52599
450.9	2243.76908
451.392	2200.94538
451.884	2174.71439
452.375	2056.93964
452.867	2187.73344
453.358	2098.70395
453.849	2024.59138
454.341	2091.74337
454.832	2062.63896
455.323	1906.02448
455.814	1964.89552
456.304	1993.91279
456.795	1919.91742
457.285	1966.9007
457.776	1917.00682
458.266	1826.0692
458.756	1887.15514
459.247	1749.09646
459.737	1735.11181
460.226	1697.98185
460.716	1647.1647
461.206	1580.20017
461.695	1546.34409
462.185	1639.20057
462.674	1594.15787
463.163	1564.06861
463.653	1633.95536
464.142	1500.27491
464.63	1615.38888
465.119	1450.18451
465.608	1435.18845
466.096	1459.10725
466.585	1478.27459
467.073	1404.35324
467.561	1409.37508
468.05	1427.31207
468.538	1294.40304
469.026	1289.34366
469.513	1227.04504
470.001	1240.20617
470.489	1184.27388
470.976	1278.29928
471.463	1175.43193
471.951	1215.49393
472.438	1065.23478
472.925	1018.19246
473.412	1092.39978
473.899	1122.2809
474.385	1051.37587
474.872	1041.25436
475.359	1008.33292
475.845	1009.04191
476.331	1016.15947
476.817	948.31692
477.303	893.17712
477.789	849.20558
478.275	842.24885
478.761	866.24262
479.247	875.14013
479.732	808.23174
480.218	850.38239
480.703	808.25367
481.188	815.03139
481.673	782.10128
482.158	695.89627
482.643	774.28878
483.128	618.91677
483.612	725.09004
484.097	746.20256
484.581	677.04273
485.066	651.06295
485.55	621.89577
486.034	670.94046
486.518	580.92823
487.002	574.97272
487.486	598.01145
487.969	552.94859
488.453	585.05201
488.936	567.88648
489.42	617.93788
489.903	602.08792
490.386	104.13138
490.869	530.82207
491.352	567.01227
491.835	586.8423
492.318	540.87056
492.8	521.76445
493.283	501.94712
493.765	438.81159
494.247	507.88218
494.73	489.79296
495.212	453.83583
495.694	430.75468
496.175	415.74002
496.657	425.77119
497.139	485.60698
497.62	349.63713
498.102	394.75631
498.583	394.77237
499.064	377.64168
499.545	388.68273
500.026	348.60495
500.507	372.67277
500.988	357.70265
501.469	324.64475
501.949	338.66791
502.43	250.4764
502.91	279.45334
503.39	335.67519
503.87	234.44504
504.35	352.66264
504.83	332.57133
505.31	346.6664
505.79	266.51429
506.269	351.65377
506.749	281.5148
507.228	239.45644
507.707	286.50823
508.187	333.64244
508.666	267.53392
509.145	292.54968
509.623	260.49787
510.102	214.43042
510.581	303.59861
511.059	208.43282
511.538	268.57579
512.016	313.60792
512.494	227.4592
512.972	316.61272
513.45	209.39759
513.928	231.46386
514.406	197.39212
514.884	230.49394
515.361	304.59424
515.839	236.44338
516.316	236.47161
516.793	258.54595
517.27	257.51989
517.747	212.45764
518.224	246.47334
518.701	282.51493
519.178	201.41779
519.654	290.57225
520.131	198.41385
520.607	213.44767
521.083	222.42366
521.56	219.43428
522.036	260.47307
522.512	207.43448
522.987	169.33921
523.463	184.37094
523.939	238.4926
524.414	219.42738
524.89	209.41969
525.365	208.39675
525.84	163.32822
526.315	169.34736
526.79	225.42657
527.265	217.41724
527.74	166.3465
528.215	194.38894
528.689	223.41452
529.164	212.38906
529.638	210.46245
530.112	200.39948
530.587	142.25823
531.061	145.30059
531.534	222.45866
532.008	174.35804
532.482	174.34303
532.956	156.34253
533.429	214.44233
533.903	252.46947
534.376	226.42208
534.849	223.43932
535.322	247.49324
535.795	219.45744
536.268	233.47544
536.741	246.50208
537.213	263.513
537.686	234.48345
538.158	214.40502
538.631	270.55708
539.103	208.39521
539.575	268.46808
540.047	295.54072
540.519	228.46619
540.991	262.54591
541.463	286.58425
541.934	273.52542
542.406	284.56832
542.877	311.58415
543.348	299.60845
543.82	356.72791
544.291	341.66325
544.762	317.62539
545.233	375.77631
545.703	331.60212
546.174	446.83632
546.645	363.70806
547.115	463.89585
547.585	481.88084
548.056	484.92326
548.526	547.99871
548.996	561.05376
549.466	633.19338
549.935	588.06365
550.405	668.08134
550.875	691.22021
551.344	766.35262
551.814	747.25701
552.283	826.27572
552.752	825.36529
553.221	878.3096
553.69	1035.52412
554.159	954.62436
554.628	1074.56217
555.096	1076.85345
555.565	1132.62889
556.033	1147.79023
556.502	1190.90884
556.97	1206.719
557.438	1268.9523
557.906	1381.07779
558.374	1460.04915
558.842	1477.18545
559.31	1552.05721
559.777	1594.31322
560.245	1777.37447
560.712	1922.3973
561.18	2072.25903
561.647	2134.33147
562.114	2330.44321
562.581	2546.86502
563.048	2665.55414
563.514	2831.83735
563.981	3040.47606
564.448	3240.31279
564.914	3513.43712
565.381	3701.23707
565.847	4046.23655
566.313	4233.10004
566.779	4459.78193
567.245	4776.82144
567.711	4905.89088
568.176	5296.2806
568.642	5576.82501
569.108	6008.52447
569.573	6289.23775
570.038	6647.71507
570.504	7048.02837
570.969	7402.64154
571.434	7738.40315
571.899	8074.94636
572.363	8441.34484
572.828	8814.99443
573.293	9230.88416
573.757	9566.7464
574.222	9976.07417
574.686	10162.71279
575.15	10534.88123
575.614	10763.97374
576.078	11039.08288
576.542	11429.16431
577.006	11552.90632
577.469	11848.76749
577.933	12035.77502
578.396	12006.01633
578.86	12115.7497
579.323	12008.04307
579.786	12002.84213
580.249	11995.35389
580.712	12082.21358
581.175	11748.27735
581.637	11689.42528
582.1	11397.19803
582.563	11391.30821
583.025	11153.40495
583.487	10915.33597
583.95	10705.03667
584.412	10453.03367
584.874	10243.72054
585.336	9998.97009
585.797	9580.88478
586.259	9477.46592
586.721	8964.29575
587.182	8956.28172
587.643	8594.5966
588.105	8419.37851
588.566	8066.72598
589.027	7892.80473
589.488	7622.43597
589.949	7466.54786
590.41	7268.77029
590.87	7045.1516
591.331	6886.89374
591.791	6688.10394
592.252	6468.0472
592.712	6374.3414
593.172	6073.04921
593.632	6003.96016
594.092	5859.06753
594.552	5733.93179
595.011	5414.37269
595.471	5314.30496
595.931	5276.29793
596.39	5071.8125
596.849	5020.68003
597.308	4903.3662
597.768	4730.41209
598.227	4560.16444
598.685	4601.86934
599.144	4461.02494
599.603	4429.13022
600.062	4365.46014
600.52	4170.89103
600.978	4139.29038
601.437	4049.13696
601.895	4019.71582
602.353	3821.07624
602.811	3832.05813
603.269	3861.47896
603.727	3778.51374
604.184	3639.20666
604.642	3608.71986
605.099	3614.39948
605.557	3537.72465
606.014	3505.02648
606.471	3400.86607
606.928	3431.00756
607.385	3369.69507
607.842	3452.36289
608.299	3513.46231
608.755	3407.67331
609.212	3241.27701
609.668	3265.22661
610.125	3348.72633
610.581	3374.6785
611.037	3205.51606
611.493	3187.69903
611.949	3017.79293
612.405	3061.9031
612.861	3072.72263
613.316	2942.77883
613.772	2884.60028
614.227	2890.72887
614.683	2924.29005
615.138	2820.69826
615.593	2740.67542
616.048	2815.62505
616.503	2811.99913
616.958	2758.07887
617.412	2662.78586
617.867	2611.45201
618.321	2596.21254
618.776	2622.49777
619.23	2555.76304
619.684	2553.60852
620.138	2518.74634
620.592	2458.93478
621.046	2372.77545
621.5	2347.9182
621.954	2270.58782
622.407	2267.53971
622.861	2227.89473
623.314	2214.6273
623.768	2177.7046
624.221	2146.07144
624.674	2084.63427
625.127	2128.72272
625.58	2135.64515
626.033	2099.51145
626.485	1915.71364
626.938	2047.78327
627.39	1887.60868
627.843	2006.65911
628.295	1950.63217
628.747	1933.73456
629.199	1926.56385
629.651	1819.50169
630.103	1854.55809
630.555	1789.2604
631.006	1827.6446
631.458	1741.6061
631.909	1810.58208
632.361	1718.56434
632.812	1770.56311
633.263	1708.30066
633.714	1693.27786
634.165	1678.69122
634.616	1700.64012
635.067	1726.43292
635.518	1753.707
635.968	1745.12834
636.419	1674.33486
636.869	1622.59765
637.319	1697.55596
637.769	1670.42358
638.219	1701.6957
638.669	1632.61968
639.119	1621.70181
639.569	1678.7093
640.019	1692.57923
640.468	1649.42705
640.918	1686.72839
641.367	1598.40579
641.816	1616.41306
642.265	1619.52818
642.714	1690.58971
643.163	1663.54859
643.612	1602.63307
644.061	1655.26356
644.51	1708.55073
644.958	1705.42764
645.406	1673.7004
645.855	1663.79037
646.303	1743.68825
646.751	1679.53
647.199	1703.55451
647.647	1607.51501
648.095	1722.59641
648.543	1739.24549
648.99	1737.76271
649.438	1726.70719
649.885	1673.85106
650.333	1692.05272
650.78	1653.7377
651.227	1679.7902
651.674	1631.51648
652.121	1661.7795
652.568	1584.69621
653.015	1655.93095
653.461	1609.64829
653.908	1626.59827
654.354	1658.71844
654.801	1627.61815
655.247	1649.42412
655.693	1606.00084
656.139	1588.66862
656.585	1558.6432
657.031	1546.52497
657.477	1543.28561
657.922	1520.4671
658.368	1534.72602
658.813	1617.60773
659.259	1523.61309
659.704	1521.51333
660.149	1549.54317
660.594	1598.6567
661.039	1567.48835
661.484	1587.67911
661.929	1547.5636
662.373	1523.7971
662.818	1531.75057
663.262	1477.58598
663.707	1532.83252
664.151	1595.77063
664.595	1514.63668
665.039	1598.84614
665.483	1531.85367
665.927	1539.59196
666.371	1460.44153
666.814	1592.69553
667.258	1537.59552
667.701	1641.40346
668.145	1580.8383
668.588	1567.77003
669.031	1550.5931
669.474	1537.67209
669.917	1648.4952
670.36	1593.83936
670.803	1650.8019
671.245	1597.29711
671.688	1584.77653
672.13	1473.37495
672.573	1604.95302
673.015	1546.68012
673.457	1555.36601
673.899	1587.75809
674.341	1591.74635
674.783	1584.71197
675.225	1571.79282
675.666	1569.70246
676.108	1631.4263
676.549	1672.76416
676.991	1600.45025
677.432	1559.10831
677.873	1564.57999
678.314	1615.73839
678.755	1575.76424
679.196	1555.53488
679.637	1582.79453
680.078	1604.66386
680.518	1561.61093
680.959	1569.70672
681.399	1574.83605
681.839	1681.87845
682.28	1532.76979
682.72	1550.53155
683.16	1572.84957
683.6	1541.52021
684.039	1623.29771
684.479	1562.78596
684.919	1546.54588
685.358	1586.94427
685.798	1548.0189
686.237	1579.75985
686.676	1567.60689
687.115	1586.66237
687.554	1625.73639
687.993	1614.48491
688.432	1542.52533
688.871	1564.5194
689.309	1580.71223
689.748	1638.32577
690.186	1644.78273
690.625	1572.6387
691.063	1553.70007
691.501	1594.85634
691.939	1586.87651
692.377	1633.84444
692.815	1599.73565
693.253	1690.85203
693.69	1687.5212
694.128	1608.79117
694.565	1620.75206
695.003	1631.99774
695.44	1665.73826
695.877	1619.67072
696.314	1609.3946
696.751	1660.63527
697.188	1628.62343
697.625	1649.65093
698.061	1617.76812
698.498	1663.85192
698.934	1718.88263
699.371	1636.71595
699.807	1647.74846
700.243	1652.81427
700.679	1684.62703
701.115	1723.80664
701.551	1666.75266
701.987	1703.61974
702.422	1648.76129
702.858	1644.77085
703.294	1689.63265
703.729	1657.88651
704.164	1657.8221
704.599	1707.58489
705.035	1659.55868
705.47	1613.81378
705.904	1613.65929
706.339	1760.7926
706.774	1650.71412
707.209	1604.61471
707.643	1652.80979
708.078	1687.89489
708.512	1621.92629
708.946	1624.77798
709.38	1652.7606
709.814	1583.57093
710.248	1611.82486
710.682	1589.70981
711.116	1554.67858
711.549	1485.89227
711.983	1600.61966
712.416	1526.63002
712.85	1596.89327
713.283	1579.68407
713.716	1540.86279
714.149	1562.6967
714.582	1451.38373
715.015	1544.85479
715.448	1515.84307
715.881	1457.31613
716.313	1476.54335
716.746	1400.47279
717.178	1404.54512
717.61	1397.71673
718.043	1411.67568
718.475	1352.50975
718.907	1377.68783
719.339	1322.26942
719.77	1281.34885
720.202	1303.57891
720.634	1231.35944
721.065	1220.27404
721.497	1197.33693
721.928	1181.31646
722.359	1135.19897
722.79	1130.17526
723.221	1180.38974
723.652	1183.46904
724.083	1145.04524
724.514	1058.97749
724.945	1079.05852
725.375	1031.95773
725.806	1041.15423
726.236	1014.17509
726.666	983.93701
727.096	983.01777
727.526	983.09815
727.956	894.71406
728.386	879.85497
728.816	886.92313
729.246	885.83423
729.675	856.81153
730.105	887.86778
730.534	868.73215
730.964	824.8135
731.393	836.80073
731.822	884.94233
732.251	797.76979
732.68	812.65623
733.109	778.67788
733.537	748.58695
733.966	741.62428
734.395	730.48071
734.823	694.38517
735.251	696.48936
735.68	720.60237
736.108	670.52175
736.536	632.34119
736.964	670.38422
737.392	651.46633
737.82	631.36437
738.247	676.44465
738.675	620.33856
739.102	544.24828
739.53	534.25265
739.957	580.36385
740.384	613.37165
740.811	550.28169
741.238	546.22232
741.665	448.97115
742.092	543.18987
742.519	459.05989
742.945	505.12042
743.372	527.20221
743.798	458.10165
744.225	488.07523
744.651	470.09974
745.077	429.00501
745.503	455.0373
745.929	409.92643
746.355	500.15404
746.781	392.92122
747.207	363.80988
747.632	385.88942
748.058	389.92111
748.483	450.96842
748.908	379.89502
749.334	405.94044
749.759	386.86243
750.184	386.87097
750.609	335.7893
751.033	434.96405
751.458	363.77534
751.883	360.85131
752.307	339.76322
752.732	285.68792
753.156	366.86081
753.58	337.76679
754.005	359.87008
754.429	310.70094
754.853	269.64636
755.277	333.75493
755.7	319.76065
756.124	280.6724
756.548	266.61175
756.971	290.68449
757.394	259.64867
757.818	251.62864
758.241	288.70629
758.664	249.61213
759.087	241.52414
759.51	264.63808
759.933	218.51357
760.356	255.63589
760.778	208.5018
761.201	287.67518
761.623	261.61569
762.046	250.57817
762.468	281.65385
762.89	291.69417
763.312	263.62378
763.734	170.40454
764.156	225.54332
764.578	232.52181
765	201.48189
765.421	182.45494
765.843	209.53719
766.264	219.51843
766.686	217.53387
767.107	182.43476
767.528	174.4329
767.949	214.53299
768.37	164.39805
768.791	253.59543
769.212	117.29263
769.632	129.29924
770.053	202.52183
770.473	205.48923
770.894	231.56495
771.314	226.52806
771.734	137.31754
772.154	195.49192
772.575	197.449
772.994	133.30068
773.414	199.46963
773.834	157.38826
774.254	151.36615
774.673	165.39724
775.093	111.27391
775.512	112.2751
775.931	144.36178
776.351	119.29419
776.77	150.36298
777.189	150.35352
777.607	153.38639
778.026	156.38416
778.445	93.23252
778.864	193.48618
779.282	140.33418
779.701	126.31565
780.119	137.34315
780.537	104.25885
780.955	147.37031
781.373	139.34085
781.791	114.25547
782.209	170.3866
782.627	127.33201
783.045	107.24575
783.462	130.32954
783.88	98.25283
784.297	100.25097
784.715	122.31102
785.132	88.21319
785.549	100.24953
785.966	133.33168
786.383	162.39305
786.8	163.37361
787.217	99.23437
787.633	107.26588
788.05	152.35726
788.466	191.44217
788.883	134.33847
789.299	117.2803
789.715	136.32761
790.131	120.29649
790.547	110.27348
790.963	125.308
791.379	135.33801
791.795	142.32097
792.21	126.29257
792.626	133.31291
793.041	105.25815
793.457	99.24403
793.872	85.19998
794.287	71.16984
794.702	121.29616
795.117	78.19385
795.532	120.29845
795.947	149.35451
796.362	156.3678
796.776	145.33622
797.191	134.32487
797.605	31.0735
798.02	101.24491
798.434	148.32578
798.848	83.20429
799.262	101.24951
799.676	129.3121
800.09	109.26679
800.504	105.25375
800.918	98.22647
801.331	114.29696
801.745	101.23132
802.158	57.14303
802.572	125.30083
802.985	171.40653
803.398	123.29107
803.811	143.36346
804.224	111.27471
804.637	72.1718
805.05	146.33431
805.462	110.26879
805.875	84.21724
806.288	86.20709
806.7	122.30409
807.112	92.21295
807.525	113.2771
807.937	106.26056
808.349	101.25188
808.761	143.34754
809.173	115.27677
809.584	122.29911
809.996	66.16188
810.408	77.19848
810.819	129.30042
811.231	126.32235
811.642	123.29051
812.053	260.59628
812.464	293.6675
812.875	264.65176
813.286	195.49105
813.697	232.52652
814.108	133.32154
814.519	133.29332
814.929	161.40427
815.34	97.23433
815.75	129.32439
816.16	119.29419
816.571	97.25081
816.981	137.31981
817.391	103.24742
817.801	67.16655
818.211	130.30674
818.62	66.15911
819.03	150.36243
819.44	109.28281
819.849	115.28753
820.259	134.3392
820.668	86.21093
821.077	103.25426
821.486	146.3469
821.895	129.31551
822.304	69.18278
822.713	93.21906
823.122	111.27501
823.531	117.27505
823.939	97.23522
824.348	117.28211
824.756	102.25405
825.164	128.31881
825.573	104.25932
825.981	144.35239
826.389	148.36661
826.797	85.21229
827.205	123.27944
827.612	95.23339
828.02	65.15281
828.428	129.32497
828.835	100.26165
829.243	147.34531
829.65	98.24232
830.057	88.21287
830.464	75.18255
830.871	118.28005
831.278	112.26857
831.685	86.19145
832.092	142.34297
832.499	95.20688
832.905	108.27144
833.312	112.25347
833.718	127.31304
834.124	126.2848
834.531	93.23336
834.937	109.27763
835.343	72.17364
835.749	111.25728
836.155	110.28575
836.561	100.24445
836.966	108.26213
837.372	130.32708
837.777	116.2863
838.183	140.30688
838.588	95.2346
838.993	109.26332
839.399	97.23575
839.804	58.14152
840.209	86.21801
840.613	89.19719
841.018	115.28856
841.423	102.25985
841.828	108.27095
842.232	107.26306
842.637	86.20214
843.041	45.11567
843.445	84.20991
843.849	90.22172
844.253	119.27997
844.657	72.18096
845.061	120.26936
845.465	81.19501
845.869	121.27812
846.272	66.16062
846.676	143.34075
847.079	116.29207
847.483	123.30352
847.886	119.28661
848.289	80.21273
848.692	88.22181
849.095	84.20097
849.498	133.33289
849.901	96.21885
850.304	120.2837
850.707	115.29043
851.109	135.33716
851.512	106.25834
851.914	59.14869
852.316	84.21158
852.718	50.12926
853.121	92.22414
853.523	84.19551
853.925	76.19763
854.326	88.21887
854.728	74.18978
855.13	60.15469
855.531	76.18107
855.933	147.34719
856.334	76.18888
856.736	90.20044
857.137	81.1876
857.538	65.16322
857.939	99.24277
858.34	80.19425
858.741	90.23396
859.142	118.28037
859.542	60.15822
859.943	103.25389
860.343	28.06972
860.744	96.23266
861.144	92.22305
861.544	49.11797
861.945	71.18053
862.345	102.24748
862.745	77.19071
863.145	127.29972
863.544	96.24093
863.944	77.1813
864.344	123.30195
864.743	131.32076
865.143	115.2924
865.542	94.21654
865.941	136.33183
866.34	128.30261
866.74	89.23757
867.139	58.13887
867.537	80.20301
867.936	111.2645
868.335	92.23264
868.734	98.2486
869.132	105.24173
869.531	99.23763
869.929	57.12997
870.327	100.23779
870.726	143.35105
871.124	103.23864
871.522	79.20044
871.92	96.23511
872.318	123.29703
872.715	132.32231
873.113	84.20365
873.511	67.16661
873.908	67.16879
874.306	58.1442
874.703	95.23606
875.1	125.31591
875.497	79.18861
875.894	19.04687
876.291	109.26491
876.688	94.24082
877.085	110.26127
877.482	112.27754
877.878	122.28999
878.275	81.20486
878.671	128.28093
879.068	93.22297
879.464	104.24911
879.86	144.33476
880.256	85.20867
880.652	89.22501
881.048	114.2795
881.444	94.22215
881.84	90.22734
882.236	118.29337
882.631	90.21951
883.027	133.31741
883.422	75.1911
883.817	51.12825
884.213	61.15636
884.608	65.1591
885.003	30.07268
885.398	69.17227
885.793	95.23675
886.188	75.18575
886.582	137.34636
886.977	91.21451
887.371	73.18403
887.766	51.12691
888.16	120.29595
888.554	68.16777
888.949	95.23683
889.343	115.27781
889.737	20.05359
890.131	102.25369
890.525	80.20366
890.918	93.23244
891.312	93.22093
891.706	94.24494
892.099	120.30181
892.492	148.31305
892.886	89.21638
893.279	95.24027
893.672	87.22019
894.065	89.22147
894.458	118.29337
894.851	95.23106
895.244	94.23837
895.637	106.25283
896.029	75.18269
896.422	58.14162
896.814	98.24169
897.206	45.10736
897.599	108.26449
897.991	88.21143
898.383	95.22272
898.775	116.25856
899.167	51.11901
899.559	79.19909
899.951	127.29518
900.342	106.26708
900.734	31.07723
901.125	91.23725
901.517	73.17855
901.908	105.24934
902.299	74.18022
902.69	62.14607
903.082	100.24007
903.473	102.24199
903.863	83.21066
904.254	146.3327
904.645	129.31645
905.036	57.13791
905.426	138.31065
905.817	84.20495
906.207	44.10503
906.597	95.22037
906.987	93.23939
907.378	104.26063
907.768	94.24679
908.158	112.27011
908.547	54.13946
908.937	64.16391
909.327	116.27838
909.717	123.30842
910.106	51.12256
910.495	134.32962
910.885	134.33448
911.274	95.23563
911.663	112.28129
912.052	120.29246
912.441	107.26946
912.83	74.16917
913.219	102.2647
913.608	97.23566
913.997	38.09551
914.385	123.28995
914.774	95.2295
915.162	63.14984
915.55	127.30298
915.939	71.17861
916.327	95.23529
916.715	102.25765
917.103	179.43029
917.491	116.28366
917.878	77.18847
918.266	91.2344
918.654	94.23837
919.041	65.16929
919.429	76.17856
919.816	100.25133
920.203	40.09723
920.591	87.21437
920.978	81.1973
921.365	92.23973
921.752	100.23623
922.139	89.19176
922.525	74.17698
922.912	93.22509
923.299	92.22698
923.685	72.18717
924.072	137.31061
924.458	82.20201
924.844	66.16289
925.231	94.21697
925.617	55.1398
926.003	70.17833
926.389	82.20572
926.774	85.21413
927.16	120.29432
927.546	53.13524
927.931	93.23033
928.317	92.21024
928.702	160.37063
929.088	89.20898
929.473	52.13229
929.858	-5.01222
930.243	67.16033
930.628	44.1072
931.013	90.22147
931.398	148.33384
931.783	122.31736
932.167	75.18255
932.552	110.27268
932.937	78.19265
933.321	46.11553
933.705	57.14354
934.09	128.31904
934.474	114.26753
934.858	83.21409
935.242	55.12738
935.626	91.2313
936.009	88.2326
936.393	103.25966
936.777	82.20883
937.16	115.29591
937.544	137.31742
937.927	58.14698
938.311	137.32908
938.694	107.2803
939.077	44.10547
939.46	116.28145
939.843	135.27647
940.226	86.21925
940.609	62.14203
940.991	61.15499
941.374	82.19925
941.757	111.27088
942.139	84.18739
942.522	105.24559
942.904	81.19361
943.286	78.19724
943.668	101.25934
944.05	92.22489
944.432	92.22531
944.814	117.28467
945.196	82.19866
945.578	74.17508
945.959	117.27065
946.341	155.37317
946.722	109.25295
947.104	100.23678
947.485	98.22593
947.866	76.1906
948.247	105.26233
948.628	90.21795
949.009	82.20883
949.39	90.22245
949.771	83.19185
950.152	100.24317
950.532	-1.00248
950.913	75.18009
951.293	57.15381
951.674	108.25839
952.054	88.21655
952.434	107.26287
952.814	141.32966
953.194	91.23652
953.574	121.29418
953.954	121.28346
954.334	65.16158
954.714	54.13151
955.093	95.23166
955.473	78.19407
955.853	128.32689
956.232	83.2263
956.611	103.24459
956.99	81.20245
957.37	104.26251
957.749	93.22008
958.128	94.23498
958.506	77.19882
958.885	95.23787
959.264	108.26184
959.643	101.2275
960.021	122.29833
960.4	118.26378
960.778	116.28229
961.156	65.16252
961.535	101.23308
961.913	104.24082
962.291	66.16885
962.669	67.16921
963.047	99.25047
963.424	100.25296
963.802	83.20285
964.18	114.28518
964.557	113.25703
964.935	81.19079
965.312	93.24039
965.69	106.26277
966.067	114.27431
966.444	88.21535
966.821	107.27312
967.198	114.27327
967.575	103.2508
967.952	92.21506
968.329	124.29758
968.705	133.28015
969.082	89.22669
969.458	26.06266
969.835	110.26478
970.211	101.25689
970.587	75.18589
970.963	110.27924
971.339	108.2792
971.715	64.15941
972.091	120.2917
972.467	117.28829
972.843	57.14128
973.219	172.40348
973.594	83.21587
973.97	106.24963
974.345	97.23008
974.721	98.23518
975.096	114.27254
975.471	92.21649
975.846	132.31219
976.221	53.13452
976.596	108.25602
976.971	151.36588
977.346	124.28451
977.72	102.25746
978.095	80.20567
978.469	86.20387
978.844	99.24672
979.218	84.20005
979.593	114.26983
979.967	138.33067
980.341	103.23467
980.715	113.2815
981.089	94.23345
981.463	63.14429
981.837	77.18721
982.21	154.35107
982.584	107.25566
982.957	40.10006
983.331	126.29349
983.704	69.16895
984.078	46.11345
984.451	117.28871
984.824	59.14345
985.197	67.16223
985.57	101.25097
985.943	110.26869
986.316	146.35237
986.688	70.16818
987.061	130.29995
987.434	86.22272
987.806	89.21428
988.179	90.21071
988.551	107.26868
988.923	127.30831
989.295	135.33215
989.667	71.16893
990.039	73.17961
990.411	95.2167
990.783	58.13334
991.155	41.09867
991.527	142.34375
991.898	60.14923
992.27	57.14081
992.641	154.3791
993.012	96.22388
993.384	84.19905
993.755	84.21286
994.126	93.22187
994.497	39.09592
994.868	94.21403
995.239	78.18804
995.61	64.16062
995.98	40.09734
996.351	30.07456
996.722	63.14574
997.092	68.16045
997.462	41.09594
997.833	122.28518
998.203	105.25193
998.573	65.1614
998.943	115.26624
999.313	82.19529
999.683	36.08662
1000.053	74.16945
1000.423	114.27368
1000.792	60.15522
1001.162	87.21263
1001.531	78.19131
1001.901	77.19099
1002.27	82.1821
1002.639	91.23081
1003.009	57.13536
1003.378	79.20094
1003.747	64.15078
1004.116	56.13383
1004.485	91.21576
1004.853	117.29284
1005.222	112.27926
1005.591	104.24435
1005.959	51.11488
1006.328	83.1855
1006.696	56.1349
1007.064	94.23455
1007.433	151.37041
1007.801	101.24556
1008.169	78.19597
1008.537	129.28092
1008.905	68.15783
1009.273	110.26869
1009.64	80.18972
1010.008	112.26376
1010.375	106.25467
1010.743	123.27989
1011.11	69.16265
1011.478	104.25479
1011.845	127.29413
1012.212	96.21522
1012.579	117.28361
1012.946	83.19626
1013.313	122.2863
1013.68	89.19842
1014.047	69.16379
1014.414	81.19013
1014.78	53.1316
1015.147	132.31424
1015.513	81.19398
1015.88	135.33997
1016.246	124.30187
1016.612	77.17529
1016.978	91.22125
1017.344	104.25441
1017.71	117.28169
1018.076	139.32205
1018.442	89.22733
1018.808	72.1792
1019.174	79.19709
1019.539	147.33179
1019.905	67.15745
1020.27	76.18661
1020.636	131.30916
1021.001	80.19038
1021.366	108.25642
1021.731	109.27734
1022.096	66.16594
1022.461	120.28007
1022.826	85.2006
1023.191	76.19845
1023.556	126.29083
1023.92	115.27928
1024.285	96.23222
1024.649	97.23557
1025.014	97.23813
1025.378	57.14308
1025.742	109.26768
1026.107	94.21065
1026.471	106.24467
1026.835	115.28158
1027.199	67.1607
1027.562	108.24809
1027.926	99.23979
1028.29	86.21615
1028.654	97.221
1029.017	59.14473
1029.381	76.18058
1029.744	110.27746
1030.107	136.31629
1030.471	90.21376
1030.834	107.24052
1031.197	108.25721
1031.56	64.15055
1031.923	84.21581
1032.286	114.26429
1032.648	120.28304
1033.011	62.14191
1033.374	126.29164
1033.736	73.1911
1034.099	63.15311
1034.461	69.17364
1034.823	100.24663
1035.185	120.29813
1035.548	94.22678
1035.91	114.26962
1036.272	112.25161
1036.634	127.30611
1036.995	80.18686
1037.357	61.14803
1037.719	65.15756
1038.08	113.26492
1038.442	79.18637
1038.803	80.19089
1039.165	87.21799
1039.526	97.23221
1039.887	121.28545
1040.248	38.09379
1040.609	123.29972
1040.97	119.28693
1041.331	102.25571
1041.692	79.18326
1042.053	87.19653
1042.413	70.16241
1042.774	123.2949
1043.134	115.27025
1043.495	128.31707
1043.855	78.18811
1044.215	97.23857
1044.576	48.11475
1044.936	134.3019
1045.296	132.32435
1045.656	99.24061
1046.016	113.26937
1046.375	64.15476
1046.735	45.10207
1047.095	107.24752
1047.454	118.2462
1047.814	87.20755
1048.173	156.36494
1048.533	107.2422
1048.892	42.10091
1049.251	135.33349
1049.61	84.20541
1049.969	115.2675
1050.328	76.16378
1050.687	86.20772
1051.046	75.18166
1051.405	93.22941
1051.763	48.11035
1052.122	75.18609
1052.48	71.17333
1052.839	94.21913
1053.197	82.19168
1053.555	112.25202
1053.914	85.20643
1054.272	122.29077
1054.63	74.18002
1054.988	65.15388
1055.345	89.18994
1055.703	140.33098
1056.061	59.15145
1056.419	89.22869
1056.776	111.26592
1057.134	95.21784
1057.491	84.20892
1057.848	119.29235
1058.206	98.22818
1058.563	144.31099
1058.92	130.29468
1059.277	71.17436
1059.634	136.31441
1059.991	137.32257
1060.348	80.17957
1060.704	37.08834
1061.061	128.29262
1061.418	61.14753
1061.774	90.22041
1062.131	61.16088
1062.487	94.21775
1062.843	109.26867
1063.199	91.22447
1063.555	44.10201
1063.911	99.2477
1064.267	121.24825
1064.623	41.09968
1064.979	151.35055
1065.335	99.23428
1065.691	102.24189
1066.046	70.15318
1066.402	100.22474
1066.757	58.14609
1067.112	95.23106
1067.468	46.10863
1067.823	120.28447
1068.178	80.19228
1068.533	105.25174
1068.888	82.19461
1069.243	105.25633
1069.598	89.21452
1069.952	63.14139
1070.307	81.19922
1070.662	79.18637
1071.016	73.16268
1071.371	97.2184
1071.725	124.29225
1072.079	70.16761
1072.434	103.2476
1072.788	100.23568
1073.142	111.26977
1073.496	47.11148
1073.85	83.19109
1074.203	123.29411
1074.557	68.18016
1074.911	126.29615
1075.265	104.239
1075.618	110.26538
1075.971	128.29968
1076.325	43.10933
1076.678	61.13909
1077.031	95.21285
1077.385	113.24545
1077.738	52.11725
1078.091	43.09785
1078.444	89.2049
1078.796	65.15892
1079.149	83.20504
1079.502	74.17386
1079.855	60.13954
1080.207	115.2797
1080.56	74.19031
1080.912	104.25044
1081.264	83.19847
1081.617	88.21279
1081.969	66.16588
1082.321	113.27247
1082.673	61.13881
1083.025	53.12557
1083.377	-143.31947
1083.728	110.2534
1084.08	67.16661
1084.432	87.20819
1084.783	97.22501
1085.135	83.20662
1085.486	40.09163
1085.838	119.2891
1086.189	48.11646
1086.54	130.30543
1086.891	16.04068
1087.242	98.23626
1087.593	104.25044
1087.944	106.23696
1088.295	113.25339
1088.646	76.18315
1088.996	62.1489
1089.347	56.13715
1089.698	46.10871
1090.048	112.28754
1090.398	73.1684
1090.749	52.12427
1091.099	57.14303
1091.449	101.24905
1091.799	73.18186
1092.149	42.10248
1092.499	139.33313
1092.849	94.23685
1093.199	82.20417
1093.548	97.23079
1093.898	45.11259
1094.248	81.20683
1094.597	23.05894
1094.947	46.12269
1095.296	98.23965
1095.645	92.23735
1095.994	63.15082
1096.343	96.23937
1096.692	52.13643
1097.041	56.15133
1097.39	37.09294
1097.739	92.23718
1098.088	73.19466
1098.437	29.07638
1098.785	66.17731
1099.134	104.27341
1099.482	94.25649
1099.83	109.2833
1100.179	63.1638
1100.527	83.21912
1100.875	29.07687
1101.223	87.22938
1101.571	54.149
1101.919	38.09939
1102.267	42.11828
1102.615	19.06098
1102.962	33.10596
1103.31	8.0257
1103.658	32.10281
