Data from N2 R15 sample 9_Subt2__5__15-24-56-507.txt Node

Date: Tue Sep 02 15:24:56 PDT 2025
User: uwsun
Spectrometer: HDX01956
Trigger mode: 0
Integration Time (sec): 5.000000E-1
Scans to average: 1
Nonlinearity correction enabled: true
Boxcar width: 0
Storing dark spectrum: false
XAxis mode: Wavelengths
Number of Pixels in Spectrum: 2068
>>>>>Begin Spectral Data<<<<<
194.03	144.39518
194.578	151.46856
195.127	155.47341
195.676	140.4298
196.225	199.51025
196.773	236.62247
197.321	305.77704
197.87	423.96475
198.418	419.9429
198.966	357.81885
199.513	376.8151
200.061	333.74173
200.609	411.95739
201.156	349.65877
201.704	316.70198
202.251	345.80622
202.798	357.81524
203.345	425.91168
203.892	370.81474
204.438	384.79939
204.985	378.77044
205.532	373.85965
206.078	416.88256
206.624	396.8405
207.17	421.84032
207.716	360.76043
208.262	415.69457
208.808	410.86452
209.354	402.84319
209.899	470.02294
210.445	401.85909
210.99	347.72799
211.535	435.87834
212.08	416.83323
212.625	408.88747
213.17	389.86142
213.715	358.68322
214.259	453.9021
214.804	449.95692
215.348	469.91223
215.892	410.85085
216.436	447.88973
216.98	465.87604
217.524	378.77639
218.068	470.01601
218.612	428.9365
219.155	383.78364
219.698	403.83315
220.242	424.92188
220.785	359.73587
221.328	407.88549
221.871	427.94673
222.414	386.84569
222.956	344.72696
223.499	362.71199
224.041	377.77172
224.583	379.71645
225.126	368.70742
225.668	354.75661
226.21	358.79295
226.751	332.63421
227.293	407.80785
227.835	345.74168
228.376	394.79501
228.918	391.86837
229.459	339.74352
230	359.74951
230.541	368.74255
231.082	375.79507
231.622	390.78296
232.163	353.75006
232.704	383.82868
233.244	349.7619
233.784	347.75304
234.324	304.58353
234.864	346.68629
235.404	361.75435
235.944	396.81776
236.484	379.83053
237.023	374.76887
237.563	368.7388
238.102	436.88541
238.641	339.75697
239.18	333.6798
239.719	368.81
240.258	395.76756
240.797	423.8694
241.335	396.8438
241.874	409.66391
242.412	391.81342
242.95	365.75561
243.488	342.68184
244.026	380.75584
244.564	419.73208
245.102	434.82827
245.64	395.82759
246.177	398.76693
246.715	401.83422
247.252	454.88831
247.789	454.71814
248.326	357.7417
248.863	399.74614
249.4	394.77054
249.936	369.6498
250.473	401.80114
251.009	441.8545
251.546	409.76711
252.082	426.79171
252.618	408.7726
253.154	394.81254
253.69	399.76794
254.226	356.73616
254.761	428.81484
255.297	362.67945
255.832	382.77682
256.367	413.83086
256.903	385.72067
257.438	459.91277
257.972	414.78243
258.507	338.66603
259.042	399.73544
259.576	407.73476
260.111	372.74062
260.645	397.73065
261.179	403.79916
261.713	400.75375
262.247	434.84677
262.781	358.6372
263.315	408.85086
263.849	362.78074
264.382	419.81769
264.915	384.76487
265.449	381.78697
265.982	437.83825
266.515	478.97601
267.048	431.75941
267.58	432.79528
268.113	418.75443
268.646	419.87632
269.178	382.72018
269.71	454.8253
270.243	451.8626
270.775	417.90223
271.307	442.90005
271.838	427.86179
272.37	435.90293
272.902	438.8351
273.433	417.76207
273.965	445.91008
274.496	403.85517
275.027	425.89004
275.558	431.87825
276.089	355.74017
276.62	438.94503
277.15	483.99629
277.681	413.75132
278.211	436.90157
278.741	410.74946
279.272	406.77408
279.802	388.82424
280.332	379.75298
280.861	425.85736
281.391	427.80246
281.921	406.82562
282.45	467.97496
282.98	438.96242
283.509	450.83341
284.038	437.82328
284.567	434.84596
285.096	503.99701
285.625	459.85369
286.153	423.82079
286.682	501.92766
287.21	428.8537
287.739	441.8594
288.267	463.91944
288.795	448.98729
289.323	435.83199
289.851	484.92326
290.378	440.80716
290.906	402.80333
291.433	432.8921
291.961	471.85991
292.488	422.87067
293.015	410.7912
293.542	481.99083
294.069	410.83034
294.596	503.01014
295.122	457.88635
295.649	457.81283
296.175	520.01334
296.702	522.01628
297.228	536.0431
297.754	427.77561
298.28	451.8213
298.806	519.99172
299.332	482.84065
299.857	486.86868
300.383	492.00779
300.908	448.86993
301.433	450.87798
301.958	530.96742
302.483	463.92587
303.008	566.10107
303.533	499.04728
304.058	491.92185
304.582	448.84007
305.107	448.9409
305.631	562.99423
306.155	479.87408
306.679	509.9232
307.203	515.92648
307.727	541.99425
308.251	537.03438
308.775	474.87393
309.298	432.81286
309.822	535.05128
310.345	571.02889
310.868	537.98392
311.391	583.09732
311.914	533.02666
312.437	595.01864
312.96	590.03796
313.482	597.05442
314.005	539.03426
314.527	584.16476
315.049	622.18322
315.571	539.88003
316.093	602.10845
316.615	583.03875
317.137	564.89334
317.659	639.14052
318.18	627.10983
318.702	634.05857
319.223	682.95979
319.744	551.89359
320.265	577.01212
320.786	578.03328
321.307	634.13012
321.828	658.03397
322.348	649.06737
322.869	635.03965
323.389	693.69576
323.909	675.06107
324.43	735.22131
324.95	630.98597
325.47	642.08607
325.989	679.07355
326.509	626.91003
327.029	744.07085
327.548	760.07832
328.067	711.11784
328.587	761.24449
329.106	738.06284
329.625	763.35186
330.144	700.0274
330.662	655.97146
331.181	793.14417
331.7	763.10618
332.218	793.01244
332.736	809.14345
333.255	822.13515
333.773	793.12712
334.291	837.27575
334.808	793.01663
335.326	873.10756
335.844	772.02738
336.361	764.14579
336.879	840.085
337.396	874.16777
337.913	823.03508
338.43	898.05616
338.947	948.18804
339.464	921.97096
339.981	921.12942
340.497	925.21713
341.014	911.1593
341.53	889.99456
342.046	937.17128
342.562	962.23439
343.078	931.08042
343.594	1003.15613
344.11	1033.15914
344.626	989.22385
345.141	1013.03926
345.657	1069.07685
346.172	988.11278
346.687	996.01365
347.202	1042.98689
347.717	1050.10295
348.232	1082.21153
348.747	1062.01438
349.261	1029.862
349.776	1083.04689
350.29	1067.09451
350.805	1185.20754
351.319	1150.0374
351.833	1057.90555
352.347	1064.98342
352.861	1117.97516
353.374	1200.00747
353.888	1159.06706
354.401	1084.91637
354.915	1155.85198
355.428	1220.09592
355.941	1225.93984
356.454	1263.91229
356.967	1333.01347
357.48	1301.93762
357.993	1173.02652
358.505	1189.98834
359.018	1342.03589
359.53	1340.96725
360.042	1307.8027
360.554	1337.98537
361.066	1317.96189
361.578	1352.7324
362.09	1311.90437
362.602	1327.71667
363.113	1377.81565
363.625	1390.73277
364.136	1438.6889
364.647	1330.7052
365.158	1469.76269
365.669	1497.82313
366.18	1421.77043
366.691	1434.61759
367.201	1468.76694
367.712	1445.62628
368.222	1450.62099
368.733	1476.46733
369.243	1590.46223
369.753	1583.56501
370.263	1507.62073
370.773	1582.66639
371.282	1578.52416
371.792	1472.3551
372.301	1665.43634
372.811	1656.61539
373.32	1642.07814
373.829	1646.22687
374.338	1836.99792
374.847	1881.97362
375.356	1848.98592
375.865	1913.64824
376.373	2040.63769
376.882	2015.87897
377.39	2023.70001
377.898	2088.53357
378.407	2178.27664
378.915	2326.10519
379.423	2423.08219
379.93	2485.94811
380.438	2442.93318
380.946	2698.74671
381.453	2804.68662
381.96	2771.69447
382.468	2895.76445
382.975	3316.81348
383.482	3483.13368
383.989	3360.93187
384.495	3500.47945
385.002	3489.30929
385.509	3672.56999
386.015	4045.87335
386.521	4369.74178
387.028	4422.99608
387.534	4343.82642
388.04	4812.27097
388.546	4631.15781
389.051	4773.28663
389.557	5167.67874
390.063	6147.55556
390.568	6262.39219
391.073	6189.15282
391.578	6480.27866
392.084	6507.66911
392.589	6348.16924
393.093	6436.47532
393.598	7425.90985
394.103	8186.49198
394.607	9108.38197
395.112	10246.35001
395.616	10642.06924
396.12	11196.91637
396.624	11991.06965
397.128	13481.52886
397.632	15466.13438
398.136	16590.35557
398.639	15896.86176
399.143	16832.56438
399.646	19654.02525
400.15	21097.12963
400.653	19058.79545
401.156	13532.22345
401.659	5169.95759
402.162	1054.15589
402.664	0
403.167	0
403.67	0
404.172	0
404.674	0
405.176	0
405.678	0
406.18	0
406.682	0
407.184	0
407.686	0
408.187	0
408.688	0
409.19	0
409.691	0
410.192	0
410.693	0
411.194	435.30976
411.694	4082.94878
412.195	8864.71461
412.696	12089.80453
413.196	12760.96929
413.696	12863.67595
414.196	13703.56671
414.696	17261.84252
415.196	21764.24417
415.696	29583.19008
416.196	36460.31858
416.695	28177.07562
417.195	21901.18297
417.694	20888.41355
418.194	19932.41707
418.693	18062.36793
419.192	17222.42133
419.691	16986.88359
420.19	16914.41569
420.688	16897.07509
421.187	16466.45898
421.685	15693.62245
422.184	14585.8426
422.682	12665.58908
423.18	10256.17104
423.678	9051.19543
424.176	8259.20824
424.674	7733.32738
425.172	7397.25935
425.669	7226.97138
426.167	6835.42005
426.664	6179.72003
427.161	5535.30245
427.659	5165.75077
428.156	4831.04019
428.652	4428.31131
429.149	4329.02688
429.646	4126.70012
430.143	4042.04105
430.639	3708.74469
431.135	3430.57314
431.632	3250.58529
432.128	2936.68969
432.624	2761.84692
433.12	2522.85354
433.616	2501.8815
434.111	2318.06343
434.607	2290.18051
435.103	2340.1133
435.598	2422.09932
436.093	2217.49869
436.588	2067.61441
437.083	2001.7456
437.578	1876.91509
438.073	1650.14875
438.568	1740.25366
439.062	1624.04366
439.557	1569.33552
440.051	1495.28086
440.546	1435.32042
441.04	1374.46648
441.534	1364.63251
442.028	1411.56497
442.522	1285.56935
443.015	1295.42887
443.509	1361.67749
444.002	1193.66748
444.496	1200.48934
444.989	1246.71558
445.482	1198.74635
445.975	1055.54249
446.468	1168.49851
446.961	1187.50917
447.454	1064.60668
447.947	1034.66093
448.439	1079.76503
448.931	1011.60022
449.424	1028.84333
449.916	1104.80175
450.408	981.62812
450.9	968.74994
451.392	883.792
451.884	958.70642
452.375	809.73295
452.867	901.69545
453.358	855.64858
453.849	889.59402
454.341	840.66013
454.832	894.62622
455.323	766.73586
455.814	877.74006
456.304	783.70018
456.795	886.75241
457.285	872.74038
457.776	882.79725
458.266	742.73809
458.756	712.7556
459.247	702.72172
459.737	632.67463
460.226	666.64477
460.716	662.72432
461.206	698.77466
461.695	689.84011
462.185	678.75411
462.674	700.75473
463.163	685.70212
463.653	671.63649
464.142	606.73621
464.63	623.78888
465.119	569.6681
465.608	581.68273
466.096	661.71107
466.585	628.75973
467.073	569.74748
467.561	520.70216
468.05	575.732
468.538	545.76591
469.026	561.75837
469.513	484.55947
470.001	510.65247
470.489	494.67757
470.976	551.72965
471.463	494.74959
471.951	511.7863
472.438	431.61868
472.925	377.54722
473.412	446.69938
473.899	439.63136
474.385	450.70935
474.872	413.61144
475.359	429.67798
475.845	380.49436
476.331	406.57091
476.817	387.63527
477.303	356.55462
477.789	351.57744
478.275	315.54279
478.761	343.57339
479.247	303.47215
479.732	292.51405
480.218	356.65995
480.703	339.59884
481.188	320.47528
481.673	315.51012
482.158	245.36485
482.643	303.57053
483.128	260.42782
483.612	259.44461
484.097	287.5234
484.581	261.45189
485.066	258.46824
485.55	209.34035
486.034	171.27846
486.518	214.3783
487.002	175.32869
487.486	201.37716
487.969	161.30568
488.453	200.39577
488.936	191.33139
489.42	260.43736
489.903	174.34932
490.386	-205.28716
490.869	226.38182
491.352	238.4617
491.835	170.27628
492.318	171.30457
492.8	198.31944
493.283	147.302
493.765	112.22444
494.247	157.29852
494.73	170.30051
495.212	173.34162
495.694	117.22225
496.175	110.21165
496.657	153.29687
497.139	178.24686
497.62	36.07094
498.102	95.19553
498.583	127.26468
499.064	100.18296
499.545	151.28222
500.026	82.15261
500.507	99.19154
500.988	145.29964
501.469	44.09327
501.949	95.19843
502.43	48.09596
502.91	83.14232
503.39	149.31316
503.87	76.15011
504.35	131.26002
504.83	74.13614
505.31	81.16596
505.79	101.203
506.269	138.27065
506.749	60.11606
507.228	139.2719
507.707	139.25644
508.187	150.30211
508.666	94.19552
509.145	130.25448
509.623	97.19307
510.102	159.32386
510.581	207.41817
511.059	131.27727
511.538	180.39406
512.016	143.28901
512.494	252.50685
512.972	208.41372
513.45	134.25957
513.928	232.46576
514.406	189.37689
514.884	247.5285
515.361	245.48561
515.839	277.51516
516.316	352.68449
516.793	304.6368
517.27	352.69656
517.747	363.7582
518.224	404.74783
518.701	347.62322
519.178	331.66805
519.654	385.74277
520.131	339.68639
520.607	417.83697
521.083	368.67744
521.56	359.68862
522.036	331.59142
522.512	330.67383
522.987	297.57849
523.463	319.62312
523.939	382.76513
524.414	313.59719
524.89	277.5475
525.365	320.5938
525.84	205.4088
526.315	274.54983
526.79	263.49399
527.265	246.46969
527.74	219.45175
528.215	209.41755
528.689	181.33996
529.164	209.38385
529.638	205.45191
530.112	179.35928
530.587	132.24066
531.061	151.3126
531.534	197.40929
532.008	128.26612
532.482	182.35812
532.956	107.23736
533.429	143.30028
533.903	120.23089
534.376	136.25966
534.849	125.25194
535.322	114.23468
535.795	90.19337
536.268	74.15646
536.741	52.11081
537.213	88.17879
537.686	55.1182
538.158	-4.00797
538.631	70.15092
539.103	74.1452
539.575	149.26841
540.047	92.17727
540.519	95.20011
540.991	69.14994
541.463	74.15844
541.934	60.1214
542.406	70.14703
542.877	66.13146
543.348	106.22519
543.82	115.24799
544.291	39.08132
544.762	66.13789
545.233	14.03132
545.703	57.11092
546.174	117.23722
546.645	3.00635
547.115	119.24923
547.585	87.17519
548.056	34.07195
548.526	100.20327
548.996	128.26647
549.466	168.35333
549.935	98.19975
550.405	125.23374
550.875	147.29682
551.344	123.25395
551.814	116.22912
552.283	159.29422
552.752	174.34028
553.221	146.26659
553.69	219.40384
554.159	169.34908
554.628	177.32966
555.096	190.40505
555.565	232.42856
556.033	238.47052
556.502	175.36229
556.97	243.45237
557.438	223.44987
557.906	195.39899
558.374	168.33416
558.842	160.33279
559.31	191.37008
559.777	140.29574
560.245	201.41108
560.712	177.35855
561.18	216.41081
561.647	226.43548
562.114	267.51907
562.581	277.58705
563.048	390.75188
563.514	321.6681
563.981	392.74992
564.448	384.71933
564.914	482.92123
565.381	491.91459
565.847	554.04698
566.313	533.00549
566.779	573.0325
567.245	617.14608
567.711	629.19511
568.176	708.22073
568.642	726.41695
569.108	796.49433
569.573	921.60298
570.038	943.41678
570.504	956.53543
570.969	1088.94784
571.434	1041.58544
571.899	1170.91372
572.363	1313.94846
572.828	1376.02654
573.293	1380.02633
573.757	1537.15528
574.222	1550.06401
574.686	1591.10073
575.15	1669.34763
575.614	1689.24581
576.078	1816.39526
576.542	1861.32319
577.006	1873.28711
577.469	1942.69907
577.933	1848.23912
578.396	2015.56089
578.86	2051.53943
579.323	1973.53491
579.786	2028.19888
580.249	1952.35558
580.712	2023.68311
581.175	2023.71117
581.637	1934.42432
582.1	1978.26874
582.563	1938.18365
583.025	1921.58962
583.487	1893.94555
583.95	1786.0918
584.412	1860.07555
584.874	1794.52728
585.336	1691.37459
585.797	1657.06426
586.259	1666.36024
586.721	1499.19968
587.182	1537.2479
587.643	1524.13613
588.105	1469.21152
588.566	1420.85803
589.027	1314.10198
589.488	1291.95142
589.949	1292.11211
590.41	1234.52992
590.87	1244.91846
591.331	1191.73625
591.791	1093.76787
592.252	1107.75751
592.712	1092.86615
593.172	989.60078
593.632	1019.59318
594.092	1061.66684
594.552	976.50402
595.011	963.60062
595.471	922.51165
595.931	921.50204
596.39	889.58791
596.849	917.57669
597.308	940.48319
597.768	796.56113
598.227	810.49306
598.685	816.42764
599.144	829.4668
599.603	843.51098
600.062	807.26126
600.52	842.39927
600.978	771.4079
601.437	796.38964
601.895	833.31111
602.353	798.34271
602.811	763.29239
603.269	825.50065
603.727	803.46793
604.184	807.36786
604.642	811.51843
605.099	813.42947
605.557	864.59041
606.014	828.32238
606.471	862.61767
606.928	852.33533
607.385	865.56561
607.842	1000.63729
608.299	1087.78577
608.755	1066.82838
609.212	1002.57963
609.668	1011.57329
610.125	1127.91641
610.581	1167.94644
611.037	1117.80079
611.493	1044.78766
611.949	998.75338
612.405	1052.45583
612.861	1111.86885
613.316	1065.82909
613.772	1080.76784
614.227	1054.79233
614.683	1072.62663
615.138	1034.75254
615.593	1043.75215
616.048	1119.82028
616.503	1136.00989
616.958	1102.00296
617.412	1079.84533
617.867	978.57713
618.321	1037.53546
618.776	1010.63445
619.23	1030.77773
619.684	993.66333
620.138	990.72116
620.592	955.7596
621.046	1021.78596
621.5	952.76062
621.954	969.64334
622.407	946.59255
622.861	900.69326
623.314	965.66388
623.768	866.57021
624.221	762.17584
624.674	806.46935
625.127	835.54115
625.58	818.483
626.033	835.45599
626.485	742.43933
626.938	712.38959
627.39	737.39527
627.843	715.35553
628.295	681.30227
628.747	658.30531
629.199	727.35285
629.651	658.24455
630.103	631.21407
630.555	663.16517
631.006	650.28341
631.458	624.24756
631.909	693.33421
632.361	572.14871
632.812	590.16639
633.263	591.08897
633.714	570.05098
634.165	633.31498
634.616	573.1817
635.067	629.19453
635.518	592.2245
635.968	589.0159
636.419	596.11772
636.869	577.19742
637.319	559.1285
637.769	549.07276
638.219	617.28056
638.669	563.17664
639.119	575.23201
639.569	565.19752
640.019	566.15024
640.468	577.12704
640.918	578.22591
641.367	574.12886
641.816	601.17179
642.265	608.22731
642.714	586.18987
643.163	624.24871
643.612	552.17069
644.061	522.97886
644.51	611.2139
644.958	599.14907
645.406	614.28595
645.855	582.26285
646.303	648.31956
646.751	557.12085
647.199	606.20815
647.647	670.33224
648.095	639.27494
648.543	644.14206
648.99	607.27603
649.438	691.40693
649.885	573.26361
650.333	610.02789
650.78	612.30321
651.227	584.26128
651.674	663.31249
652.121	578.25203
652.568	600.29035
653.015	624.39887
653.461	590.24433
653.908	588.21621
654.354	609.28867
654.801	545.1445
655.247	596.15789
655.693	566.32728
656.139	523.13248
656.585	579.24059
657.031	432.92609
657.477	502.98038
657.922	558.14943
658.368	555.23458
658.813	543.14029
659.259	518.12618
659.704	478.01658
660.149	511.08006
660.594	489.05964
661.039	478.99682
661.484	515.12083
661.929	499.06478
662.373	430.00441
662.818	479.0908
663.262	447.99477
663.707	471.09928
664.151	506.13032
664.595	433.96961
665.039	430.99709
665.483	454.0697
665.927	473.02622
666.371	381.82611
666.814	462.01997
667.258	391.86621
667.701	488.96931
668.145	475.09299
668.588	471.06823
669.031	398.87639
669.474	422.95023
669.917	486.99235
670.36	438.01152
670.803	440.99156
671.245	398.78833
671.688	468.05862
672.13	373.78944
672.573	461.08937
673.015	414.93337
673.457	436.88541
673.899	428.97201
674.341	445.00057
674.783	363.82527
675.225	403.93321
675.666	376.85395
676.108	385.79059
676.549	395.88418
676.991	433.89316
677.432	383.72011
677.873	336.74361
678.314	409.92003
678.755	398.91415
679.196	368.80014
679.637	383.88797
680.078	389.86286
680.518	384.84982
680.959	360.82126
681.399	327.77703
681.839	355.82405
682.28	349.82132
682.72	335.73382
683.16	368.87124
683.6	350.7636
684.039	333.6656
684.479	332.78026
684.919	293.65103
685.358	332.80813
685.798	280.70971
686.237	378.86961
686.676	337.75095
687.115	326.73591
687.554	332.75618
687.993	345.73083
688.432	311.68499
688.871	312.68157
689.309	315.72398
689.748	274.55821
690.186	350.80039
690.625	260.59317
691.063	259.60457
691.501	330.78341
691.939	320.76698
692.377	337.78784
692.815	285.65976
693.253	334.77148
693.69	305.64751
694.128	279.65483
694.565	283.65461
695.003	306.74903
695.44	301.68323
695.877	294.66369
696.314	342.70594
696.751	290.64209
697.188	269.60093
697.625	337.74411
698.061	271.63158
698.498	307.71772
698.934	282.65889
699.371	270.61747
699.807	258.59501
700.243	259.60694
700.679	295.6473
701.115	337.76276
701.551	265.60811
701.987	329.71216
702.422	264.61006
702.858	241.56145
703.294	254.56239
703.729	286.67845
704.164	251.58958
704.599	302.65051
705.035	244.53394
705.47	237.56342
705.904	243.55338
706.339	314.70564
706.774	265.60421
707.209	234.52847
707.643	290.67466
708.078	238.56678
708.512	212.52013
708.946	257.60108
709.38	274.63115
709.814	230.51626
710.248	244.58129
710.682	240.55813
711.116	209.48959
711.549	243.61234
711.983	248.55985
712.416	274.63014
712.85	236.57557
713.283	273.62797
713.716	261.63902
714.149	251.58475
714.582	246.54036
715.015	193.47693
715.448	247.60789
715.881	256.54788
716.313	245.56109
716.746	181.42152
717.178	147.35176
717.61	221.54972
718.043	238.58023
718.475	231.54853
718.907	267.65807
719.339	207.46186
719.77	183.42852
720.202	182.45445
720.634	194.46502
721.065	264.60909
721.497	212.51067
721.928	176.42717
722.359	163.3893
722.79	158.37541
723.221	215.53149
723.652	237.59829
724.083	206.45764
724.514	230.51816
724.945	164.38261
725.375	161.37065
725.806	208.51088
726.236	214.5384
726.666	202.47125
727.096	174.42263
727.526	163.40988
727.956	195.43725
728.386	186.45229
728.816	148.3717
729.246	169.40641
729.675	116.28524
730.105	215.51976
730.534	173.40114
730.964	199.49554
731.393	213.52036
731.822	175.44179
732.251	166.41705
732.68	188.43808
733.109	164.40044
733.537	145.3483
733.966	180.44146
734.395	156.35821
734.823	235.51956
735.251	171.40778
735.68	207.51002
736.108	195.48594
736.536	188.43808
736.964	173.39764
737.392	159.39451
737.82	196.46372
738.247	174.41263
738.675	201.47343
739.102	166.41029
739.53	155.39103
739.957	125.32029
740.384	186.4533
740.811	176.4409
741.238	147.35659
741.665	188.43013
742.092	226.5291
742.519	139.34199
742.945	134.32072
743.372	101.25051
743.798	182.46151
744.225	138.32688
744.651	185.45784
745.077	146.36166
745.503	168.40592
745.929	189.44725
746.355	193.47343
746.781	156.38346
747.207	56.13286
747.632	128.31079
748.058	164.4052
748.483	159.36356
748.908	124.30728
749.334	155.37769
749.759	141.33095
750.184	119.28313
750.609	149.36375
751.033	144.33912
751.458	219.48237
751.883	180.44048
752.307	149.3485
752.732	90.22522
753.156	129.31738
753.58	204.47667
754.005	173.43393
754.429	113.26575
754.853	120.29649
755.277	129.30456
755.7	151.37165
756.124	94.2337
756.548	99.23528
756.971	150.36366
757.394	131.33567
757.818	92.23702
758.241	132.33307
758.664	112.2823
759.087	67.1511
759.51	134.33181
759.933	120.28809
760.356	123.31407
760.778	59.14634
761.201	124.30097
761.623	135.32625
762.046	155.36523
762.468	174.41343
762.89	112.27632
763.312	123.2996
763.734	118.28361
764.156	108.26655
764.578	133.30522
765	153.37017
765.421	78.19864
765.843	90.23612
766.264	127.30599
766.686	144.35905
767.107	96.2331
767.528	53.13476
767.949	115.29157
768.37	71.17533
768.791	146.35077
769.212	55.1391
769.632	53.12479
770.053	106.27838
770.473	123.29815
770.894	114.28487
771.314	161.38099
771.734	115.26771
772.154	135.34422
772.575	143.32948
772.994	128.28968
773.414	127.30391
773.834	102.25479
774.254	120.29268
774.673	105.25567
775.093	75.1863
775.512	81.2001
775.931	94.23829
776.351	131.32314
776.77	59.14522
777.189	108.25661
777.607	74.18952
778.026	95.23658
778.445	55.13846
778.864	111.28373
779.282	65.15738
779.701	68.17213
780.119	75.18995
780.537	67.16788
780.955	118.29881
781.373	82.2032
781.791	78.17609
782.209	129.2958
782.627	84.22121
783.045	76.17563
783.462	80.2046
783.88	90.23251
784.297	90.22628
784.715	40.10345
785.132	82.19888
785.549	69.17314
785.966	96.24102
786.383	90.22131
786.8	96.223
787.217	78.18541
787.633	90.22433
788.05	169.3959
788.466	143.33421
788.883	99.25163
789.299	105.25212
789.715	95.23063
790.131	79.19666
790.547	68.17036
790.963	81.2012
791.379	94.2371
791.795	148.33412
792.21	136.31516
792.626	106.2507
793.041	80.19759
793.457	62.15387
793.872	84.19767
794.287	65.15566
794.702	113.27699
795.117	73.18159
795.532	51.12843
795.947	129.3081
796.362	112.26632
796.776	121.2819
797.191	91.22241
797.605	33.07821
798.02	76.18516
798.434	145.31938
798.848	79.19459
799.262	70.17391
799.676	108.26233
800.09	69.17014
800.504	87.21097
800.918	83.19238
801.331	122.31736
801.745	104.23804
802.158	92.2294
802.572	98.23706
802.985	152.36268
803.398	100.2377
803.811	131.33367
804.224	114.28198
804.637	66.15767
805.05	77.17876
805.462	116.28313
805.875	58.15067
806.288	74.1786
806.7	74.18605
807.112	62.14436
807.525	104.25545
807.937	49.12171
808.349	68.1706
808.761	99.24259
809.173	68.16511
809.584	107.26306
809.996	58.14247
810.408	37.09604
810.819	83.19505
811.231	69.17829
811.642	112.26509
812.053	171.39917
812.464	208.482
812.875	193.4827
813.286	140.35602
813.697	183.41945
814.108	87.21216
814.519	109.2416
814.929	130.32825
815.34	111.26744
815.75	70.17789
816.16	83.20654
816.571	87.22534
816.981	131.30616
817.391	142.33857
817.801	41.1024
818.211	115.27214
818.62	118.28167
819.03	92.22472
819.44	97.2522
819.849	120.29975
820.259	119.30203
820.668	57.14055
821.077	98.24214
821.486	130.30984
821.895	131.32028
822.304	74.19586
822.713	90.21212
823.122	79.19688
823.531	94.22197
823.939	81.19701
824.348	94.22764
824.756	103.2565
825.164	123.30664
825.573	79.19788
825.981	132.32375
826.389	134.33278
826.797	51.12816
827.205	51.11756
827.612	128.31254
828.02	82.19213
828.428	92.2333
828.835	85.22297
829.243	71.16925
829.65	70.17397
830.057	72.17469
830.464	87.21128
830.871	154.36295
831.278	82.19776
831.685	86.19145
832.092	115.27918
832.499	95.20688
832.905	94.23685
833.312	93.21128
833.718	113.27925
834.124	88.20045
834.531	91.22843
834.937	141.35711
835.343	125.29843
835.749	109.25275
836.155	103.26789
836.561	75.18419
836.966	101.24547
837.372	122.30739
837.777	64.15947
838.183	84.1863
838.588	85.21029
838.993	113.27278
839.399	78.19024
839.804	60.14634
840.209	79.20051
840.613	92.20371
841.018	117.29348
841.423	106.26985
841.828	85.21413
842.232	121.29671
842.637	97.2275
843.041	62.1589
843.445	110.27358
843.849	80.19745
844.253	83.19664
844.657	71.17848
845.061	132.29556
845.465	69.1665
845.869	90.20815
846.272	43.10509
846.676	103.24732
847.079	85.21521
847.483	107.26481
847.886	160.38236
848.289	50.13362
848.692	69.17451
849.095	94.22447
849.498	140.34996
849.901	107.24338
850.304	88.20934
850.707	95.24078
851.109	146.36391
851.512	78.19109
851.914	32.08103
852.316	108.27085
852.718	31.08041
853.121	72.17607
853.523	70.16338
853.925	76.19763
854.326	94.23353
854.728	57.14662
855.13	77.19793
855.531	27.06493
855.933	104.24768
856.334	59.14709
856.736	39.08778
857.137	64.14873
857.538	70.17562
857.939	26.06462
858.34	95.23002
858.741	65.1697
859.142	52.12512
859.542	68.17907
859.943	48.11951
860.343	69.17052
860.744	120.28951
861.144	87.21113
861.544	12.02909
861.945	67.17048
862.345	80.1949
862.745	81.20047
863.145	68.16232
863.544	80.20136
863.944	100.2344
864.344	79.19552
864.743	102.2511
865.143	124.31478
865.542	88.20296
865.941	52.12886
866.34	120.28414
866.74	74.19802
867.139	75.17899
867.537	102.25783
867.936	79.18941
868.335	123.3093
868.734	52.13299
869.132	76.17598
869.531	110.26348
869.929	78.1771
870.327	90.21442
870.726	108.26685
871.124	94.21818
871.522	51.13004
871.92	81.19892
872.318	103.24967
872.715	110.26969
873.113	103.24883
873.511	83.20579
873.908	67.16879
874.306	85.21029
874.703	70.17473
875.1	123.31097
875.497	112.26571
875.894	26.06405
876.291	95.23149
876.688	92.23578
877.085	112.26591
877.482	62.15504
877.878	81.19405
878.275	73.18489
878.671	125.27452
879.068	109.26053
879.464	97.23265
879.86	74.17441
880.256	108.264
880.652	85.21505
881.048	67.1657
881.444	119.27986
881.84	92.23231
882.236	97.24208
882.631	110.26729
883.027	102.24487
883.422	96.2437
883.817	81.20259
884.213	88.2245
884.608	51.12516
885.003	68.16356
885.398	93.23118
885.793	76.19005
886.188	55.13672
886.582	150.37835
886.977	141.32914
887.371	101.25334
887.766	25.06251
888.16	100.24753
888.554	143.34793
888.949	124.3075
889.343	124.29905
889.737	32.08557
890.131	80.19977
890.525	87.22121
890.918	82.20535
891.312	101.23957
891.706	95.24751
892.099	104.26232
892.492	73.15694
892.886	68.16598
893.279	103.26013
893.672	37.09448
894.065	99.24591
894.458	88.21998
894.851	140.33763
895.244	62.15812
895.637	84.2012
896.029	70.17067
896.422	85.2065
896.814	81.20039
897.206	58.13802
897.599	132.32183
897.991	50.121
898.383	84.19736
898.775	89.19949
899.167	64.14896
899.559	113.28304
899.951	111.25881
900.342	101.25471
900.734	61.15114
901.125	109.2833
901.517	89.21703
901.908	130.30722
902.299	52.12716
902.69	90.21088
903.082	83.19991
903.473	44.10555
903.863	122.3075
904.254	65.15054
904.645	115.28284
905.036	59.14269
905.426	146.32812
905.817	80.19534
906.207	28.06704
906.597	70.16318
906.987	114.29237
907.378	112.28028
907.768	43.11387
908.158	102.24646
908.547	56.14457
908.937	80.20431
909.327	96.23126
909.717	142.35483
910.106	87.20763
910.495	121.29836
910.885	82.20661
911.274	56.13989
911.663	76.19211
912.052	108.26381
912.441	74.18746
912.83	63.14435
913.219	67.17492
913.608	82.19978
913.997	38.09551
914.385	100.23678
914.774	79.19142
915.162	54.12865
915.55	85.20441
915.939	59.14874
916.327	118.29102
916.715	53.13505
917.103	126.30594
917.491	101.24767
917.878	92.22456
918.266	43.11169
918.654	49.12525
919.041	27.07078
919.429	55.12975
919.816	118.29561
920.203	112.26857
920.591	75.18521
920.978	105.25461
921.365	84.21919
921.752	85.20138
922.139	96.20653
922.525	94.22395
922.912	96.23222
923.299	95.23425
923.685	68.17689
924.072	145.32821
924.458	54.13372
924.844	85.20905
925.231	78.18061
925.617	29.07405
926.003	71.18085
926.389	67.16855
926.774	103.25864
927.16	118.28952
927.546	44.11245
927.931	71.17655
928.317	126.28596
928.702	115.26877
929.088	60.14169
929.473	80.20251
929.858	61.1472
930.243	64.15324
930.628	68.16493
931.013	80.19723
931.398	98.22332
931.783	135.35039
932.167	73.17775
932.552	95.23615
932.937	111.2725
933.321	56.14039
933.705	93.23269
934.09	139.34577
934.474	87.20524
934.858	89.22933
935.242	69.15936
935.626	70.17858
936.009	59.15671
936.393	85.21498
936.777	48.12297
937.16	94.24276
937.544	108.25167
937.927	58.14698
938.311	172.4104
938.694	115.30084
939.077	80.19045
939.46	150.36161
939.843	122.25059
940.226	80.20417
940.609	70.16009
940.991	81.20508
941.374	84.20404
941.757	103.25173
942.139	53.11899
942.522	91.21343
942.904	87.20771
943.286	101.25435
943.668	66.17051
944.05	77.18875
944.432	54.13318
944.814	109.2656
945.196	50.12186
945.578	69.16341
945.959	77.17954
946.341	120.29082
946.722	92.21421
947.104	98.23214
947.485	87.20101
947.866	84.21036
948.247	60.15113
948.628	86.20842
949.009	48.12297
949.39	123.30218
949.771	82.18957
950.152	48.11786
950.532	16.03961
950.913	85.20371
951.293	50.13507
951.674	99.23727
952.054	98.24072
952.434	64.15848
952.814	117.27484
953.194	86.22371
953.574	119.28943
953.954	92.21675
954.334	69.17139
954.714	46.1122
955.093	105.25557
955.473	44.11015
955.853	64.16528
956.232	76.20744
956.611	103.24459
956.99	71.17777
957.37	59.15012
957.749	96.22705
958.128	55.13846
958.506	59.15282
958.885	54.13621
959.264	58.14194
959.643	133.29762
960.021	83.20444
960.4	91.20456
960.778	111.27038
961.156	78.19456
961.535	87.20133
961.913	104.24082
962.291	67.17138
962.669	84.2115
963.047	87.22058
963.424	70.17802
963.802	65.15939
964.18	138.34372
964.557	85.19444
964.935	125.29191
965.312	62.16112
965.69	122.30155
966.067	93.22467
966.444	98.23938
966.821	89.22789
967.198	121.28966
967.575	98.23884
967.952	123.28577
968.329	90.21738
968.705	109.23081
969.082	70.1789
969.458	40.09614
969.835	71.17217
970.211	65.16638
970.587	75.18589
970.963	63.16126
971.339	55.14349
971.715	89.22067
972.091	81.19833
972.467	96.23746
972.843	48.11917
973.219	117.27741
973.594	74.19276
973.97	80.18935
974.345	82.19506
974.721	99.23754
975.096	51.12339
975.471	92.21649
975.846	56.13439
976.221	41.10429
976.596	30.07219
976.971	92.22539
977.346	97.22376
977.72	77.19523
978.095	55.14202
978.469	114.26878
978.844	125.31004
979.218	73.17422
979.593	84.19997
979.967	76.18426
980.341	81.18536
980.715	93.23252
981.089	72.17953
981.463	101.22955
981.837	76.18481
982.21	109.25074
982.584	71.17081
982.957	66.16433
983.331	83.19497
983.704	65.15928
984.078	78.19124
984.451	137.33682
984.824	53.129
985.197	79.19085
985.57	99.24609
985.943	107.26151
986.316	117.28393
986.688	98.2342
987.061	79.18413
987.434	73.18947
987.806	100.24026
988.179	59.13897
988.551	96.24154
988.923	66.16206
989.295	100.24762
989.667	36.08623
990.039	72.17718
990.411	91.20774
990.783	111.25248
991.155	56.13439
991.527	116.28219
991.898	61.15169
992.27	73.17981
992.641	142.35033
993.012	144.33264
993.384	72.17101
993.755	81.20537
994.126	53.12741
994.497	42.10324
994.868	77.17593
995.239	59.14275
995.61	80.2002
995.98	55.13347
996.351	94.23089
996.722	54.12514
997.092	55.13011
997.462	-2.00472
997.833	97.22786
998.203	141.33599
998.573	50.12449
998.943	83.19337
999.313	55.13166
999.683	68.16263
1000.053	70.16042
1000.423	115.27603
1000.792	72.18588
1001.162	88.21503
1001.531	102.24906
1001.901	73.1812
1002.27	101.2234
1002.639	108.27309
1003.009	88.20772
1003.378	69.17581
1003.747	111.25912
1004.116	107.25321
1004.485	82.19476
1004.853	83.20902
1005.222	66.16594
1005.591	102.23974
1005.959	34.07685
1006.328	50.11251
1006.696	71.17055
1007.064	84.20998
1007.433	85.21106
1007.801	132.31906
1008.169	96.24041
1008.537	106.23196
1008.905	59.13719
1009.273	141.34242
1009.64	54.1287
1010.008	92.2175
1010.375	120.28754
1010.743	145.32848
1011.11	72.16963
1011.478	64.15796
1011.845	109.25335
1012.212	119.26552
1012.579	70.17118
1012.946	119.27943
1013.313	123.28859
1013.68	97.2159
1014.047	76.18016
1014.414	34.08054
1014.78	55.13652
1015.147	121.28866
1015.513	68.16325
1015.88	107.27081
1016.246	113.27566
1016.612	118.26639
1016.978	95.2308
1017.344	83.20383
1017.71	114.27462
1018.076	146.3378
1018.442	104.26495
1018.808	84.20861
1019.174	68.16999
1019.539	179.40138
1019.905	58.13654
1020.27	67.16479
1020.636	101.23975
1021.001	108.25563
1021.366	38.09144
1021.731	89.22725
1022.096	61.15351
1022.461	96.22511
1022.826	85.2006
1023.191	92.23957
1023.556	60.14031
1023.92	115.27928
1024.285	97.2346
1024.649	105.25461
1025.014	81.19944
1025.378	59.14805
1025.742	101.24841
1026.107	103.23039
1026.471	135.30981
1026.835	65.16063
1027.199	89.21257
1027.562	102.23459
1027.926	94.2279
1028.29	61.154
1028.654	68.15583
1029.017	112.27205
1029.381	72.17121
1029.744	85.21536
1030.107	101.23651
1030.471	103.24403
1030.834	84.18971
1031.197	107.25487
1031.56	61.14357
1031.923	104.26625
1032.286	145.33409
1032.648	78.18548
1033.011	51.11699
1033.374	120.27809
1033.736	53.13922
1034.099	71.1723
1034.461	16.04065
1034.823	56.13923
1035.185	83.2076
1035.548	73.17682
1035.91	87.20684
1036.272	131.29314
1036.634	118.2849
1036.995	75.17535
1037.357	42.10229
1037.719	73.17669
1038.08	99.23274
1038.442	55.13036
1038.803	75.17913
1039.165	65.16351
1039.526	80.19213
1039.887	77.1832
1040.248	36.08888
1040.609	169.40826
1040.97	55.13422
1041.331	81.20384
1041.692	19.0446
1042.053	103.23191
1042.413	76.17612
1042.774	108.25967
1043.134	107.25184
1043.495	88.21958
1043.855	110.26368
1044.215	126.30823
1044.576	64.15254
1044.936	118.26672
1045.296	130.31955
1045.656	98.23822
1046.016	81.19428
1046.375	62.14998
1046.735	50.11329
1047.095	85.19749
1047.454	111.23196
1047.814	97.23097
1048.173	126.2965
1048.533	92.20888
1048.892	8.01934
1049.251	93.23151
1049.61	55.13522
1049.969	76.17815
1050.328	72.15529
1050.687	84.20297
1051.046	111.26704
1051.405	113.27771
1051.763	51.11718
1052.122	63.15666
1052.48	44.10796
1052.839	70.16395
1053.197	84.19628
1053.555	133.29799
1053.914	106.25641
1054.272	114.27212
1054.63	36.0882
1054.988	85.20045
1055.345	88.18785
1055.703	135.31947
1056.061	118.29976
1056.419	82.21096
1056.776	111.26592
1057.134	104.23804
1057.491	102.25285
1057.848	83.20527
1058.206	105.24415
1058.563	50.11016
1058.92	116.26369
1059.277	126.30628
1059.634	103.23968
1059.991	115.27193
1060.348	81.18178
1060.704	56.13321
1061.061	127.2904
1061.418	73.17615
1061.774	67.16479
1062.131	53.13997
1062.487	62.14453
1062.843	72.17868
1063.199	47.11687
1063.555	52.12036
1063.911	87.21815
1064.267	132.27015
1064.623	47.11414
1064.979	128.2985
1065.335	119.28052
1065.691	57.13635
1066.046	68.14887
1066.402	50.11352
1066.757	71.17842
1067.112	94.22867
1067.468	33.07812
1067.823	93.22161
1068.178	105.25117
1068.533	85.20457
1068.888	115.27119
1069.243	61.15014
1069.598	113.27113
1069.952	47.10583
1070.307	52.12858
1070.662	59.13973
1071.016	44.09864
1071.371	102.22943
1071.725	94.22283
1072.079	68.16288
1072.434	71.17172
1072.788	69.1636
1073.142	104.25309
1073.496	61.1443
1073.85	83.19109
1074.203	93.22365
1074.557	75.19847
1074.911	106.25012
1075.265	72.16652
1075.618	134.32182
1075.971	68.16108
1076.325	66.16713
1076.678	38.08705
1077.031	74.16652
1077.385	94.20501
1077.738	83.18596
1078.091	57.12934
1078.444	95.21845
1078.796	96.23336
1079.149	92.2269
1079.502	46.10867
1079.855	95.21941
1080.207	60.14743
1080.56	85.21818
1080.912	93.22441
1081.264	67.1607
1081.617	38.09275
1081.969	40.101
1082.321	74.17975
1082.673	109.24562
1083.025	56.1326
1083.377	-161.36102
1083.728	117.26914
1084.08	60.14939
1084.432	90.21524
1084.783	94.21818
1085.135	69.17221
1085.486	39.08936
1085.838	43.10595
1086.189	49.11887
1086.54	105.2479
1086.891	80.20107
1087.242	84.20304
1087.593	123.29512
1087.944	73.1643
1088.295	106.23803
1088.646	110.26338
1088.996	51.12274
1089.347	69.16858
1089.698	44.10402
1090.048	101.2598
1090.398	109.24964
1090.749	127.29914
1091.099	83.20729
1091.449	52.12938
1091.799	106.26248
1092.149	18.04412
1092.499	92.22246
1092.849	79.19959
1093.199	119.29429
1093.548	69.16505
1093.898	70.17435
1094.248	64.16391
1094.597	35.0895
1094.947	73.19383
1095.296	93.22763
1095.645	54.14023
1095.994	107.25399
1096.343	64.16051
1096.692	41.10777
1097.041	39.10568
1097.39	86.21413
1097.739	56.14528
1098.088	103.27329
1098.437	43.11299
1098.785	91.24347
1099.134	81.21377
1099.482	76.20797
1099.83	80.20896
1100.179	40.10441
1100.527	83.21912
1100.875	47.12421
1101.223	84.22158
1101.571	97.26582
1101.919	22.0577
1102.267	63.17686
1102.615	2.00643
1102.962	24.07715
1103.31	12.03853
1103.658	32.10281
