Data from N2 R15 sample 1_Subt2__1__15-33-07-495.txt Node

Date: Tue Sep 02 15:33:07 PDT 2025
User: uwsun
Spectrometer: HDX01956
Trigger mode: 0
Integration Time (sec): 5.000000E-1
Scans to average: 1
Nonlinearity correction enabled: true
Boxcar width: 0
Storing dark spectrum: false
XAxis mode: Wavelengths
Number of Pixels in Spectrum: 2068
>>>>>Begin Spectral Data<<<<<
194.03	236.6381
194.578	220.67657
195.127	221.66904
195.676	210.63873
196.225	311.78168
196.773	309.80492
197.321	453.1214
197.87	610.33661
198.418	504.1124
198.966	544.19882
199.513	499.05143
200.061	512.09611
200.609	605.35318
201.156	504.91529
201.704	535.13236
202.251	520.17119
202.798	564.23206
203.345	581.20252
203.892	543.15032
204.438	633.24306
204.985	558.08909
205.532	514.14916
206.078	598.21649
206.624	577.1745
207.17	602.14955
207.716	560.12923
208.262	596.94843
208.808	524.0754
209.354	559.13005
209.899	581.23524
210.445	597.223
210.99	569.13347
211.535	699.3245
212.08	611.16705
212.625	605.25897
213.17	610.28657
213.715	523.95826
214.259	616.17861
214.804	642.3091
215.348	593.11783
215.892	646.26834
216.436	622.18609
216.98	665.19009
217.524	591.15389
218.068	606.27252
218.612	631.31956
219.155	547.07592
219.698	586.16009
220.242	522.10937
220.785	568.1076
221.328	543.14531
221.871	598.27667
222.414	523.11078
222.956	473.97128
223.499	500.95147
224.041	539.06115
224.583	585.04878
225.126	539.99356
225.668	506.044
226.21	521.11277
226.751	464.85806
227.293	529.01845
227.835	523.07938
228.376	565.09364
228.918	560.19801
229.459	508.07253
230	520.04507
230.541	556.07182
231.082	571.15699
231.622	508.9921
232.163	516.05561
232.704	532.11249
233.244	544.13662
233.784	545.13091
234.324	514.93678
234.864	491.94094
235.404	536.07481
235.944	547.08957
236.484	579.21334
237.023	523.03733
237.563	497.96808
238.102	539.06713
238.641	545.16311
239.18	467.92435
239.719	576.2105
240.258	578.07269
240.797	526.05423
241.335	575.17574
241.874	604.92712
242.412	571.13852
242.95	500.00202
243.488	554.04851
244.026	547.04408
244.564	613.01529
245.102	512.95868
245.64	567.14101
246.177	549.018
246.715	577.15157
247.252	580.09943
247.789	596.90456
248.326	598.17394
248.863	542.97782
249.4	595.10678
249.936	576.95973
250.473	566.08591
251.009	517.98359
251.546	565.01753
252.082	573.02458
252.618	560.0196
253.154	601.18012
253.69	566.04411
254.226	550.08615
254.761	630.13921
255.297	585.0364
255.832	499.98769
256.367	572.10695
256.903	612.08013
257.438	634.20785
257.972	578.04712
258.507	465.88895
259.042	558.98766
259.576	540.94186
260.111	644.1996
260.645	616.07022
261.179	580.10104
261.713	522.95426
262.247	558.05507
262.781	532.90442
263.315	532.0771
263.849	601.22788
264.382	624.15709
264.915	608.14644
265.449	559.1068
265.982	656.19056
266.515	583.16034
267.048	637.06097
267.58	644.12135
268.113	584.00806
268.646	571.15224
269.178	558.00515
269.71	591.03564
270.243	601.10632
270.775	636.30977
271.307	578.13888
271.838	676.28489
272.37	630.24909
272.902	705.256
273.433	604.05043
273.965	577.14304
274.496	585.19027
275.027	625.24927
275.558	650.25699
276.089	554.10226
276.62	591.23143
277.15	592.18949
277.681	626.07615
278.211	662.29797
278.741	699.18371
279.272	583.06237
279.802	623.2539
280.332	639.19115
280.861	646.23552
281.391	577.04291
281.921	591.14953
282.45	668.33073
282.98	628.32284
283.509	676.18031
284.038	676.1977
284.567	645.19284
285.096	676.28427
285.625	630.12066
286.153	578.07856
286.682	681.20314
287.21	612.16699
287.739	618.15222
288.267	622.18782
288.795	654.37708
289.323	655.18482
289.851	716.28783
290.378	640.11378
290.906	590.12605
291.433	682.3278
291.961	677.17056
292.488	672.30706
293.015	654.18692
293.542	639.26785
294.069	684.29697
294.596	666.28799
295.122	734.32838
295.649	610.04074
296.175	674.26616
296.702	734.35812
297.228	737.36674
297.754	672.14372
298.28	704.19897
298.806	731.32395
299.332	657.09197
299.857	704.18672
300.383	769.47795
300.908	652.20311
301.433	660.22216
301.958	713.24016
302.483	616.18658
303.008	734.37165
303.533	702.40829
304.058	758.32871
304.582	740.2869
305.107	643.29065
305.631	751.26239
306.155	711.22037
306.679	732.25147
307.203	777.30337
307.727	740.29097
308.251	765.39411
308.775	719.24336
309.298	738.28341
309.822	763.41997
310.345	811.37318
310.868	767.32307
311.391	836.47729
311.914	754.37645
312.437	856.36493
312.96	803.33537
313.482	809.35129
314.005	762.38477
314.527	787.49663
315.049	848.52581
315.571	814.22696
316.093	869.49473
316.615	879.44853
317.137	857.24386
317.659	893.49123
318.18	856.42652
318.702	912.4091
319.223	859.14115
319.744	868.2829
320.265	905.45363
320.786	890.4655
321.307	948.5553
321.828	945.36463
322.348	983.4701
322.869	950.42179
323.389	753.73743
323.909	984.41202
324.43	1021.56587
324.95	964.3642
325.47	963.49043
325.989	994.43268
326.509	995.28449
327.029	1048.3696
327.548	1039.34815
328.067	1032.47579
328.587	1025.5554
329.106	1042.36262
329.625	1110.79298
330.144	1052.38229
330.662	1076.3961
331.181	1119.45584
331.7	1167.48717
332.218	1189.31927
332.736	1143.45028
333.255	1197.4601
333.773	1183.48194
334.291	1213.64885
334.808	1214.3407
335.326	1277.40326
335.844	1221.39183
336.361	1256.61452
336.879	1171.34813
337.396	1268.48158
337.913	1327.38963
338.43	1382.35095
338.947	1307.44124
339.464	1379.20052
339.981	1318.39834
340.497	1303.50575
341.014	1317.45134
341.53	1373.26557
342.046	1320.43846
342.562	1410.54446
343.078	1467.3824
343.594	1408.38984
344.11	1476.39174
344.626	1442.51335
345.141	1543.26162
345.657	1564.27265
346.172	1506.38143
346.687	1487.22594
347.202	1524.15931
347.717	1571.32686
348.232	1611.46212
348.747	1552.18888
349.261	1558.99791
349.776	1621.23094
350.29	1585.30371
350.805	1695.39031
351.319	1663.17795
351.833	1592.04506
352.347	1772.16607
352.861	1719.1151
353.374	1759.11509
353.888	1725.21924
354.401	1784.05036
354.915	1733.92186
355.428	1782.22599
355.941	1801.01021
356.454	1800.95903
356.967	1840.06594
357.48	1790.98052
357.993	1850.15739
358.505	1862.09225
359.018	1938.08587
359.53	1907.99812
360.042	2029.76298
360.554	1942.0194
361.066	1957.99229
361.578	2018.66307
362.09	1975.91304
362.602	1941.66394
363.113	2025.7694
363.625	2024.65882
364.136	2107.57557
364.647	1948.64675
365.158	2142.66059
365.669	2069.75738
366.18	2131.67643
366.691	2223.44027
367.201	2082.68358
367.712	2152.47863
368.222	2226.44454
368.733	2218.24898
369.243	2201.27276
369.753	2318.35021
370.263	2318.41211
370.773	2337.47173
371.282	2387.26675
371.792	2316.05718
372.301	2502.12119
372.811	2496.34878
373.32	2451.69834
373.829	2614.79312
374.338	2644.58654
374.847	2778.50506
375.356	2802.48918
375.865	2873.11505
376.373	3081.0605
376.882	3148.26053
377.39	3191.05646
377.898	3159.94465
378.407	3377.6793
378.915	3572.57112
379.423	3680.56199
379.93	3803.52063
380.438	3804.52255
380.946	4068.6105
381.453	4163.71881
381.96	4445.12067
382.468	4566.74519
382.975	4984.3648
383.482	5287.68826
383.989	5279.26219
384.495	5426.89755
385.002	5570.35226
385.509	6065.34708
386.015	6287.76457
386.521	6507.96142
387.028	6866.1921
387.534	6955.90065
388.04	7445.86092
388.546	7263.17852
389.051	7556.93027
389.557	8291.64923
390.063	9561.24283
390.568	9572.718
391.073	9734.27857
391.578	10142.60066
392.084	10357.71807
392.589	10187.87408
393.093	10877.06416
393.598	12157.57626
394.103	13263.07387
394.607	14600.94365
395.112	15961.54787
395.616	16825.47802
396.12	17764.0054
396.624	19593.75998
397.128	21690.92991
397.632	24539.81523
398.136	26381.31794
398.639	26231.76707
399.143	28271.78811
399.646	27808.80718
400.15	24862.43897
400.653	20124.16724
401.156	13866.23708
401.659	5169.95759
402.162	1054.15589
402.664	0
403.167	0
403.67	0
404.172	0
404.674	0
405.176	0
405.678	0
406.18	0
406.682	0
407.184	0
407.686	0
408.187	0
408.688	0
409.19	0
409.691	0
410.192	0
410.693	0
411.194	435.30976
411.694	4082.94878
412.195	8864.71461
412.696	12089.80453
413.196	12760.96929
413.696	12863.67595
414.196	13703.56671
414.696	17261.84252
415.196	21764.24417
415.696	29583.19008
416.196	36460.31858
416.695	40057.39798
417.195	32500.60585
417.694	30644.30378
418.194	29155.31381
418.693	26998.74324
419.192	26199.18415
419.691	25495.88304
420.19	25120.65704
420.688	24597.72157
421.187	23965.8896
421.685	22545.5472
422.184	20899.38244
422.682	18270.27155
423.18	14917.19773
423.678	13149.64477
424.176	12179.18351
424.674	11486.96401
425.172	11007.27676
425.669	10697.95679
426.167	10033.79275
426.664	9047.57751
427.161	8219.56191
427.659	7556.85998
428.156	6871.34471
428.652	6665.64007
429.149	6312.93782
429.646	6074.94736
430.143	5750.62111
430.639	5366.45975
431.135	5081.48873
431.632	4860.22684
432.128	4541.72996
432.624	4167.53143
433.12	3925.54618
433.616	3835.52881
434.111	3638.54151
434.607	3446.63474
435.103	3512.59338
435.598	3401.64455
436.093	3290.91479
436.588	3199.99067
437.083	3024.18038
437.578	2838.40262
438.073	2623.69283
438.568	2643.84619
439.062	2524.60844
439.557	2385.02463
440.051	2330.95972
440.546	2222.04739
441.04	2194.24269
441.534	2137.49058
442.028	2185.38291
442.522	2066.42932
443.015	2039.24584
443.509	1952.60718
444.002	1914.62304
444.496	1864.38581
444.989	1803.70215
445.482	1856.74567
445.975	1829.48913
446.468	1864.39974
446.961	1740.44728
447.454	1705.60891
447.947	1632.70684
448.439	1737.83053
448.931	1624.62754
449.424	1595.9744
449.916	1595.87742
450.408	1603.68233
450.9	1468.86762
451.392	1524.99689
451.884	1477.81142
452.375	1334.93891
452.867	1501.82989
453.358	1394.78217
453.849	1363.68052
454.341	1377.80845
454.832	1363.72419
455.323	1318.98174
455.814	1267.88079
456.304	1333.91087
456.795	1300.89902
457.285	1327.89742
457.776	1351.97706
458.266	1180.96788
458.756	1223.04551
459.247	1144.97274
459.737	1132.97884
460.226	1069.86344
460.716	1080.99666
461.206	1098.03751
461.695	1111.15714
462.185	1056.00944
462.674	1124.01718
463.163	1069.92991
463.653	1021.82642
464.142	920.99531
464.63	967.08185
465.119	992.98933
465.608	890.93008
466.096	1027.95084
466.585	1027.06939
467.073	902.05466
467.561	872.04349
468.05	853.9841
468.538	874.10156
469.026	844.03619
469.513	863.86053
470.001	872.98027
470.489	798.98863
470.976	785.95975
471.463	808.11212
471.951	743.06507
472.438	647.86684
472.925	705.92104
473.412	730.05062
473.899	685.9106
474.385	742.07129
474.872	668.91318
475.359	648.96018
475.845	658.77667
476.331	626.81949
476.817	627.96106
477.303	623.89586
477.789	547.8512
478.275	544.88049
478.761	580.9071
479.247	598.85259
479.732	486.81235
480.218	538.95225
480.703	480.81685
481.188	544.75355
481.673	494.75989
482.158	427.60105
482.643	520.92708
483.128	405.63966
483.612	461.74879
484.097	526.90147
484.581	494.80266
485.066	432.74944
485.55	409.62886
486.034	430.64967
486.518	404.67893
487.002	411.72719
487.486	351.63429
487.969	382.68627
488.453	363.69091
488.936	353.58623
489.42	351.57583
489.903	366.70221
490.386	-68.09108
490.869	386.62391
491.352	375.70368
491.835	355.54708
492.318	294.507
492.8	332.5154
493.283	251.50356
493.765	237.46118
494.247	309.56581
494.73	325.55135
495.212	283.5444
495.694	248.45605
496.175	217.40678
496.657	267.50397
497.139	341.44826
497.62	180.34267
498.102	225.44952
498.583	217.4432
499.064	188.33633
499.545	273.49484
500.026	205.36987
500.507	259.48192
500.988	217.44119
501.469	148.3066
501.949	190.38849
502.43	198.38208
502.91	237.38964
503.39	224.463
503.87	133.25918
504.35	217.42206
504.83	154.27763
505.31	117.23777
505.79	152.30191
506.269	190.36805
506.749	125.23802
507.228	182.35238
507.707	165.30242
508.187	159.31958
508.666	109.22596
509.145	112.22018
509.623	137.27015
510.102	147.30023
510.581	152.31094
511.059	165.34663
511.538	124.27467
512.016	179.35878
512.494	130.26883
512.972	164.32955
513.45	59.11634
513.928	133.27312
514.406	84.1716
514.884	131.28734
515.361	156.31565
515.839	128.24688
516.316	96.19807
516.793	114.24884
517.27	148.30687
517.747	131.2877
518.224	145.28579
518.701	115.21887
519.178	102.21669
519.654	161.32733
520.131	111.23648
520.607	139.29691
521.083	87.17147
521.56	84.17183
522.036	157.29314
522.512	170.35974
522.987	58.1194
523.463	104.21352
523.939	133.28175
524.414	118.2358
524.89	138.28166
525.365	142.2752
525.84	87.17825
526.315	146.30164
526.79	135.26157
527.265	148.2893
527.74	47.1007
528.215	163.32913
528.689	89.17096
529.164	112.21073
529.638	122.27362
530.112	117.2382
530.587	118.2159
531.061	54.11422
531.534	118.24948
532.008	108.22554
532.482	168.33167
532.956	45.10111
533.429	176.36689
533.903	131.25139
534.376	125.2393
534.849	188.37342
535.322	152.31023
535.795	149.31606
536.268	152.31587
536.741	166.34496
537.213	179.35612
537.686	80.17099
538.158	169.32337
538.631	218.45504
539.103	116.22535
539.575	252.44199
540.047	216.4038
540.519	221.4526
540.991	247.51638
541.463	256.52653
541.934	238.46192
542.406	270.54205
542.877	245.46767
543.348	284.5799
543.82	239.50165
544.291	302.59285
544.762	260.51981
545.233	330.69004
545.703	304.5568
546.174	380.72415
546.645	349.68302
547.115	377.74446
547.585	415.77261
548.056	400.77857
548.526	474.88138
548.996	499.95304
549.466	566.08434
549.935	568.03262
550.405	601.99235
550.875	564.02846
551.344	666.20629
551.814	738.24487
552.283	795.23883
552.752	777.30266
553.221	781.19855
553.69	929.41156
554.159	975.65088
554.628	1043.53129
555.096	1145.9367
555.565	1204.69469
556.033	1235.87949
556.502	1253.97479
556.97	1381.86395
557.438	1477.13813
557.906	1574.23641
558.374	1638.17463
558.842	1706.35624
559.31	1784.19167
559.777	1936.52879
560.245	2139.53935
560.712	2301.52036
561.18	2518.31807
561.647	2720.37464
562.114	2816.44851
562.581	3110.85255
563.048	3353.42511
563.514	3469.71429
563.981	3758.2237
564.448	3913.02772
564.914	4437.98104
565.381	4645.73459
565.847	4936.74251
566.313	5363.4803
566.779	5627.17916
567.245	6068.23196
567.711	6301.30404
568.176	6747.96585
568.642	7134.54658
569.108	7619.66702
569.573	8210.0939
570.038	8459.31323
570.504	8986.34078
570.969	9582.6923
571.434	10096.54033
571.899	10594.09429
572.363	11155.78528
572.828	11738.76873
573.293	12138.12964
573.757	12699.79831
574.222	13119.2353
574.686	13816.82762
575.15	14042.88532
575.614	14671.15956
576.078	14912.12178
576.542	15131.78691
577.006	15561.481
577.469	16055.85496
577.933	16044.99009
578.396	16199.36069
578.86	16266.30958
579.323	16218.61406
579.786	15994.01905
580.249	16237.76474
580.712	16035.93395
581.175	15921.54471
581.637	15703.42332
582.1	15487.00675
582.563	15269.07788
583.025	14968.02779
583.487	14711.55801
583.95	14235.07929
584.412	14142.44835
584.874	13650.21503
585.336	13314.89146
585.797	12903.87956
586.259	12725.59904
586.721	12210.34391
587.182	11979.90785
587.643	11520.60421
588.105	11225.85048
588.566	10979.34579
589.027	10641.22409
589.488	10294.08152
589.949	10106.25128
590.41	9892.18903
590.87	9635.9311
591.331	9327.17112
591.791	9112.6083
592.252	8729.83449
592.712	8679.80129
593.172	8273.09366
593.632	8238.01445
594.092	8065.81408
594.552	7861.51595
595.011	7551.39143
595.471	7543.32377
595.931	7214.1133
596.39	6926.30287
596.849	6943.18896
597.308	7010.94997
597.768	6635.61554
598.227	6533.33856
598.685	6337.1337
599.144	6199.22222
599.603	6178.30346
600.062	5936.74316
600.52	5899.03659
600.978	5859.4019
601.437	5705.27029
601.895	5510.93353
602.353	5506.18217
602.811	5329.24965
603.269	5313.69488
603.727	5154.7757
604.184	5000.4763
604.642	4982.0152
605.099	4819.76743
605.557	4806.0921
606.014	4661.41357
606.471	4523.35939
606.928	4579.40661
607.385	4420.21786
607.842	4458.86465
608.299	4381.03997
608.755	4305.27002
609.212	4193.83949
609.668	4051.87049
610.125	4201.3642
610.581	4033.4069
611.037	3927.23057
611.493	3882.44788
611.949	3760.57182
612.405	3718.62111
612.861	3620.56151
613.316	3457.66214
613.772	3497.44319
614.227	3395.62179
614.683	3469.11891
615.138	3281.61636
615.593	3312.5779
616.048	3239.54768
616.503	3127.97632
616.958	3160.06015
617.412	3054.7613
617.867	3035.39899
618.321	3001.14362
618.776	2954.46556
619.23	2867.76723
619.684	2847.60211
620.138	2843.75525
620.592	2681.96831
621.046	2725.81836
621.5	2555.96594
621.954	2709.63482
622.407	2494.5754
622.861	2552.98459
623.314	2440.6783
623.768	2446.77657
624.221	2342.08923
624.674	2307.70847
625.127	2296.78118
625.58	2277.69085
626.033	2258.55838
626.485	2170.84349
626.938	2191.84831
627.39	2128.7282
627.843	2040.67537
628.295	2000.65788
628.747	2076.81199
629.199	2061.62819
629.651	1887.54113
630.103	1953.61339
630.555	1913.31936
631.006	1866.66997
631.458	1867.69363
631.909	1812.58338
632.361	1758.59369
632.812	1723.52986
633.263	1722.30933
633.714	1746.31015
634.165	1705.71433
634.616	1629.58046
635.067	1679.40044
635.518	1643.61612
635.968	1615.05703
636.419	1594.27791
636.869	1518.50079
637.319	1505.39309
637.769	1448.24119
638.219	1488.49809
638.669	1440.43395
639.119	1418.49184
639.569	1459.49735
640.019	1419.33336
640.468	1355.16865
640.918	1386.42777
641.367	1342.17133
641.816	1334.15709
642.265	1348.26655
642.714	1366.28832
643.163	1306.20739
643.612	1277.28432
644.061	1237.91707
644.51	1247.11565
644.958	1254.03258
645.406	1281.29151
645.855	1246.32379
646.303	1308.26907
646.751	1233.10075
647.199	1225.09597
647.647	1160.04616
648.095	1221.11134
648.543	1195.82359
648.99	1211.2101
649.438	1206.17061
649.885	1128.19936
650.333	1182.69084
650.78	1136.14514
651.227	1133.16077
651.674	1141.00887
652.121	1108.12976
652.568	1139.16702
653.015	1152.30229
653.461	1053.99764
653.908	1141.07044
654.354	1131.12167
654.801	1059.97498
655.247	1081.8616
655.693	1083.28201
656.139	1013.96636
656.585	1070.05065
657.031	960.82225
657.477	1022.7508
657.922	968.81252
658.368	1005.02697
658.813	1067.98503
659.259	1001.95502
659.704	954.82138
660.149	981.86263
660.594	987.91401
661.039	936.7525
661.484	971.91066
661.929	964.85204
662.373	952.99727
662.818	952.96222
663.262	920.84452
663.707	1001.0925
664.151	958.94196
664.595	899.8177
665.039	971.0056
665.483	936.99985
665.927	935.83112
666.371	889.71716
666.814	942.87305
667.258	908.79282
667.701	997.74569
668.145	964.00131
668.588	883.83658
669.031	918.79905
669.474	930.87402
669.917	904.67002
670.36	899.88727
670.803	952.91839
671.245	952.64184
671.688	926.90092
672.13	861.6265
672.573	938.01103
673.015	895.81703
673.457	882.6082
673.899	925.88651
674.341	872.79079
674.783	808.66893
675.225	801.70576
675.666	817.68716
676.108	858.57303
676.549	882.77395
676.991	860.60283
677.432	873.44418
677.873	900.75544
678.314	873.77474
678.755	811.70615
679.196	792.56497
679.637	834.75803
680.078	833.67491
680.518	874.73447
680.959	784.63305
681.399	783.69407
681.839	848.7735
682.28	758.6389
682.72	786.556
683.16	765.66918
683.6	794.56746
684.039	744.34446
684.479	749.61426
684.919	698.4183
685.358	783.74157
685.798	779.79474
686.237	780.64771
686.676	800.60959
687.115	797.62376
687.554	749.55973
687.993	734.42107
688.432	733.46955
688.871	754.49117
689.309	715.5093
689.748	770.39084
690.186	761.59386
690.625	766.56655
691.063	739.55933
691.501	755.64249
691.939	751.64897
692.377	769.64253
692.815	742.55916
693.253	758.6005
693.69	788.49527
694.128	773.63612
694.565	720.5182
695.003	755.69035
695.44	763.56709
695.877	758.54667
696.314	764.42641
696.751	780.54842
697.188	740.49009
697.625	824.63209
698.061	809.68256
698.498	813.70887
698.934	790.65866
699.371	757.55895
699.807	784.61569
700.243	783.64359
700.679	774.52507
701.115	784.61063
701.551	765.57685
701.987	815.57928
702.422	748.55937
702.858	810.67231
703.294	839.62895
703.729	787.68317
704.164	845.75126
704.599	784.51225
705.035	782.51488
705.47	760.62154
705.904	793.60244
706.339	785.59132
706.774	831.67548
707.209	786.57268
707.643	867.78411
708.078	818.7273
708.512	783.71352
708.946	790.65138
709.38	834.70345
709.814	798.57979
710.248	812.71985
710.682	802.65504
711.116	729.53081
711.549	811.83063
711.983	810.61628
712.416	773.59764
712.85	810.7596
713.283	872.76266
713.716	833.81839
714.149	827.70478
714.582	819.58024
715.015	823.79353
715.448	739.64976
715.881	821.54097
716.313	775.58318
716.746	774.58864
717.178	737.56122
717.61	769.71747
718.043	774.69417
718.475	733.56895
718.907	796.76648
719.339	685.37508
719.77	689.45054
720.202	713.60477
720.634	683.48133
721.065	690.45424
721.497	683.49516
721.928	633.40133
722.359	579.26993
722.79	582.26714
723.221	631.43744
723.652	679.57483
724.083	635.28278
724.514	649.33448
724.945	604.28448
725.375	546.15794
725.806	607.37771
726.236	576.35181
726.666	594.27633
727.096	580.29853
727.526	527.23548
727.956	556.15198
728.386	586.31521
728.816	496.16475
729.246	487.09787
729.675	440.01453
730.105	522.18624
730.534	528.13578
730.964	505.18476
731.393	494.14108
731.822	471.12334
732.251	467.10698
732.68	508.10674
733.109	419.97409
733.537	389.8908
733.966	465.0776
734.395	415.90327
734.823	441.93294
735.251	374.85698
735.68	452.06085
736.108	401.9616
736.536	417.92764
736.964	324.72214
737.392	393.9331
737.82	397.90254
738.247	359.8208
738.675	381.86583
739.102	336.8044
739.53	323.7902
739.957	369.9047
740.384	397.92915
740.811	363.87845
741.238	313.73547
741.665	328.72924
742.092	370.84169
742.519	292.69802
742.945	287.66676
743.372	269.64661
743.798	264.65964
744.225	240.55725
744.651	273.66468
745.077	259.62824
745.503	262.62177
745.929	256.59792
746.355	321.76864
746.781	287.68829
747.207	191.44129
747.632	179.43046
748.058	245.59629
748.483	252.5654
748.908	204.49809
749.334	244.58463
749.759	222.51281
750.184	218.50877
750.609	248.59421
751.033	244.5634
751.458	253.55328
751.883	221.53668
752.307	217.50076
752.732	175.43119
753.156	197.47858
753.58	239.5546
754.005	209.52082
754.429	188.43566
754.853	194.4728
755.277	220.51021
755.7	200.48778
756.124	156.38346
756.548	189.44136
756.971	180.43393
757.394	197.49892
757.818	185.46887
758.241	173.43331
758.664	190.47219
759.087	95.21302
759.51	195.47745
759.933	134.32084
760.356	170.43047
760.778	179.43421
761.201	170.40905
761.623	176.42204
762.046	180.42208
762.468	184.43634
762.89	177.43145
763.312	143.34702
763.734	140.33508
764.156	145.35543
764.578	193.43757
765	159.38425
765.421	103.26115
765.843	138.3591
766.264	160.38309
766.686	164.40743
767.107	121.29242
767.528	105.26451
767.949	146.36813
768.37	139.33896
768.791	157.37641
769.212	113.28283
769.632	115.2675
770.053	118.30927
770.473	131.31706
770.894	172.42528
771.314	165.39016
771.734	117.27226
772.154	145.36906
772.575	156.3585
772.994	104.23651
773.414	130.31091
773.834	101.25234
774.254	111.27118
774.673	155.37388
775.093	137.33644
775.512	124.3039
775.931	112.28301
776.351	120.2966
776.77	104.25385
777.189	138.326
777.607	102.25994
778.026	108.26831
778.445	64.16085
778.864	131.33367
779.282	94.22636
779.701	120.30095
780.119	41.10447
780.537	102.25396
780.955	153.38501
781.373	106.26152
781.791	108.24232
782.209	170.3866
782.627	122.31921
783.045	101.23225
783.462	135.34191
783.88	93.24014
784.297	115.28784
784.715	72.18517
785.132	89.21557
785.549	80.20034
785.966	146.36324
786.383	104.25508
786.8	158.36251
787.217	101.23901
787.633	69.17264
788.05	186.43427
788.466	147.34328
788.883	74.18892
789.299	120.28732
789.715	115.27813
790.131	94.23336
790.547	117.29051
790.963	133.32723
791.379	87.21972
791.795	107.24358
792.21	114.26533
792.626	134.3152
793.041	112.275
793.457	120.29464
793.872	112.26212
794.287	46.11056
794.702	111.27219
795.117	82.20365
795.532	89.2226
795.947	107.25663
796.362	147.34719
796.776	169.39
797.191	122.29645
797.605	33.07821
798.02	63.15386
798.434	106.23539
798.848	86.21155
799.262	77.19106
799.676	151.36381
800.09	103.25239
800.504	98.23715
800.918	131.30075
801.331	110.28673
801.745	94.21559
802.158	108.26851
802.572	156.37323
802.985	121.29043
803.398	111.26329
803.811	160.40544
804.224	132.32542
804.637	85.20232
805.05	143.32764
805.462	99.24241
805.875	42.10941
806.288	63.15237
806.7	81.2034
807.112	77.17876
807.525	98.24098
807.937	78.19272
808.349	91.22736
808.761	129.31434
809.173	108.26026
809.584	124.3039
809.996	61.14975
810.408	65.1679
810.819	94.22042
811.231	94.24183
811.642	135.31811
812.053	196.45528
812.464	266.6093
812.875	259.64
813.286	150.38078
813.697	188.43047
814.108	152.36615
814.519	92.20464
814.929	149.37495
815.34	126.30272
815.75	75.19043
816.16	119.29419
816.571	101.26097
816.981	136.31753
817.391	105.25212
817.801	62.15426
818.211	122.28831
818.62	116.277
819.03	142.34362
819.44	136.35122
819.849	134.33388
820.259	124.31444
820.668	59.14543
821.077	80.19832
821.486	123.29355
821.895	120.29399
822.304	99.26092
822.713	86.20285
823.122	121.29924
823.531	93.21965
823.939	98.2376
824.348	109.26322
824.756	105.26138
825.164	125.31151
825.573	74.18552
825.981	110.27089
826.389	117.29147
826.797	87.21721
827.205	104.23718
827.612	110.26949
828.02	93.21744
828.428	115.29043
828.835	89.2333
829.243	103.24403
829.65	121.29792
830.057	139.333
830.464	101.24464
830.871	112.26612
831.278	90.21672
831.685	96.21327
832.092	123.29815
832.499	92.20048
832.905	91.22941
833.312	155.3477
833.718	129.31785
834.124	115.26052
834.531	110.27517
834.937	125.31749
835.343	92.22104
835.749	146.33605
836.155	95.24742
836.561	78.19145
836.966	95.23114
837.372	79.20058
837.777	51.12737
838.183	104.2297
838.588	90.22245
838.993	97.23486
839.399	49.12016
839.804	51.1246
840.209	77.19551
840.613	84.1863
841.018	98.24666
841.423	100.25485
841.828	97.24384
842.232	118.28952
842.637	65.1534
843.041	41.10546
843.445	73.18278
843.849	63.15598
844.253	115.27077
844.657	56.14115
845.061	82.1855
845.465	59.14264
845.869	70.16254
846.272	56.13653
846.676	100.24026
847.079	84.21271
847.483	115.28419
847.886	147.35216
848.289	73.19434
848.692	75.18948
849.095	111.2642
849.498	174.43227
849.901	80.18296
850.304	111.26288
850.707	81.20581
851.109	130.32497
851.512	108.26312
851.914	35.08858
852.316	86.21654
852.718	58.14974
853.121	62.1519
853.523	90.20923
853.925	59.15387
854.326	50.12522
854.728	52.13387
855.13	76.19539
855.531	87.20684
855.933	128.30343
856.334	44.10999
856.736	65.14551
857.137	63.14643
857.538	46.11591
857.939	60.1482
858.34	78.18946
858.741	83.21602
859.142	119.2827
859.542	64.16865
859.943	113.27802
860.343	45.1117
860.744	94.2279
861.144	105.25394
861.544	12.02909
861.945	77.19557
862.345	91.22125
862.745	65.16134
863.145	136.3204
863.544	132.32913
863.944	68.16039
864.344	111.2731
864.743	116.28482
865.143	79.20215
865.542	116.26604
865.941	83.20451
866.34	133.31413
866.74	121.32127
867.139	89.21184
867.537	73.18548
867.936	112.26684
868.335	100.25251
868.734	78.19857
869.132	105.24173
869.531	123.29388
869.929	54.1232
870.327	80.19096
870.726	105.25958
871.124	130.29959
871.522	106.26766
871.92	114.27825
872.318	122.29467
872.715	94.23115
873.113	118.28425
873.511	105.25929
873.908	40.10126
874.306	55.13682
874.703	107.2653
875.1	80.20381
875.497	99.23546
875.894	75.1831
876.291	99.24106
876.688	98.25089
877.085	97.23097
877.482	94.2337
877.878	73.17515
878.275	119.29892
878.671	114.25094
879.068	85.2041
879.464	102.24441
879.86	76.17905
880.256	137.33308
880.652	79.20009
881.048	112.2747
881.444	160.37327
881.84	134.33581
882.236	101.25188
882.631	114.2768
883.027	127.30344
883.422	94.23871
883.817	32.08075
884.213	106.26956
884.608	69.16876
885.003	108.2578
885.398	102.25313
885.793	80.19991
886.188	56.13918
886.582	144.3636
886.977	115.26982
887.371	84.21135
887.766	58.14415
888.16	114.28146
888.554	90.22115
888.949	131.32444
889.343	131.31551
889.737	34.09089
890.131	70.17511
890.525	52.13304
890.918	76.19053
891.312	143.33643
891.706	87.22698
892.099	138.34596
892.492	76.16329
892.886	56.13699
893.279	96.24275
893.672	63.16013
894.065	90.22392
894.458	113.2812
894.851	127.30703
895.244	73.18581
895.637	107.25517
896.029	96.23292
896.422	101.24464
896.814	79.19552
897.206	82.19424
897.599	144.3503
897.991	77.18538
898.383	70.16492
898.775	92.20609
899.167	16.03759
899.559	81.20406
899.951	88.20611
900.342	94.23736
900.734	55.13642
901.125	74.19349
901.517	78.1906
901.908	122.28876
902.299	64.15616
902.69	90.21088
903.082	109.26123
903.473	56.13403
903.863	111.28033
904.254	53.12304
904.645	122.29966
905.036	72.17371
905.426	148.33248
905.817	99.24088
906.207	66.15688
906.597	108.24988
906.987	100.25709
907.378	89.22365
907.768	77.20274
908.158	142.34051
908.547	62.1599
908.937	110.27944
909.327	121.2901
909.717	116.29123
910.106	95.22638
910.495	70.17423
910.885	96.24128
911.274	61.15224
911.663	119.29849
912.052	123.2996
912.441	47.11963
912.83	142.32018
913.219	136.35086
913.608	106.25709
913.997	35.08802
914.385	162.37898
914.774	131.31431
915.162	90.21294
915.55	109.26093
915.939	56.14125
916.327	81.20113
916.715	98.24772
917.103	123.29882
917.491	106.25969
917.878	78.19088
918.266	97.2496
918.654	99.25083
919.041	83.2155
919.429	66.15537
919.816	110.27597
920.203	70.1692
920.591	90.22164
920.978	133.32081
921.365	85.22176
921.752	92.21767
922.139	96.20653
922.525	94.22395
922.912	86.20842
923.299	100.24635
923.685	109.28155
924.072	116.26412
924.458	106.25998
924.844	78.19209
925.231	67.15548
925.617	69.17495
926.003	80.20345
926.389	80.20078
926.774	86.21661
927.16	124.3039
927.546	74.18812
927.931	116.28609
928.317	117.26602
928.702	110.25734
929.088	57.13468
929.473	71.18002
929.858	68.16387
930.243	63.15087
930.628	82.19836
931.013	106.26008
931.398	175.39257
931.783	105.27393
932.167	71.17294
932.552	114.28239
932.937	104.25564
933.321	56.14039
933.705	75.18826
934.09	117.29221
934.474	141.32914
934.858	83.21409
935.242	68.15708
935.626	65.16597
936.009	74.19605
936.393	101.25471
936.777	76.19375
937.16	72.18665
937.544	118.27443
937.927	48.12185
938.311	145.34777
938.694	106.27772
939.077	72.17167
939.46	114.2767
939.843	110.22655
940.226	105.26679
940.609	88.20053
940.991	87.22003
941.374	90.21836
941.757	98.23974
942.139	135.29798
942.522	113.26389
942.904	110.26147
943.286	83.20969
943.668	94.24167
944.05	78.19117
944.432	79.19394
944.814	98.23929
945.196	34.08311
945.578	52.12356
945.959	58.13574
946.341	134.3239
946.722	120.27787
947.104	144.33806
947.485	101.23271
947.866	83.2079
948.247	93.23286
948.628	78.18932
949.009	81.20632
949.39	100.24672
949.771	121.27757
950.152	85.20728
950.532	36.08879
950.913	115.27403
951.293	57.15381
951.674	51.12335
952.054	36.08944
952.434	36.0896
952.814	122.2863
953.194	154.39591
953.574	74.1815
953.954	76.17961
954.334	59.14682
954.714	60.14596
955.093	120.29126
955.473	27.0678
955.853	72.18569
956.232	100.2719
956.611	85.20255
956.99	72.18025
957.37	78.1978
957.749	72.17108
958.128	89.22268
958.506	57.14769
958.885	62.15616
959.264	45.11039
959.643	81.1832
960.021	83.20444
960.4	67.15135
960.778	102.24887
961.156	94.23379
961.535	114.2624
961.913	94.21809
962.291	35.09003
962.669	69.1742
963.047	103.26041
963.424	79.20058
963.802	113.27463
964.18	75.18894
964.557	136.30791
964.935	132.30783
965.312	58.15083
965.69	113.27976
966.067	112.2696
966.444	94.22978
966.821	123.31307
967.198	107.25683
967.575	150.36202
967.952	147.33991
968.329	73.17689
968.705	109.23081
969.082	86.21917
969.458	15.03622
969.835	86.20795
970.211	60.15372
970.587	115.28294
970.963	81.20668
971.339	62.16156
971.715	104.25715
972.091	113.27504
972.467	93.23016
972.843	88.21687
973.219	96.22854
973.594	48.12559
973.97	134.31385
974.345	103.24403
974.721	105.25165
975.096	88.21143
975.471	105.24646
975.846	101.24031
976.221	37.09418
976.596	72.17187
976.971	129.31387
977.346	158.36004
977.72	67.17018
978.095	53.1369
978.469	115.27109
978.844	143.35351
979.218	85.20239
979.593	93.22102
979.967	102.24608
980.341	107.24358
980.715	70.17574
981.089	66.16475
981.463	92.20948
981.837	71.17282
982.21	116.26647
982.584	70.16844
982.957	63.15695
983.331	94.22034
983.704	87.21231
984.078	56.13786
984.451	120.29595
984.824	75.1818
985.197	63.15266
985.57	101.25097
985.943	149.3613
986.316	109.26491
986.688	104.24825
987.061	106.24574
987.434	98.25327
987.806	93.22374
988.179	75.17611
988.551	113.28344
988.923	99.2416
989.295	121.29847
989.667	30.07194
990.039	84.20625
990.411	92.20999
990.783	91.20783
991.155	82.19581
991.527	113.27504
991.898	97.23962
992.27	67.16521
992.641	116.28756
993.012	116.26946
993.384	61.14519
993.755	57.14514
994.126	90.21483
994.497	32.07881
994.868	97.22073
995.239	117.27998
995.61	66.16558
995.98	58.14067
996.351	50.12381
996.722	73.16853
997.092	35.08312
997.462	46.10753
997.833	100.23477
998.203	101.24252
998.573	65.1614
998.943	109.25265
999.313	104.24663
999.683	71.16971
1000.053	64.14684
1000.423	81.19568
1000.792	98.25186
1001.162	42.10351
1001.531	83.20338
1001.901	71.1763
1002.27	123.27081
1002.639	77.19578
1003.009	80.18913
1003.378	90.22847
1003.747	88.20635
1004.116	63.15036
1004.485	101.23901
1004.853	123.30753
1005.222	102.25479
1005.591	100.23513
1005.959	89.19891
1006.328	101.22489
1006.696	105.25059
1007.064	70.17543
1007.433	113.27915
1007.801	118.28598
1008.169	94.23549
1008.537	83.18251
1008.905	94.21706
1009.273	113.27586
1009.64	61.14519
1010.008	91.21518
1010.375	135.32255
1010.743	137.31086
1011.11	75.17659
1011.478	83.20414
1011.845	109.25335
1012.212	56.12658
1012.579	64.15668
1012.946	108.25414
1013.313	140.32739
1013.68	153.33658
1014.047	30.07175
1014.414	56.13209
1014.78	105.25824
1015.147	106.25361
1015.513	98.23393
1015.88	117.29559
1016.246	117.2852
1016.612	103.23324
1016.978	90.21886
1017.344	86.21108
1017.71	120.28874
1018.076	126.29268
1018.442	99.25243
1018.808	62.1546
1019.174	76.18971
1019.539	127.28782
1019.905	50.11789
1020.27	37.0915
1020.636	115.27225
1021.001	74.1763
1021.366	53.12717
1021.731	45.11579
1022.096	58.14604
1022.461	111.25952
1022.826	81.19131
1023.191	78.2036
1023.556	83.19322
1023.92	109.26501
1024.285	111.26775
1024.649	84.2045
1025.014	110.26939
1025.378	51.12816
1025.742	69.17071
1026.107	114.25442
1026.471	126.28967
1026.835	88.21655
1027.199	106.25235
1027.562	86.19843
1027.926	104.25167
1028.29	64.16149
1028.654	69.15809
1029.017	114.2768
1029.381	71.16886
1029.744	87.22035
1030.107	104.2434
1030.471	87.20676
1030.834	75.1697
1031.197	119.2828
1031.56	71.16678
1031.923	58.14969
1032.286	102.23703
1032.648	92.21818
1033.011	62.14191
1033.374	91.21209
1033.736	43.11314
1034.099	84.20335
1034.461	59.14874
1034.823	41.10221
1035.185	73.18291
1035.548	106.25515
1035.91	108.25572
1036.272	78.17645
1036.634	150.35997
1036.995	134.30967
1037.357	53.12881
1037.719	79.19099
1038.08	107.25115
1038.442	104.24416
1038.803	101.24003
1039.165	47.11862
1039.526	108.258
1039.887	84.19959
1040.248	38.09379
1040.609	106.25911
1040.97	66.16074
1041.331	114.28518
1041.692	71.16496
1042.053	95.21425
1042.413	125.28686
1042.774	106.25496
1043.134	122.2863
1043.495	54.13557
1043.855	77.18574
1044.215	75.18521
1044.576	50.11949
1044.936	147.3303
1045.296	69.17152
1045.656	107.25966
1046.016	96.22959
1046.375	56.13562
1046.735	43.09757
1047.095	93.21573
1047.454	138.28665
1047.814	95.22629
1048.173	109.25734
1048.533	117.2643
1048.892	33.07942
1049.251	111.27542
1049.61	62.15223
1049.969	89.20809
1050.328	112.23949
1050.687	120.28798
1051.046	82.19836
1051.405	87.21484
1051.763	66.15119
1052.122	84.20808
1052.48	96.23327
1052.839	73.17088
1053.197	116.26935
1053.555	113.25422
1053.914	47.11496
1054.272	110.26277
1054.63	57.1391
1054.988	62.14686
1055.345	65.13944
1055.703	83.19839
1056.061	83.21216
1056.419	82.21096
1056.776	94.22593
1057.134	75.17267
1057.491	104.25772
1057.848	87.215
1058.206	99.23047
1058.563	53.11669
1058.92	136.30791
1059.277	99.24187
1059.634	137.31666
1059.991	119.28117
1060.348	70.15745
1060.704	35.0836
1061.061	150.3414
1061.418	52.12598
1061.774	87.21318
1062.131	52.13735
1062.487	94.21775
1062.843	73.18113
1063.199	97.23901
1063.555	67.15462
1063.911	113.28201
1064.267	109.22424
1064.623	54.13097
1064.979	108.25286
1065.335	98.23196
1065.691	130.30662
1066.046	93.20253
1066.402	82.18497
1066.757	77.19328
1067.112	103.25014
1067.468	22.05219
1067.823	94.22395
1068.178	68.16381
1068.533	136.32414
1068.888	91.2156
1069.243	66.1623
1069.598	65.15738
1069.952	1.00227
1070.307	80.19679
1070.662	83.19566
1071.016	97.21509
1071.371	76.17186
1071.725	101.2391
1072.079	102.24273
1072.434	71.17172
1072.788	71.16828
1073.142	106.25786
1073.496	79.18623
1073.85	85.19561
1074.203	110.26368
1074.557	84.22195
1074.911	108.25474
1075.265	103.23675
1075.618	107.25829
1075.971	121.28368
1076.325	68.17213
1076.678	96.21735
1077.031	95.21285
1077.385	85.18573
1077.738	175.38465
1078.091	78.17624
1078.444	135.30794
1078.796	36.08849
1079.149	90.22205
1079.502	82.19236
1079.855	75.17391
1080.207	80.19585
1080.56	83.21313
1080.912	61.14809
1081.264	95.22664
1081.617	30.07333
1081.969	80.20056
1082.321	105.25356
1082.673	24.05502
1083.025	87.20477
1083.377	-134.2988
1083.728	68.15796
1084.08	45.11235
1084.432	51.12288
1084.783	127.29285
1085.135	89.22131
1085.486	70.15939
1085.838	46.11328
1086.189	84.20243
1086.54	89.21078
1086.891	58.14635
1087.242	94.22678
1087.593	91.21967
1087.944	39.08839
1088.295	137.30568
1088.646	77.18553
1088.996	76.18204
1089.347	90.21902
1089.698	28.0664
1090.048	65.16825
1090.398	91.20917
1090.749	115.27151
1091.099	56.14055
1091.449	80.19803
1091.799	96.23815
1092.149	46.11215
1092.499	66.16038
1092.849	64.16212
1093.199	136.33528
1093.548	57.13666
1093.898	90.22335
1094.248	57.14616
1094.597	66.16784
1094.947	89.23568
1095.296	30.07429
1095.645	109.28037
1095.994	85.20263
1096.343	64.16051
1096.692	40.10516
1097.041	30.08141
1097.39	106.26296
1097.739	63.16324
1098.088	119.3149
1098.437	55.14423
1098.785	83.22236
1099.134	99.26048
1099.482	73.19986
1099.83	84.21926
1100.179	76.19716
1100.527	87.22953
1100.875	57.15038
1101.223	100.26307
1101.571	84.23067
1101.919	75.19493
1102.267	38.10708
1102.615	6.01929
1102.962	25.08035
1103.31	17.05455
1103.658	24.07718
