Data from N2 R15 sample 6_Subt2__4__15-23-46-008.txt Node

Date: Tue Sep 02 15:23:46 PDT 2025
User: uwsun
Spectrometer: HDX01956
Trigger mode: 0
Integration Time (sec): 5.000000E-1
Scans to average: 1
Nonlinearity correction enabled: true
Boxcar width: 0
Storing dark spectrum: false
XAxis mode: Wavelengths
Number of Pixels in Spectrum: 2068
>>>>>Begin Spectral Data<<<<<
194.03	153.41927
194.578	143.44419
195.127	157.47939
195.676	155.47491
196.225	219.55955
196.773	211.55888
197.321	294.75047
197.87	401.91864
198.418	390.88287
198.966	382.87179
199.513	315.69176
200.061	310.6938
200.609	381.89276
201.156	343.64839
201.704	348.76791
202.251	345.80622
202.798	379.86163
203.345	386.83499
203.892	371.81677
204.438	424.87479
204.985	350.71791
205.532	393.90212
206.078	411.8729
206.624	386.82106
207.17	428.85291
207.716	350.74093
208.262	435.72407
208.808	326.70009
209.354	386.81249
209.899	418.92157
210.445	411.87861
210.99	367.76655
211.535	436.88016
212.08	449.89247
212.625	444.95838
213.17	434.95203
213.715	317.61099
214.259	450.89675
214.804	458.97419
215.348	384.76202
215.892	411.85273
216.436	419.83944
216.98	471.88604
217.524	383.78577
218.068	412.9034
218.612	432.94446
219.155	387.79111
219.698	385.79915
220.242	381.83597
220.785	383.7808
221.328	356.78293
221.871	352.79265
222.414	408.88974
222.956	311.66198
223.499	357.70298
224.041	388.79225
224.583	409.76749
225.126	348.67219
225.668	343.73485
226.21	325.72482
226.751	271.52534
227.293	398.79165
227.835	364.77933
228.376	389.78582
228.918	366.81708
229.459	335.73536
230	323.67974
230.541	312.63765
231.082	345.73626
231.622	363.7333
232.163	347.73828
232.704	339.74039
233.244	353.76998
233.784	415.88754
234.324	307.58887
234.864	354.70084
235.404	351.73509
235.944	328.68768
236.484	426.92426
237.023	333.69091
237.563	379.75895
238.102	360.74376
238.641	323.72363
239.18	289.59587
239.719	352.77739
240.258	369.72148
240.797	354.73891
241.335	336.72529
241.874	335.5551
242.412	404.83803
242.95	324.67689
243.488	407.79917
244.026	383.76128
244.564	363.64358
245.102	359.6976
245.64	386.81034
246.177	366.71069
246.715	369.77312
247.252	402.79625
247.789	495.77381
248.326	334.69747
248.863	384.72075
249.4	350.69163
249.936	414.72049
250.473	354.71496
251.009	377.74166
251.546	387.72979
252.082	410.76501
252.618	388.73832
253.154	375.77666
253.69	403.77489
254.226	336.69791
254.761	430.81825
255.297	350.65887
255.832	295.6118
256.367	414.83268
256.903	407.75771
257.438	453.9021
257.972	386.73451
258.507	363.71109
259.042	390.72047
259.576	350.64106
260.111	395.7822
260.645	386.71236
261.179	381.75942
261.713	394.74354
262.247	337.67266
262.781	387.68365
263.315	337.71388
263.849	394.84391
264.382	414.80889
264.915	420.82957
265.449	361.749
265.982	450.86048
266.515	438.90246
267.048	401.71208
267.58	478.86982
268.113	416.75121
268.646	373.78806
269.178	378.71334
269.71	426.7799
270.243	421.81106
270.775	416.90026
271.307	410.84097
271.838	490.97464
272.37	403.84248
272.902	402.77315
273.433	366.67748
273.965	339.70996
274.496	446.93753
275.027	409.85957
275.558	416.85058
276.089	350.73056
276.62	442.95284
277.15	411.86149
277.681	416.7562
278.211	416.86407
278.741	372.68652
279.272	437.82692
279.802	420.88599
280.332	359.71657
280.861	456.91335
281.391	401.75842
281.921	421.8532
282.45	419.88408
282.98	447.98034
283.509	422.78701
284.038	414.78435
284.567	478.92199
285.096	395.8027
285.625	393.74292
286.153	413.8033
286.682	458.85713
287.21	445.8841
287.739	417.81727
288.267	410.82426
288.795	467.02307
289.323	440.84054
289.851	455.87404
290.378	474.8621
290.906	433.85906
291.433	447.91997
291.961	440.8096
292.488	413.85382
293.015	431.82754
293.542	487
294.069	431.86867
294.596	474.95994
295.122	442.86033
295.649	460.81753
296.175	479.94411
296.702	469.92614
297.228	494.97253
297.754	495.88363
298.28	464.8422
298.806	499.95812
299.332	474.82844
299.857	450.81179
300.383	496.01508
300.908	424.82804
301.433	499.96227
301.958	499.91796
302.483	453.90797
303.008	496.98244
303.533	539.12143
304.058	509.95142
304.582	454.85006
305.107	482.00285
305.631	550.97603
306.155	490.89166
306.679	435.80382
307.203	533.95445
307.727	471.88081
308.251	531.02427
308.775	446.82806
309.298	487.90398
309.822	491.9764
310.345	525.95853
310.868	484.89863
311.391	586.10217
311.914	542.04178
312.437	530.92441
312.96	495.89368
313.482	502.9098
314.005	575.09392
314.527	476.97458
315.049	612.16699
315.571	541.8828
316.093	575.06579
316.615	538.9711
317.137	635.98544
317.659	608.09375
318.18	631.11577
318.702	606.01947
319.223	633.90458
319.744	622.98872
320.265	625.08274
320.786	496.90671
321.307	603.08335
321.828	622.98872
322.348	640.05516
322.869	635.03965
323.389	662.67311
323.909	697.0888
324.43	709.18642
324.95	614.96537
325.47	628.06635
325.989	675.06843
326.509	686.97895
327.029	676.99444
327.548	622.92159
328.067	660.05272
328.587	734.20925
329.106	692.01064
329.625	775.3689
330.144	691.01694
330.662	651.96669
331.181	747.09296
331.7	749.09051
332.218	758.98016
332.736	761.09167
333.255	706.01088
333.773	834.17039
334.291	819.25487
334.808	743.96955
335.326	878.11202
335.844	785.04025
336.361	779.16311
336.879	783.03066
337.396	814.10884
337.913	811.02416
338.43	877.03925
338.947	805.05836
339.464	816.89592
339.981	827.04739
340.497	860.15581
341.014	895.14509
341.53	844.96019
342.046	880.12152
342.562	897.1761
343.078	952.09639
343.594	1008.15978
344.11	988.1272
344.626	919.16472
345.141	937.99116
345.657	1016.04537
346.172	977.10487
346.687	1000.01609
347.202	971.94745
347.717	1070.11521
348.232	993.14876
348.747	939.94417
349.261	975.83739
349.776	1065.03719
350.29	990.04672
350.805	1093.15474
351.319	1080.00418
351.833	975.8668
352.347	1046.9743
352.861	1186.00309
353.374	1190.00367
353.888	1119.04799
354.401	1099.92263
354.915	1089.83048
355.428	1168.07311
355.941	1090.89254
356.454	1200.89505
356.967	1147.95359
357.48	1180.90394
357.993	1258.05943
358.505	1191.98908
359.018	1265.01328
359.53	1247.94341
360.042	1270.79681
360.554	1227.95502
361.066	1268.9493
361.578	1221.7175
362.09	1276.89666
362.602	1263.71027
363.113	1338.81101
363.625	1321.72786
364.136	1350.68685
364.647	1177.68713
365.158	1322.75342
365.669	1369.81375
366.18	1348.76498
366.691	1389.61875
367.201	1375.76228
367.712	1375.62768
368.222	1439.62144
368.733	1319.48242
369.243	1549.4694
369.753	1464.57749
370.263	1562.61591
370.773	1450.67331
371.282	1436.54067
371.792	1554.33798
372.301	1577.45423
372.811	1627.61935
373.32	1549.10997
373.829	1540.25665
374.338	1705.05107
374.847	1737.03392
375.356	1720.03868
375.865	1886.66222
376.373	1925.69755
376.882	2034.86982
377.39	2073.67393
377.898	1947.60959
378.407	1987.38474
378.915	2242.15223
379.423	2310.14518
379.93	2356.01712
380.438	2414.94766
380.946	2484.83965
381.453	2560.7757
381.96	2661.72336
382.468	2701.77595
382.975	3078.77153
383.482	3172.98907
383.989	3218.885
384.495	3323.34695
385.002	3305.08812
385.509	3538.3813
386.015	3843.38037
386.521	4034.82711
387.028	4160.15285
387.534	4184.26242
388.04	4511.08644
388.546	4324.79184
389.051	4469.67715
389.557	4928.15139
390.063	5758.53357
390.568	5891.26028
391.073	5844.01446
391.578	6104.65372
392.084	6192.37245
392.589	5999.29519
393.093	6295.77469
393.598	7216.07999
394.103	7936.93451
394.607	8865.8562
395.112	9506.84113
395.616	10171.69325
396.12	10653.33994
396.624	11804.18172
397.128	13090.17582
397.632	15047.76811
398.136	16068.3815
398.639	15657.12715
399.143	16626.38332
399.646	19004.78624
400.15	21272.41756
400.653	19075.10967
401.156	13537.34104
401.659	5169.95759
402.162	1054.15589
402.664	0
403.167	0
403.67	0
404.172	0
404.674	0
405.176	0
405.678	0
406.18	0
406.682	0
407.184	0
407.686	0
408.187	0
408.688	0
409.19	0
409.691	0
410.192	0
410.693	0
411.194	435.30976
411.694	4082.94878
412.195	8864.71461
412.696	12089.80453
413.196	12760.96929
413.696	12863.67595
414.196	13703.56671
414.696	17261.84252
415.196	21764.24417
415.696	29583.19008
416.196	36460.31858
416.695	26260.29479
417.195	20622.17142
417.694	19498.42591
418.194	18887.43326
418.693	17004.96014
419.192	16233.3995
419.691	15796.02374
420.19	15823.08476
420.688	15736.66683
421.187	15213.47774
421.685	14641.93136
422.184	13626.37324
422.682	11888.37804
423.18	9697.32516
423.678	8453.60003
424.176	7607.79234
424.674	7348.32832
425.172	7161.09157
425.669	6784.46053
426.167	6428.65267
426.664	5735.33975
427.161	5313.39636
427.659	4955.12847
428.156	4436.03814
428.652	4166.9399
429.149	3994.61849
429.646	3893.45705
430.143	3812.90122
430.639	3482.68553
431.135	3183.59527
431.632	3002.63083
432.128	2785.74934
432.624	2580.93739
433.12	2363.93221
433.616	2258.00731
434.111	2133.16666
434.607	2142.26441
435.103	2219.18128
435.598	2213.21681
436.093	2135.54399
436.588	1914.69449
437.083	1923.78452
437.578	1788.95386
438.073	1588.16873
438.568	1631.28592
439.062	1595.0542
439.557	1559.33783
440.051	1386.30368
440.546	1411.32493
441.04	1357.46795
441.534	1321.63163
442.028	1313.56772
442.522	1285.56935
443.015	1225.43285
443.509	1271.67185
444.002	1158.66221
444.496	1127.48687
444.989	1134.69657
445.482	1093.72273
445.975	1094.54773
446.468	994.48293
446.961	1135.50662
447.454	1067.60725
447.947	1008.65393
448.439	916.70611
448.931	970.59028
449.424	968.81676
449.916	985.75982
450.408	960.6221
450.9	885.71405
451.392	813.75203
451.884	916.69012
452.375	772.71092
452.867	873.68327
453.358	808.62758
453.849	813.56643
454.341	795.63869
454.832	732.55804
455.323	747.7234
455.814	826.71366
456.304	722.66334
456.795	805.70947
457.285	825.71581
457.776	751.71853
458.266	724.72554
458.756	694.74172
459.247	575.62166
459.737	637.67863
460.226	685.65784
460.716	694.75
461.206	586.67821
461.695	582.73658
462.185	594.68184
462.674	645.71034
463.163	573.61411
463.653	553.55137
464.142	485.61466
464.63	622.78789
465.119	498.59994
465.608	455.55939
466.096	486.55884
466.585	605.7379
467.073	518.69208
467.561	525.70775
468.05	423.56669
468.538	494.70544
469.026	494.68242
469.513	437.51396
470.001	449.58642
470.489	456.63313
470.976	445.61008
471.463	391.61148
471.951	425.6705
472.438	309.46047
472.925	363.52918
473.412	428.67465
473.899	390.56944
474.385	412.65655
474.872	339.51318
475.359	387.61899
475.845	346.4553
476.331	354.50601
476.817	320.53508
477.303	311.49086
477.789	300.50053
478.275	301.5206
478.761	329.5521
479.247	323.50039
479.732	258.45823
480.218	271.51303
480.703	231.41956
481.188	273.41125
481.673	279.4564
482.158	216.32449
482.643	249.47507
483.128	185.31076
483.612	219.37997
484.097	249.45847
484.581	251.43573
485.066	182.3367
485.55	135.22441
486.034	129.21254
486.518	158.28339
487.002	179.33587
487.486	164.31054
487.969	126.24127
488.453	162.32343
488.936	131.23091
489.42	188.32246
489.903	160.32226
490.386	-300.4331
490.869	208.35313
491.352	188.36906
491.835	218.34952
492.318	147.26345
492.8	120.19788
493.283	131.27011
493.765	98.19702
494.247	161.30583
494.73	170.30051
495.212	137.27282
495.694	113.21486
496.175	81.15694
496.657	181.34885
497.139	175.24294
497.62	64.12528
498.102	96.19754
498.583	121.25252
499.064	97.17761
499.545	95.18002
500.026	97.17985
500.507	128.24593
500.988	141.29164
501.469	71.14962
501.949	173.3551
502.43	122.23972
502.91	65.11199
503.39	140.29483
503.87	132.25729
504.35	161.31732
504.83	173.31037
505.31	113.22985
505.79	169.33435
506.269	174.33835
506.749	189.35429
507.228	199.38373
507.707	274.48842
508.187	274.53611
508.666	220.44473
509.145	276.5216
509.623	293.55658
510.102	311.61153
510.581	390.75477
511.059	366.73478
511.538	453.93441
512.016	467.87376
512.494	546.02225
512.972	526.96886
513.45	585.01006
513.928	622.13503
514.406	645.14888
514.884	734.40346
515.361	774.34404
515.839	854.36173
516.316	896.51712
516.793	920.66412
517.27	1068.76172
517.747	1008.80426
518.224	1057.64141
518.701	1074.57468
519.178	1086.81427
519.654	1118.78164
520.131	1116.86052
520.607	1107.87016
521.083	1163.72117
521.56	1060.69262
522.036	1121.60244
522.512	1168.93484
522.987	1024.65255
523.463	1076.72805
523.939	1110.85149
524.414	1089.69136
524.89	935.56416
525.365	905.43637
525.84	805.38141
526.315	872.50829
526.79	877.39973
527.265	810.33559
527.74	737.3423
528.215	727.27725
528.689	645.07256
529.164	714.14497
529.638	671.33269
530.112	565.03158
530.587	560.91102
531.061	507.96597
531.534	564.07425
532.008	469.90094
532.482	525.9498
532.956	406.84443
533.429	492.95356
533.903	468.82528
534.376	399.71332
534.849	436.81595
535.322	420.80505
535.795	407.81464
536.268	381.7513
536.741	401.78962
537.213	427.80048
537.686	314.63708
538.158	293.54383
538.631	298.61098
539.103	338.62189
539.575	350.59812
540.047	329.59788
540.519	336.67019
540.991	329.67529
541.463	305.62038
541.934	275.52901
542.406	242.48898
542.877	298.56153
543.348	283.57799
543.82	319.65773
544.291	291.57274
544.762	261.52168
545.233	318.66672
545.703	290.53303
546.174	321.62048
546.645	292.57918
547.115	369.73003
547.585	364.68624
548.056	288.57552
548.526	388.73688
548.996	393.76986
549.466	459.90341
549.935	455.85214
550.405	468.80115
550.875	471.88037
551.344	449.85919
551.814	504.90505
552.283	635.03501
552.752	595.0465
553.221	574.93539
553.69	696.12997
554.159	653.20105
554.628	718.15794
555.096	730.37224
555.565	794.26141
556.033	877.47484
556.502	906.56892
556.97	929.43758
557.438	975.62863
557.906	1077.76634
558.374	1170.79099
558.842	1214.93766
559.31	1320.88181
559.777	1356.10858
560.245	1534.20872
560.712	1689.27091
561.18	1784.15187
561.647	1901.25409
562.114	2013.36229
562.581	2206.78054
563.048	2350.53125
563.514	2523.82192
563.981	2726.51965
564.448	2970.38343
564.914	3240.52806
565.381	3393.36233
565.847	3763.37365
566.313	3932.25698
566.779	4268.88923
567.245	4495.98079
567.711	4794.95352
568.176	5080.38966
568.642	5486.86888
569.108	5804.59963
569.573	6212.25268
570.038	6800.74825
570.504	6911.98644
570.969	7476.6746
571.434	7900.56923
571.899	8370.30799
572.363	8895.14924
572.828	9306.0649
573.293	9864.62666
573.757	10435.6174
574.222	10815.34957
574.686	11242.35284
575.15	11747.58358
575.614	12228.72291
576.078	12905.04708
576.542	13079.63917
577.006	13643.23368
577.469	13993.74724
577.933	14260.76212
578.396	14497.88176
578.86	14847.34495
579.323	14947.18942
579.786	15224.68313
580.249	15204.56957
580.712	15389.05668
581.175	15448.53923
581.637	15468.92958
582.1	15526.4271
582.563	15497.49229
583.025	15290.23995
583.487	15304.66276
583.95	15150.0106
584.412	15192.70605
584.874	15003.31244
585.336	14768.44923
585.797	14618.50325
586.259	14301.0962
586.721	14039.95126
587.182	13845.20589
587.643	13511.92315
588.105	13300.75017
588.566	12864.82468
589.027	12540.20545
589.488	12328.30898
589.949	11997.75054
590.41	11611.30969
590.87	11249.15424
591.331	11177.14636
591.791	10749.84613
592.252	10428.5974
592.712	10209.61589
593.172	9815.50046
593.632	9497.6074
594.092	9279.01627
594.552	8916.19838
595.011	8596.60586
595.471	8361.21291
595.931	8220.00738
596.39	7925.82705
596.849	7531.43633
597.308	7311.09057
597.768	7271.67491
598.227	7035.37002
598.685	6937.15501
599.144	6717.18044
599.603	6552.24885
600.062	6379.69268
600.52	6087.98883
600.978	6066.33496
601.437	5937.18959
601.895	5919.80155
602.353	5770.07996
602.811	5562.14632
603.269	5447.628
603.727	5360.66831
604.184	5249.34699
604.642	5107.94524
605.099	5124.59983
605.557	5073.94159
606.014	4969.24473
606.471	4894.14961
606.928	4772.29865
607.385	4735.0402
607.842	4834.65189
608.299	4768.82055
608.755	4693.05295
609.212	4671.56995
609.668	4575.5776
610.125	4599.1452
610.581	4647.07352
611.037	4559.8878
611.493	4498.12456
611.949	4507.19148
612.405	4449.21771
612.861	4485.13186
613.316	4445.19842
613.772	4404.00012
614.227	4375.1712
614.683	4458.61047
615.138	4224.21004
615.593	4241.16838
616.048	4238.11342
616.503	4226.57636
616.958	4050.76498
617.412	4029.41702
617.867	3981.0262
618.321	4041.69638
618.776	3966.09089
619.23	3795.50886
619.684	3813.30644
620.138	3628.56352
620.592	3591.82858
621.046	3603.64339
621.5	3420.89891
621.954	3439.48938
622.407	3376.44923
622.861	3248.96435
623.314	3179.63804
623.768	3067.7758
624.221	3023.99164
624.674	2988.74297
625.127	2947.83874
625.58	2835.74672
626.033	2859.59414
626.485	2729.97157
626.938	2673.96324
627.39	2619.84773
627.843	2559.82451
628.295	2527.82249
628.747	2474.95068
629.199	2329.71788
629.651	2324.7147
630.103	2318.75612
630.555	2320.43783
631.006	2184.83422
631.458	2259.88935
631.909	2212.78459
632.361	2123.80479
632.812	2020.71143
633.263	1968.43777
633.714	1970.42344
634.165	1918.87605
634.616	1899.78583
635.067	1869.52125
635.518	1821.75831
635.968	1845.17472
636.419	1752.38558
636.869	1715.67671
637.319	1648.51725
637.769	1565.34229
638.219	1646.64827
638.669	1564.55742
639.119	1574.6563
639.569	1497.53702
640.019	1498.41086
640.468	1527.32842
640.918	1530.58154
641.367	1405.23409
641.816	1484.30142
642.265	1361.28051
642.714	1357.27869
643.163	1381.28796
643.612	1312.32625
644.061	1258.93793
644.51	1361.23982
644.958	1279.05891
645.406	1292.30478
645.855	1254.33416
646.303	1281.23776
646.751	1201.06347
647.199	1221.09132
647.647	1178.06836
648.095	1193.07794
648.543	1206.83452
648.99	1175.16354
649.438	1182.14023
649.885	1195.29356
650.333	1165.67517
650.78	1161.17918
651.227	1077.08141
651.674	1094.9506
652.121	1072.07812
652.568	1049.03874
653.015	1081.19542
653.461	1026.95907
653.908	1106.02444
654.354	1029.97948
654.801	890.72853
655.247	1043.81406
655.693	981.11278
656.139	965.89439
656.585	983.92434
657.031	924.76912
657.477	970.68451
657.922	894.70418
658.368	1008.03164
658.813	972.85043
659.259	880.76749
659.704	896.73441
660.149	858.67736
660.594	821.65454
661.039	855.63248
661.484	856.72949
661.929	792.58397
662.373	792.71975
662.818	802.70826
663.262	799.64627
663.707	772.69617
664.151	821.71586
664.595	730.53258
665.039	784.68794
665.483	690.55203
665.927	748.529
666.371	644.31616
666.814	708.48373
667.258	650.36025
667.701	729.36531
668.145	715.56725
668.588	680.47764
669.031	612.28514
669.474	624.34491
669.917	665.3011
670.36	599.33974
670.803	651.40167
671.245	600.13077
671.688	628.37494
672.13	513.05065
672.573	650.48047
673.015	605.30864
673.457	548.0827
673.899	586.28611
674.341	545.20078
674.783	496.09517
675.225	529.19222
675.666	486.07708
676.108	508.01245
676.549	524.13972
676.991	542.08886
677.432	486.89067
677.873	542.14595
678.314	512.12537
678.755	456.0331
679.196	450.96134
679.637	459.04602
680.078	453.9914
680.518	486.05067
680.959	438.98343
681.399	436.01207
681.839	430.98328
682.28	393.91691
682.72	395.85427
683.16	393.92591
683.6	414.89096
684.039	382.75486
684.479	363.84794
684.919	365.79885
685.358	381.91887
685.798	376.93667
686.237	433.98516
686.676	410.89978
687.115	362.81116
687.554	362.81949
687.993	366.77175
688.432	354.77265
688.871	312.68157
689.309	304.70024
689.748	310.62638
690.186	348.79613
690.625	313.70643
691.063	321.74013
691.501	351.82988
691.939	288.6945
692.377	306.71973
692.815	268.6225
693.253	315.73035
693.69	317.67123
694.128	271.63705
694.565	285.65897
695.003	310.75826
695.44	285.64901
695.877	278.62962
696.314	303.63092
696.751	300.66284
697.188	257.57555
697.625	316.70081
698.061	256.59839
698.498	333.77452
698.934	277.64785
699.371	230.53023
699.807	235.54445
700.243	291.67765
700.679	238.5285
701.115	262.60207
701.551	275.62979
701.987	275.60215
702.422	218.50837
702.858	226.52806
703.294	233.51815
703.729	240.57439
704.164	210.49722
704.599	236.51556
705.035	199.43961
705.47	208.49724
705.904	241.54905
706.339	267.60582
706.774	206.47529
707.209	190.43296
707.643	248.58174
708.078	236.56223
708.512	145.36017
708.946	199.47073
709.38	210.48991
709.814	254.56731
710.248	208.49895
710.682	182.4281
711.116	140.33239
711.549	175.44636
711.983	201.45811
712.416	256.59087
712.85	167.41254
713.283	214.49807
713.716	241.59225
714.149	235.5492
714.582	199.44144
715.015	239.5856
715.448	198.49171
715.881	216.46627
716.313	176.40866
716.746	181.42152
717.178	112.2698
717.61	167.41949
718.043	197.48396
718.475	166.39912
718.907	173.43378
719.339	147.33206
719.77	165.38774
720.202	171.42784
720.634	134.32487
721.065	176.41318
721.497	195.47124
721.928	155.37769
722.359	126.30307
722.79	129.30822
723.221	156.38982
723.652	190.48367
724.083	148.33275
724.514	184.41844
724.945	158.36904
725.375	112.26037
725.806	176.43485
726.236	181.45808
726.666	185.43304
727.096	151.36835
727.526	124.314
727.956	144.32628
728.386	151.36959
728.816	103.26078
729.246	127.30784
729.675	111.2732
730.105	148.36231
730.534	126.29488
730.964	137.345
731.393	197.48271
731.822	183.46133
732.251	116.29405
732.68	185.43134
733.109	142.34814
733.537	144.34596
733.966	144.35553
734.395	107.24811
734.823	153.34407
735.251	107.25829
735.68	201.49579
736.108	140.35237
736.536	141.3316
736.964	129.29912
737.392	92.23106
737.82	133.31851
738.247	141.3365
738.675	185.4371
739.102	140.34768
739.53	120.30463
739.957	154.39259
740.384	166.40607
740.811	124.31355
741.238	137.33296
741.665	106.24652
742.092	167.3955
742.519	46.11512
742.945	128.30671
743.372	126.31109
743.798	95.24462
744.225	113.26896
744.651	102.25627
745.077	120.29867
745.503	133.32348
745.929	125.29946
746.355	224.54631
746.781	102.25322
747.207	97.2283
747.632	77.18875
748.058	101.25243
748.483	90.20865
748.908	126.31212
749.334	152.37058
749.759	119.28052
750.184	98.23411
750.609	107.26326
751.033	136.32078
751.458	126.28294
751.883	148.36433
752.307	78.18498
752.732	93.23261
753.156	129.31738
753.58	130.30817
754.005	123.3113
754.429	112.26345
754.853	91.22604
755.277	123.29073
755.7	109.27035
756.124	86.21413
756.548	88.20958
756.971	106.25911
757.394	118.30305
757.818	91.23448
758.241	94.23879
758.664	101.25508
759.087	33.07494
759.51	102.25405
759.933	121.29043
760.356	69.17786
760.778	101.24859
761.201	143.34584
761.623	117.28371
762.046	126.29857
762.468	146.34877
762.89	120.29562
763.312	116.28292
763.734	95.22933
764.156	109.26897
764.578	125.28732
765	128.31114
765.421	61.15581
765.843	93.24387
766.264	149.3575
766.686	92.23156
767.107	77.18763
767.528	85.2149
767.949	120.30398
768.37	103.25286
768.791	108.26135
769.212	39.09892
769.632	88.20579
770.053	83.21883
770.473	76.18585
770.894	123.30686
771.314	114.27223
771.734	109.25405
772.154	85.21864
772.575	155.35627
772.994	47.10812
773.414	130.31091
773.834	79.19816
774.254	75.18446
774.673	107.26044
775.093	106.26181
775.512	94.23166
775.931	112.28301
776.351	61.15241
776.77	54.13303
777.189	87.20755
777.607	80.20467
778.026	87.21697
778.445	28.07083
778.864	116.29625
779.282	102.24525
779.701	85.21452
780.119	66.16743
780.537	41.10321
780.955	112.28392
781.373	86.21296
781.791	94.21152
782.209	121.2779
782.627	82.21601
783.045	65.15054
783.462	86.21971
783.88	89.22997
784.297	82.20646
784.715	72.18517
785.132	80.1941
785.549	45.11341
785.966	78.19646
786.383	127.31016
786.8	104.2412
787.217	73.17369
787.633	34.08561
788.05	129.30456
788.466	140.32739
788.883	34.08741
789.299	108.25918
789.715	105.25442
790.131	100.24799
790.547	119.29537
790.963	57.14221
791.379	95.23958
791.795	94.21455
792.21	118.27443
792.626	117.27612
793.041	90.22188
793.457	103.2537
793.872	91.21385
794.287	78.18633
794.702	132.32243
795.117	94.23294
795.532	48.12094
795.947	143.34062
796.362	139.32881
796.776	149.34522
797.191	107.26073
797.605	32.07586
798.02	88.21391
798.434	75.16762
798.848	95.2333
799.262	63.15672
799.676	126.30502
800.09	71.17501
800.504	125.30095
800.918	72.16725
801.331	98.25598
801.745	106.24252
802.158	108.26851
802.572	115.27729
802.985	114.27399
803.398	82.19559
803.811	148.37583
804.224	140.34464
804.637	50.11981
805.05	89.20613
805.462	93.22797
805.875	12.03142
806.288	63.15237
806.7	71.17861
807.112	103.23789
807.525	123.30106
807.937	67.16588
808.349	101.25188
808.761	99.24259
809.173	103.24845
809.584	125.30629
809.996	79.19329
810.408	62.16023
810.819	48.11357
811.231	49.12705
811.642	34.08169
812.053	151.35387
812.464	219.50638
812.875	151.38053
813.286	136.3461
813.697	173.39732
814.108	120.29082
814.519	112.24809
814.929	114.28868
815.34	109.26272
815.75	87.22043
816.16	115.28451
816.571	79.20491
816.981	116.2719
817.391	71.17159
817.801	66.16409
818.211	96.22801
818.62	40.09691
819.03	100.2439
819.44	110.28536
819.849	110.27527
820.259	100.25467
820.668	75.18432
821.077	84.20808
821.486	120.28655
821.895	67.16576
822.304	80.21152
822.713	130.304
823.122	98.24338
823.531	84.19874
823.939	103.24948
824.348	87.21097
824.756	110.27358
825.164	106.26507
825.573	76.19047
825.981	107.26365
826.389	122.30365
826.797	73.18272
827.205	81.18559
827.612	108.26469
828.02	67.15745
828.428	91.23081
828.835	68.17889
829.243	122.28798
829.65	95.23503
830.057	93.22475
830.464	60.14645
830.871	134.31704
831.278	47.1141
831.685	107.23717
832.092	119.28867
832.499	80.17477
832.905	93.23437
833.312	101.22909
833.718	106.26229
834.124	100.22723
834.531	98.24569
834.937	103.26263
835.343	100.23989
835.749	108.25048
836.155	86.22433
836.561	87.21318
836.966	121.29297
837.372	97.2455
837.777	99.2451
838.183	91.20153
838.588	89.22002
838.993	131.31515
839.399	49.12016
839.804	54.13186
840.209	48.1225
840.613	78.17321
841.018	122.30574
841.423	71.18187
841.828	80.20172
842.232	121.29671
842.637	54.12772
843.041	72.1842
843.445	56.14065
843.849	69.17064
844.253	123.28916
844.657	71.17848
845.061	90.20326
845.465	74.1784
845.869	104.23986
846.272	75.18221
846.676	96.23082
847.079	71.18021
847.483	129.31797
847.886	120.28896
848.289	29.07777
848.692	113.28355
849.095	107.25487
849.498	132.33044
849.901	63.14458
850.304	91.21635
850.707	83.21081
851.109	89.22413
851.512	85.20797
851.914	42.10617
852.316	77.19419
852.718	50.12926
853.121	57.13978
853.523	69.16107
853.925	64.16677
854.326	46.11528
854.728	79.20243
855.13	66.16998
855.531	62.14811
855.933	47.11316
856.334	65.16187
856.736	68.15214
857.137	48.1119
857.538	58.14583
857.939	114.27877
858.34	120.28918
858.741	123.31793
859.142	95.22673
859.542	55.14516
859.943	105.25872
860.343	78.19244
860.744	86.20882
861.144	112.27052
861.544	59.14178
861.945	70.17802
862.345	113.2736
862.745	78.19315
863.145	128.30203
863.544	88.22117
863.944	82.19289
864.344	114.28033
864.743	111.2728
865.143	105.26745
865.542	69.15974
865.941	142.34608
866.34	79.18854
866.74	83.22177
867.139	83.19778
867.537	105.26527
867.936	97.23176
868.335	95.24009
868.734	72.18349
869.132	53.12329
869.531	129.30787
869.929	72.16367
870.327	76.18155
870.726	102.2523
871.124	90.20906
871.522	80.20294
871.92	105.25672
872.318	90.21869
872.715	106.26008
873.113	91.22033
873.511	92.22773
873.908	28.07103
874.306	59.14666
874.703	91.22629
875.1	94.23888
875.497	108.25642
875.894	46.11291
876.291	100.24345
876.688	85.21811
877.085	86.20521
877.482	70.1748
877.878	46.11094
878.275	103.25948
878.671	144.31498
879.068	71.17094
879.464	126.30053
879.86	69.16278
880.256	82.20142
880.652	79.20009
881.048	87.21437
881.444	104.2453
881.84	72.18245
882.236	78.19534
882.631	62.15201
883.027	114.27306
883.422	71.18104
883.817	79.19766
884.213	61.15636
884.608	89.21687
885.003	95.22733
885.398	51.12774
885.793	62.15544
886.188	60.14901
886.582	149.37589
886.977	111.26064
887.371	84.21135
887.766	23.05753
888.16	112.27663
888.554	127.30993
888.949	77.19259
889.343	90.21845
889.737	39.10417
890.131	76.18992
890.525	106.26861
890.918	86.21521
891.312	109.25814
891.706	87.22698
892.099	95.24001
892.492	97.20746
892.886	98.23786
893.279	66.16778
893.672	60.15259
894.065	72.17972
894.458	88.21998
894.851	121.29286
895.244	82.20838
895.637	120.28546
896.029	104.25195
896.422	94.22798
896.814	59.14655
897.206	52.12389
897.599	145.35266
897.991	43.10419
898.383	94.22042
898.775	104.23239
899.167	44.10281
899.559	74.18666
899.951	110.25653
900.342	122.30651
900.734	6.01502
901.125	104.27054
901.517	54.13254
901.908	109.25864
902.299	84.20419
902.69	70.16466
903.082	93.22357
903.473	43.10317
903.863	71.18059
904.254	69.15968
904.645	108.26596
905.036	78.18797
905.426	125.28214
905.817	108.26233
906.207	71.1686
906.597	63.14707
906.987	107.27475
907.378	50.12652
907.768	88.23127
908.158	59.14371
908.547	50.12922
908.937	81.20683
909.327	89.21468
909.717	140.34996
910.106	82.19589
910.495	88.21831
910.885	93.23387
911.274	47.1176
911.663	135.33765
912.052	101.24703
912.441	85.2149
912.83	106.24077
913.219	113.29269
913.608	80.19498
913.997	60.15021
914.385	98.23214
914.774	102.24608
915.162	101.23846
915.55	93.22331
915.939	74.18605
916.327	105.25958
916.715	54.13757
917.103	106.25834
917.491	131.31945
917.878	137.33158
918.266	65.16819
918.654	85.21589
919.041	48.12538
919.429	52.12275
919.816	120.30051
920.203	76.1835
920.591	76.18764
920.978	103.24986
921.365	77.20116
921.752	113.26627
922.139	84.18118
922.525	74.17698
922.912	71.17256
923.299	80.19781
923.685	56.14598
924.072	66.1518
924.458	54.13372
924.844	71.17507
925.231	101.2328
925.617	27.06897
926.003	81.20595
926.389	48.12116
926.774	97.24384
927.16	108.26547
927.546	43.10991
927.931	74.18391
928.317	57.13118
928.702	75.17666
929.088	54.12767
929.473	80.20251
929.858	70.16863
930.243	90.21442
930.628	72.1745
931.013	95.23356
931.398	139.31412
931.783	76.19926
932.167	77.18735
932.552	108.26782
932.937	123.30128
933.321	53.13294
933.705	80.20063
934.09	89.22341
934.474	88.20756
934.858	69.17841
935.242	70.16164
935.626	99.25127
936.009	45.1198
936.393	74.18752
936.777	84.21385
937.16	84.21731
937.544	80.18745
937.927	56.14196
938.311	108.26086
938.694	87.22868
939.077	75.17872
939.46	86.20983
939.843	108.22253
940.226	92.23429
940.609	91.20724
940.991	67.17006
941.374	30.07361
941.757	90.22049
942.139	81.18081
942.522	82.19266
942.904	68.16294
943.286	97.24445
943.668	81.20872
944.05	41.10117
944.432	47.11607
944.814	112.27276
945.196	36.08797
945.578	26.06209
945.959	54.12648
946.341	89.21695
946.722	84.1959
947.104	77.18313
947.485	85.19647
947.866	52.13098
948.247	50.12616
948.628	107.25829
949.009	74.18872
949.39	78.19322
949.771	82.18957
950.152	80.19527
950.532	-9.02238
950.913	120.28567
951.293	80.21506
951.674	88.21135
952.054	80.19716
952.434	87.21453
952.814	65.15424
953.194	110.28496
953.574	129.31316
953.954	61.14458
954.334	88.21783
954.714	44.10736
955.093	117.28414
955.473	53.13247
955.853	43.11145
956.232	48.1316
956.611	90.21426
956.99	72.18025
957.37	65.16521
957.749	107.25252
958.128	73.18318
958.506	50.12971
958.885	70.17606
959.264	9.02223
959.643	74.16761
960.021	28.06967
960.4	105.23535
960.778	74.1815
961.156	48.12038
961.535	75.17398
961.913	107.24762
962.291	7.01809
962.669	85.21398
963.047	70.17802
963.424	78.19808
963.802	63.15455
964.18	120.29986
964.557	103.23476
964.935	102.23928
965.312	64.16626
965.69	131.32326
966.067	77.18658
966.444	98.23938
966.821	61.15696
967.198	116.27795
967.575	68.16666
967.952	100.23339
968.329	30.07328
968.705	82.17466
969.082	74.18899
969.458	17.04104
969.835	63.153
970.211	67.17144
970.587	71.1761
970.963	108.27426
971.339	68.17701
971.715	109.26927
972.091	63.15478
972.467	124.30514
972.843	24.05984
973.219	104.24721
973.594	64.167
973.97	126.29557
974.345	72.1716
974.721	117.27976
975.096	52.12579
975.471	77.18172
975.846	105.24963
976.221	53.13452
976.596	95.22577
976.971	111.27098
977.346	84.19428
977.72	52.13243
978.095	57.14713
978.469	97.22946
978.844	125.31004
979.218	52.1246
979.593	124.29293
979.967	67.16271
980.341	80.18311
980.715	78.19555
981.089	81.20164
981.463	54.1239
981.837	42.10278
982.21	126.28886
982.584	81.1945
982.957	58.14462
983.331	102.23871
983.704	71.17378
984.078	50.12322
984.451	120.29595
984.824	35.08548
985.197	92.22171
985.57	87.21673
985.943	86.21101
986.316	109.26491
986.688	101.24123
987.061	90.20931
987.434	66.17151
987.806	65.15721
988.179	107.24968
988.551	81.20435
988.923	110.26789
989.295	87.21595
989.667	31.07432
990.039	40.09901
990.411	111.25238
990.783	99.22573
991.155	21.05073
991.527	127.30831
991.898	68.16888
992.27	50.12368
992.641	102.2535
993.012	136.31466
993.384	45.10744
993.755	70.17783
994.126	67.16064
994.497	37.09103
994.868	94.21403
995.239	40.09712
995.61	80.2002
995.98	49.11904
996.351	53.13117
996.722	39.09065
997.092	41.09725
997.462	11.02589
997.833	79.18623
998.203	88.21183
998.573	53.13189
998.943	71.16581
999.313	81.19294
999.683	87.20731
1000.053	122.27666
1000.423	76.18377
1000.792	91.23416
1001.162	64.15709
1001.531	80.19614
1001.901	54.1345
1002.27	115.25362
1002.639	102.2582
1003.009	77.18215
1003.378	80.20345
1003.747	88.20635
1004.116	38.09112
1004.485	86.20411
1004.853	100.25106
1005.222	74.18579
1005.591	83.19581
1005.959	78.17472
1006.328	101.22489
1006.696	86.20599
1007.064	55.13821
1007.433	107.26462
1007.801	97.23601
1008.169	72.18109
1008.537	78.1717
1008.905	50.11647
1009.273	137.33296
1009.64	33.07897
1010.008	94.22215
1010.375	126.30157
1010.743	179.4027
1011.11	62.14635
1011.478	65.1604
1011.845	112.26016
1012.212	79.17773
1012.579	65.1591
1012.946	121.28401
1013.313	137.32056
1013.68	78.17429
1014.047	53.1262
1014.414	32.07583
1014.78	56.13898
1015.147	108.25829
1015.513	61.14664
1015.88	102.25838
1016.246	110.26849
1016.612	101.22881
1016.978	93.22602
1017.344	70.17232
1017.71	97.23442
1018.076	140.3243
1018.442	68.17434
1018.808	75.18657
1019.174	79.19709
1019.539	154.34709
1019.905	69.16209
1020.27	65.15993
1020.636	96.2281
1021.001	102.24171
1021.366	44.10575
1021.731	102.25985
1022.096	21.05323
1022.461	79.18587
1022.826	90.2122
1023.191	92.23957
1023.556	35.08225
1023.92	92.22439
1024.285	92.22271
1024.649	108.26174
1025.014	114.27898
1025.378	53.13314
1025.742	87.21453
1026.107	86.19304
1026.471	116.26722
1026.835	58.14352
1027.199	50.12031
1027.562	94.21654
1027.926	122.29422
1028.29	55.139
1028.654	88.20086
1029.017	141.34062
1029.381	60.143
1029.744	79.20037
1030.107	124.28906
1030.471	106.25099
1030.834	123.27558
1031.197	120.28513
1031.56	60.14125
1031.923	89.22845
1032.286	120.27787
1032.648	110.25996
1033.011	49.11245
1033.374	118.27356
1033.736	51.13401
1034.099	84.20335
1034.461	43.10871
1034.823	81.20047
1035.185	101.25179
1035.548	58.14088
1035.91	104.24644
1036.272	111.24941
1036.634	87.21128
1036.995	92.21438
1037.357	82.19821
1037.719	52.12636
1038.08	104.24425
1038.442	61.14441
1038.803	50.11999
1039.165	39.09857
1039.526	97.23221
1039.887	67.15972
1040.248	7.01738
1040.609	108.2639
1040.97	68.16554
1041.331	63.15905
1041.692	52.12127
1042.053	96.21646
1042.413	96.22159
1042.774	134.32059
1043.134	120.28172
1043.495	92.2294
1043.855	113.27071
1044.215	72.1779
1044.576	57.13604
1044.936	73.16652
1045.296	105.25929
1045.656	80.19512
1046.016	115.27403
1046.375	67.16192
1046.735	76.1713
1047.095	85.19749
1047.454	143.2967
1047.814	95.22629
1048.173	214.49492
1048.533	56.12808
1048.892	48.11519
1049.251	96.23885
1049.61	62.15223
1049.969	135.31278
1050.328	83.1786
1050.687	51.124
1051.046	92.22213
1051.405	77.1905
1051.763	73.16699
1052.122	58.14436
1052.48	68.1661
1052.839	51.1199
1053.197	35.08257
1053.555	141.31539
1053.914	118.28479
1054.272	85.20402
1054.63	57.1391
1054.988	43.10223
1055.345	82.17527
1055.703	107.25458
1056.061	74.18945
1056.419	78.20081
1056.776	104.24949
1057.134	73.16813
1057.491	91.22604
1057.848	83.20527
1058.206	99.23047
1058.563	91.19876
1058.92	114.25925
1059.277	122.29678
1059.634	90.20997
1059.991	51.12209
1060.348	36.08154
1060.704	28.06697
1061.061	124.28371
1061.418	81.19516
1061.774	83.20353
1062.131	72.18954
1062.487	39.09133
1062.843	59.14677
1063.199	85.2099
1063.555	91.209
1063.911	74.18599
1064.267	107.22022
1064.623	70.16927
1064.979	134.31213
1065.335	102.24124
1065.691	72.17174
1066.046	93.20253
1066.402	55.12475
1066.757	124.30862
1067.112	90.2191
1067.468	60.1413
1067.823	70.16754
1068.178	108.25819
1068.533	121.28922
1068.888	113.26658
1069.243	42.10374
1069.598	87.20978
1069.952	38.08572
1070.307	85.2089
1070.662	68.16076
1071.016	35.07861
1071.371	79.17853
1071.725	116.27382
1072.079	69.16524
1072.434	52.12621
1072.788	76.17996
1073.142	108.26263
1073.496	59.13962
1073.85	71.16385
1074.203	84.20235
1074.557	40.10647
1074.911	153.35772
1075.265	50.11615
1075.618	138.33117
1075.971	84.19836
1076.325	42.10681
1076.678	43.0984
1077.031	85.19084
1077.385	86.18788
1077.738	71.15947
1078.091	41.09334
1078.444	97.22296
1078.796	79.19265
1079.149	67.166
1079.502	59.13903
1079.855	88.20353
1080.207	97.23672
1080.56	48.12401
1080.912	90.2173
1081.264	72.17253
1081.617	91.21992
1081.969	55.13851
1082.321	19.04663
1082.673	36.08233
1083.025	57.13494
1083.377	-127.28279
1083.728	108.24889
1084.08	81.20091
1084.432	78.18697
1084.783	106.24545
1085.135	60.14999
1085.486	35.08026
1085.838	86.21022
1086.189	64.15482
1086.54	69.16404
1086.891	57.14385
1087.242	78.18875
1087.593	70.16965
1087.944	89.19965
1088.295	88.19834
1088.646	90.21631
1088.996	62.1489
1089.347	70.17099
1089.698	27.06404
1090.048	99.25474
1090.398	74.17067
1090.749	91.21585
1091.099	67.16782
1091.449	62.15398
1091.799	88.21863
1092.149	11.02699
1092.499	80.19388
1092.849	80.20208
1093.199	115.28461
1093.548	84.20036
1093.898	73.18173
1094.248	77.19675
1094.597	11.02825
1094.947	105.2773
1095.296	65.15993
1095.645	80.20682
1095.994	82.19559
1096.343	78.19512
1096.692	33.08686
1097.041	40.10838
1097.39	51.12779
1097.739	46.11954
1098.088	91.24194
1098.437	62.16239
1098.785	94.25137
1099.134	89.23457
1099.482	76.20797
1099.83	85.22183
1100.179	37.09663
1100.527	63.16688
1100.875	20.05309
1101.223	91.23976
1101.571	71.19538
1101.919	13.03415
1102.267	44.12388
1102.615	5.01607
1102.962	24.07715
1103.31	4.01285
1103.658	8.02578
