Data from N2 R15 sample 11_Subt2__4__15-19-11-018.txt Node

Date: Tue Sep 02 15:19:11 PDT 2025
User: uwsun
Spectrometer: HDX01956
Trigger mode: 0
Integration Time (sec): 5.000000E-1
Scans to average: 1
Nonlinearity correction enabled: true
Boxcar width: 0
Storing dark spectrum: false
XAxis mode: Wavelengths
Number of Pixels in Spectrum: 2068
>>>>>Begin Spectral Data<<<<<
194.03	134.36832
194.578	116.36156
195.127	120.36821
195.676	105.32383
196.225	169.4356
196.773	160.42742
197.321	233.60117
197.87	322.74938
198.418	280.64805
198.966	321.7416
199.513	321.70404
200.061	233.52975
200.609	352.8295
201.156	266.51232
201.704	247.55657
202.251	282.66716
202.798	305.70381
203.345	366.79512
203.892	304.67869
204.438	353.73993
204.985	305.63197
205.532	332.77143
206.078	309.67087
206.624	342.73444
207.17	360.72874
207.716	305.65203
208.262	330.56515
208.808	318.68409
209.354	378.79705
209.899	362.80749
210.445	327.71176
210.99	259.55394
211.535	398.81046
212.08	316.64759
212.625	353.77683
213.17	347.77515
213.715	229.45071
214.259	368.74733
214.804	385.83194
215.348	392.77644
215.892	366.767
216.436	413.82856
216.98	330.64232
217.524	340.70433
218.068	359.79599
218.612	353.78465
219.155	273.5725
219.698	317.668
220.242	338.74835
220.785	307.63668
221.328	316.70081
221.871	303.68916
222.414	363.79916
222.956	259.55753
223.499	317.63009
224.041	318.65964
224.583	381.71988
225.126	324.62943
225.668	281.61009
226.21	283.63664
226.751	279.53981
227.293	303.61603
227.835	287.62471
228.376	320.65667
228.918	337.75686
229.459	248.55437
230	300.63454
230.541	281.57834
231.082	310.66659
231.622	313.63955
232.163	283.6105
232.704	300.66062
233.244	324.71107
233.784	343.745
234.324	248.48248
234.864	255.51655
235.404	302.63933
235.944	313.65841
236.484	347.76555
237.023	291.60944
237.563	356.71669
238.102	354.73235
238.641	346.77148
239.18	272.56297
239.719	308.68648
240.258	350.68741
240.797	302.63765
241.335	384.82036
241.874	289.48496
242.412	329.69389
242.95	262.5549
243.488	316.63382
244.026	339.68073
244.564	355.63071
245.102	292.57647
245.64	348.7367
246.177	375.72661
246.715	370.77504
247.252	311.62912
247.789	424.67646
248.326	327.68392
248.863	290.55693
249.4	360.70972
249.936	305.54608
250.473	331.67203
251.009	248.50272
251.546	321.61513
252.082	314.59982
252.618	322.62256
253.154	356.74044
253.69	309.6076
254.226	296.62032
254.761	324.63244
255.297	296.56461
255.832	322.66376
256.367	329.67468
256.903	349.65909
257.438	380.76958
257.972	285.55565
258.507	241.48573
259.042	298.56318
259.576	272.508
260.111	372.74062
260.645	321.60205
261.179	276.56357
261.713	268.52139
262.247	338.67449
262.781	309.55696
263.315	324.6883
263.849	289.63307
264.382	349.6924
264.915	320.64688
265.449	296.62306
265.982	364.71052
266.515	383.7989
267.048	320.58019
267.58	389.72384
268.113	289.53881
268.646	334.7117
269.178	296.56982
269.71	330.61877
270.243	340.66777
270.775	345.75795
271.307	345.71805
271.838	415.83988
272.37	320.68128
272.902	404.77663
273.433	350.65045
273.965	296.6258
274.496	359.76912
275.027	257.55822
275.558	343.71293
276.089	294.6213
276.62	353.77552
277.15	353.74941
277.681	406.7399
278.211	364.76484
278.741	326.60856
279.272	350.67638
279.802	369.78713
280.332	324.65196
280.861	354.72579
281.391	314.60651
281.921	357.73409
282.45	389.82619
282.98	365.81434
283.509	384.72288
284.038	351.67522
284.567	371.73399
285.096	374.76367
285.625	287.55662
286.153	349.68917
286.682	379.72312
287.21	343.69767
287.739	383.75666
288.267	352.71712
288.795	326.73681
289.323	364.70816
289.851	376.73604
290.378	370.6907
290.906	337.68359
291.433	364.76315
291.961	333.62918
292.488	370.7723
293.015	346.67795
293.542	359.75982
294.069	334.68819
294.596	419.85924
295.122	380.75056
295.649	394.7122
296.175	415.83027
296.702	405.81176
297.228	412.82675
297.754	416.75774
298.28	414.76098
298.806	367.72709
299.332	348.62839
299.857	420.76348
300.383	435.90414
300.908	369.73003
301.433	346.69174
301.958	443.82639
302.483	356.72956
303.008	407.82294
303.533	427.91202
304.058	439.83477
304.582	385.73314
305.107	388.82568
305.631	520.92996
306.155	423.78281
306.679	405.75399
307.203	417.76901
307.727	424.80212
308.251	455.89512
308.775	364.68961
309.298	411.77733
309.822	437.87995
310.345	446.83054
310.868	457.8542
311.391	448.87242
311.914	453.89076
312.437	435.7777
312.96	374.69609
313.482	456.8361
314.005	440.86581
314.527	428.88582
315.049	471.93009
315.571	434.72937
316.093	508.95871
316.615	485.88727
317.137	465.75742
317.659	520.9578
318.18	565.01597
318.702	524.90237
319.223	567.82693
319.744	445.74317
320.265	455.8248
320.786	457.84363
321.307	531.97292
321.828	547.8881
322.348	488.83945
322.869	545.91579
323.389	311.36238
323.909	572.9269
324.43	589.01753
324.95	480.78385
325.47	527.92039
325.989	527.87054
326.509	471.71743
327.029	565.85924
327.548	536.81484
328.067	545.89881
328.587	604.03048
329.106	538.82374
329.625	610.12321
330.144	554.85028
330.662	572.86964
331.181	658.98989
331.7	612.92944
332.218	613.83154
332.736	643.95711
333.255	601.88961
333.773	660.978
334.291	659.05682
334.808	633.85648
335.326	702.94355
335.844	745.00019
336.361	660.02035
336.879	678.92447
337.396	640.92179
337.913	712.93053
338.43	679.86301
338.947	752.00596
339.464	729.8271
339.981	738.96398
340.497	748.04183
341.014	699.95475
341.53	674.81558
342.046	700.9477
342.562	727.00695
343.078	732.91229
343.594	771.9655
344.11	828.00055
344.626	794.04908
345.141	807.89738
345.657	864.94383
346.172	785.95222
346.687	797.87731
347.202	787.82734
347.717	866.97645
348.232	921.0934
348.747	909.92517
349.261	805.7459
349.776	872.9185
350.29	835.93732
350.805	1044.12399
351.319	879.88919
351.833	858.80294
352.347	915.90063
352.861	867.84352
353.374	1030.93374
353.888	934.94498
354.401	911.83238
354.915	927.76483
355.428	989.98009
355.941	915.81204
356.454	1030.83507
356.967	981.87944
357.48	974.82348
357.993	975.9303
358.505	911.85722
359.018	1047.92752
359.53	1079.88553
360.042	1134.76765
360.554	1065.89528
361.066	1019.86007
361.578	1092.69237
362.09	1110.84905
362.602	998.65649
363.113	1106.76358
363.625	1135.70021
364.136	1134.66241
364.647	1072.66628
365.158	1150.72592
365.669	1069.75194
366.18	1210.74585
366.691	1178.60884
367.201	1185.73662
367.712	1118.60863
368.222	1066.59594
368.733	1216.48523
369.243	1237.49633
369.753	1294.58233
370.263	1244.62104
370.773	1292.66888
371.282	1188.54381
371.792	1308.37984
372.301	1302.48597
372.811	1382.63553
373.32	1320.17406
373.829	1233.31502
374.338	1454.13573
374.847	1435.13695
375.356	1437.13469
375.865	1543.82652
376.373	1629.83928
376.882	1750.99706
377.39	1687.86223
377.898	1582.7903
378.407	1732.52526
378.915	1976.30297
379.423	1985.32927
379.93	1967.23408
380.438	2039.15236
380.946	2157.00332
381.453	2153.96328
381.96	2158.91241
382.468	2475.81359
382.975	2723.77264
383.482	2831.90888
383.989	2635.82975
384.495	2720.07956
385.002	2818.65188
385.509	2924.73495
386.015	3209.13306
386.521	3266.21461
387.028	3502.40937
387.534	3455.08775
388.04	3821.81114
388.546	3672.29372
389.051	3664.0106
389.557	4023.09423
390.063	4865.37992
390.568	4813.21878
391.073	4706.78829
391.578	5112.95423
392.084	5040.36021
392.589	4723.32813
393.093	5096.09121
393.598	5658.08686
394.103	6324.61921
394.607	7228.12641
395.112	7834.63624
395.616	8165.42795
396.12	8583.5342
396.624	9224.61645
397.128	10212.00256
397.632	12084.97696
398.136	12749.05136
398.639	11672.20654
399.143	12350.15264
399.646	14435.66507
400.15	15669.5902
400.653	16079.71796
401.156	12869.18908
401.659	5015.15617
402.162	1054.15589
402.664	0
403.167	0
403.67	0
404.172	0
404.674	0
405.176	0
405.678	0
406.18	0
406.682	0
407.184	0
407.686	0
408.187	0
408.688	0
409.19	0
409.691	0
410.192	0
410.693	0
411.194	435.30976
411.694	4082.94878
412.195	8864.71461
412.696	12089.80453
413.196	12760.96929
413.696	12863.67595
414.196	13703.56671
414.696	17261.84252
415.196	21764.24417
415.696	29583.19008
416.196	33513.56219
416.695	23459.22881
417.195	17813.96229
417.694	16770.47904
418.194	16329.79287
418.693	14235.0906
419.192	14019.19048
419.691	13800.13965
420.19	13719.36687
420.688	13800.51337
421.187	13462.99028
421.685	12857.30043
422.184	12039.6428
422.682	10234.35197
423.18	8254.86849
423.678	7285.69749
424.176	6681.05858
424.674	6227.72482
425.172	6267.5515
425.669	5954.59742
426.167	5732.44639
426.664	5014.0458
427.161	4486.57701
427.659	4178.28508
428.156	3740.70015
428.652	3531.30481
429.149	3458.17386
429.646	3449.12489
430.143	3216.71908
430.639	3024.66438
431.135	2761.70003
431.632	2660.73687
432.128	2359.95092
432.624	2158.16803
433.12	2005.12521
433.616	2110.08795
434.111	1863.31977
434.607	1803.45508
435.103	1822.40581
435.598	1877.40686
436.093	1772.73355
436.588	1687.80498
437.083	1609.92662
437.578	1490.06782
438.073	1337.23374
438.568	1400.33769
439.062	1394.11876
439.557	1367.37334
440.051	1234.32617
440.546	1129.35683
441.04	1071.46913
441.534	1077.6059
442.028	1124.55766
442.522	1040.54786
443.015	988.42606
443.509	1025.63123
444.002	971.62083
444.496	942.46646
444.989	936.64307
445.482	884.65377
445.975	891.50996
446.468	902.46721
446.961	877.46978
447.454	904.56779
447.947	810.58555
448.439	855.67925
448.931	753.51882
449.424	795.72539
449.916	732.63711
450.408	723.53307
450.9	653.5869
451.392	677.66369
451.884	730.60273
452.375	648.62942
452.867	742.61873
453.358	637.53753
453.849	636.48628
454.341	626.54477
454.832	611.49469
455.323	567.59125
455.814	618.5857
456.304	639.60863
456.795	629.59906
457.285	643.60497
457.776	666.66039
458.266	556.59607
458.756	597.66241
459.247	494.55101
459.737	468.53203
460.226	496.51511
460.716	455.53793
461.206	468.56537
461.695	504.65502
462.185	447.54132
462.674	493.57481
463.163	540.58624
463.653	512.5192
464.142	422.54644
464.63	498.6578
465.119	392.49027
465.608	375.4741
466.096	446.52049
466.585	501.63365
467.073	430.59122
467.561	408.57117
468.05	462.611
468.538	394.58027
469.026	420.59401
469.513	326.39907
470.001	327.44469
470.489	348.49993
470.976	369.51835
471.463	348.55103
471.951	315.51271
472.438	291.43601
472.925	282.42137
473.412	345.55683
473.899	267.40463
474.385	332.54115
474.872	365.54826
475.359	278.45846
475.845	286.38393
476.331	274.40148
476.817	300.50439
477.303	249.40003
477.789	278.46662
478.275	201.35689
478.761	228.39317
479.247	241.38233
479.732	187.33825
480.218	144.28108
480.703	219.39897
481.188	181.2802
481.673	280.45791
482.158	147.22542
482.643	214.41176
483.128	130.22165
483.612	185.32387
484.097	173.32462
484.581	176.31161
485.066	131.24544
485.55	190.31105
486.034	149.24413
486.518	127.2296
487.002	130.24688
487.486	136.25928
487.969	159.30203
488.453	151.30224
488.936	154.26981
489.42	121.21127
489.903	119.24194
490.386	-346.50672
490.869	134.23205
491.352	153.30283
491.835	140.22945
492.318	93.16899
492.8	144.23587
493.283	90.18728
493.765	87.17535
494.247	89.17203
494.73	96.17298
495.212	105.21065
495.694	59.11366
496.175	-14.02774
496.657	101.19841
497.139	106.15042
497.62	-2.00398
498.102	-7.01474
498.583	60.12691
499.064	56.1036
499.545	18.03475
500.026	51.09565
500.507	54.1056
500.988	30.06359
501.469	-7.015
501.949	27.05725
502.43	-13.02636
502.91	24.0418
503.39	29.06256
503.87	-4.00805
504.35	73.14686
504.83	-15.02822
505.31	14.02912
505.79	-72.15049
506.269	-23.04683
506.749	25.04876
507.228	-17.03448
507.707	11.02095
508.187	57.11726
508.666	-26.05553
509.145	-10.02022
509.623	-40.08216
510.102	15.03155
510.581	32.06724
511.059	-28.06133
511.538	-10.02277
512.016	45.09299
512.494	24.05081
512.972	10.02081
513.45	-55.11136
513.928	-10.0212
514.406	-74.15659
514.884	-8.01806
515.361	41.08515
515.839	14.02774
516.316	-25.05298
516.793	38.08428
517.27	45.09545
517.747	-29.06583
518.224	36.07277
518.701	25.04862
519.178	30.06473
519.654	39.0815
520.131	-5.01092
520.607	48.10455
521.083	-17.03433
521.56	-17.03557
522.036	23.04437
522.512	42.09137
522.987	-22.04611
523.463	-16.03374
523.939	11.02392
524.414	54.10951
524.89	20.04191
525.365	7.014
525.84	-27.05675
526.315	-30.06443
526.79	48.09494
527.265	-33.06728
527.74	-5.01083
528.215	12.02507
528.689	-28.0553
529.164	59.11246
529.638	-30.06938
530.112	-56.1185
530.587	-51.0973
531.061	-45.09725
531.534	-4.00868
532.008	-28.06024
532.482	-3.00616
532.956	-51.11685
533.429	-7.01519
533.903	9.01778
534.376	-27.05359
534.849	-49.10271
535.322	-43.09165
535.795	-22.04841
536.268	-24.05183
536.741	-31.06725
537.213	-58.12177
537.686	-74.16344
538.158	-49.09871
538.631	2.00437
539.103	-70.14203
539.575	3.00561
540.047	3.0059
540.519	-3.00646
540.991	-6.01325
541.463	-35.07671
541.934	-11.02262
542.406	-38.08172
542.877	26.05227
543.348	30.06479
543.82	-29.06447
544.291	13.02726
544.762	27.0569
545.233	-8.01798
545.703	5.00985
546.174	0
546.645	-40.0855
547.115	57.12101
547.585	66.13354
548.056	24.0509
548.526	9.01867
548.996	82.17246
549.466	104.22181
549.935	44.09078
550.405	94.17712
550.875	125.25368
551.344	99.2055
551.814	127.25019
552.283	176.3243
552.752	110.21839
553.221	128.23478
553.69	177.32983
554.159	166.34312
554.628	194.3598
555.096	198.42137
555.565	229.42334
556.033	247.48729
556.502	198.40779
556.97	237.44186
557.438	253.50687
557.906	301.60108
558.374	290.56042
558.842	279.56491
559.31	343.64045
559.777	311.63229
560.245	401.78293
560.712	446.84787
561.18	460.82304
561.647	480.86859
562.114	557.00668
562.581	572.13232
563.048	738.30306
563.514	690.31665
563.981	776.3461
564.448	858.41968
564.914	951.61185
565.381	1023.65604
565.847	1089.79402
566.313	1181.88203
566.779	1265.88687
567.245	1353.06438
567.711	1384.15745
568.176	1510.06696
568.642	1636.52208
569.108	1820.58698
569.573	1970.5267
570.038	2118.14321
570.504	2317.39738
570.969	2408.94123
571.434	2566.31335
571.899	2640.70537
572.363	2903.47411
572.828	3100.47879
573.293	3244.43306
573.757	3377.3949
574.222	3563.14035
574.686	3679.10597
575.15	3881.36083
575.614	4210.98438
576.078	4276.07923
576.542	4342.8822
577.006	4445.75567
577.469	4698.2353
577.933	4656.57583
578.396	4762.91389
578.86	4860.80124
579.323	4956.79386
579.786	4945.24995
580.249	4923.54176
580.712	4969.98548
581.175	4851.09753
581.637	4964.64104
582.1	4900.40369
582.563	4928.27914
583.025	4776.02804
583.487	4744.03427
583.95	4630.393
584.412	4591.33953
584.874	4574.1649
585.336	4349.13913
585.797	4329.62715
586.259	4113.27154
586.721	4045.24239
587.182	4001.29939
587.643	3776.21273
588.105	3680.48778
588.566	3560.92224
589.027	3484.63768
589.488	3386.39666
589.949	3351.75058
590.41	3122.71834
590.87	3121.50192
591.331	3034.24692
591.791	2927.56063
592.252	2833.51471
592.712	2701.79809
593.172	2602.47704
593.632	2589.38217
594.092	2475.43891
594.552	2399.28706
595.011	2355.52819
595.471	2311.43448
595.931	2237.40217
596.39	2096.64093
596.849	2061.52228
597.308	2059.27091
597.768	1923.803
598.227	1930.60288
598.685	1960.45111
599.144	1881.45929
599.603	1757.43796
600.062	1761.03099
600.52	1761.22115
600.978	1735.4252
601.437	1773.33349
601.895	1602.98731
602.353	1658.16406
602.811	1596.11791
603.269	1657.39931
603.727	1566.32775
604.184	1506.08662
604.642	1515.35607
605.099	1508.18421
605.557	1537.36446
606.014	1505.95841
606.471	1495.3784
606.928	1443.88918
607.385	1502.28924
607.842	1524.14286
608.299	1545.22545
608.755	1509.2899
609.212	1519.05074
609.668	1414.95082
610.125	1532.32859
610.581	1536.31004
611.037	1465.13619
611.493	1444.21422
611.949	1438.24236
612.405	1398.72771
612.861	1486.25132
613.316	1380.17476
613.772	1444.13031
614.227	1434.19489
614.683	1449.96074
615.138	1345.09194
615.593	1403.1313
616.048	1414.11464
616.503	1395.30625
616.958	1327.27745
617.412	1378.17158
617.867	1278.89096
618.321	1355.8189
618.776	1342.97447
619.23	1247.02964
619.684	1323.0206
620.138	1290.06799
620.592	1159.02693
621.046	1186.98636
621.5	1149.02091
621.954	1134.83913
622.407	1105.78136
622.861	1048.90103
623.314	1086.81328
623.768	991.7406
624.221	1032.46933
624.674	945.66305
625.127	965.724
625.58	991.71882
626.033	915.56236
626.485	858.61884
626.938	955.75784
627.39	851.56683
627.843	831.53146
628.295	758.42287
628.747	860.62659
629.199	764.40881
629.651	759.40062
630.103	736.38082
630.555	748.28575
631.006	731.41627
631.458	708.38831
631.909	750.42442
632.361	660.29892
632.812	635.2423
633.263	725.29172
633.714	670.20492
634.165	627.30424
634.616	616.25828
635.067	664.2504
635.518	571.18653
635.968	618.05783
636.419	608.1369
636.869	591.2227
637.319	544.10194
637.769	524.02987
638.219	559.17498
638.669	525.10631
639.119	524.13489
639.569	521.11469
640.019	565.14847
640.468	463.93016
640.918	527.12998
641.367	469.94656
641.816	478.96052
642.265	478.99505
642.714	452.94721
643.163	419.87942
643.612	417.91186
644.061	405.78136
644.51	420.87277
644.958	384.7759
645.406	406.89063
645.855	380.86128
646.303	427.91439
646.751	415.86372
647.199	424.88226
647.647	351.75068
648.095	360.76577
648.543	431.80759
648.99	393.86629
649.438	431.93052
649.885	428.97398
650.333	362.652
650.78	372.83459
651.227	348.79069
651.674	362.76801
652.121	377.85292
652.568	343.77949
653.015	352.83433
653.461	349.77608
653.908	382.82775
654.354	373.83116
654.801	348.76374
655.247	368.75483
655.693	352.86128
656.139	352.79135
656.585	348.78396
657.031	309.68001
657.477	291.59676
657.922	325.70561
658.368	321.74985
658.813	350.76748
659.259	294.67072
659.704	277.61599
660.149	279.6207
660.594	311.70077
661.039	307.66454
661.484	323.73286
661.929	285.63746
662.373	271.65413
662.818	257.61261
663.262	265.612
663.707	288.69765
664.151	258.60685
664.595	237.55213
665.039	298.70909
665.483	258.63227
665.927	283.64003
666.371	197.44391
666.814	274.62989
667.258	227.52008
667.701	297.61622
668.145	243.58611
668.588	246.58448
669.031	189.43442
669.474	239.55833
669.917	289.61649
670.36	225.5427
670.803	245.57414
671.245	233.47933
671.688	233.55327
672.13	142.31573
672.573	285.69777
673.015	253.58917
673.457	208.44438
673.899	222.52523
674.341	226.532
674.783	203.47647
675.225	206.49566
675.666	178.42049
676.108	178.3826
676.549	216.50133
676.991	201.43622
677.432	160.31736
677.873	254.57176
678.314	198.46464
678.755	179.42915
679.196	180.40702
679.637	217.51965
680.078	221.50735
680.518	228.52101
680.959	185.43694
681.399	197.47984
681.839	202.48309
682.28	172.41872
682.72	154.35022
683.16	173.425
683.6	218.48892
684.039	159.33064
684.479	185.44724
684.919	131.30087
685.358	188.46994
685.798	189.48681
686.237	232.54931
686.676	255.57789
687.115	223.51399
687.554	155.36566
687.993	220.47878
688.432	199.4486
688.871	146.33014
689.309	171.40434
689.748	205.4242
690.186	181.42799
690.625	177.41058
691.063	175.41524
691.501	177.43258
691.939	127.31557
692.377	114.27815
692.815	150.35654
693.253	184.43769
693.69	157.34407
694.128	107.25956
694.565	186.43853
695.003	132.33354
695.44	161.37583
695.877	117.27366
696.314	199.42396
696.751	149.3396
697.188	150.34333
697.625	241.54283
698.061	78.18868
698.498	203.48427
698.934	181.4313
699.371	153.35814
699.807	172.40348
700.243	138.33105
700.679	141.31942
701.115	166.38879
701.551	147.34531
701.987	155.34799
702.422	137.32458
702.858	147.34881
703.294	151.34152
703.729	156.37934
704.164	150.35928
704.599	131.29254
705.035	136.30439
705.47	107.26073
705.904	131.30508
706.339	170.39332
706.774	151.35221
707.209	121.27957
707.643	145.34698
708.078	120.29224
708.512	81.20354
708.946	161.38364
709.38	137.3242
709.814	110.25299
710.248	142.34491
710.682	119.28335
711.116	88.21102
711.549	120.30904
711.983	80.18679
712.416	116.2752
712.85	143.35481
713.283	116.2752
713.716	163.40635
714.149	185.4366
714.582	134.30128
715.015	169.41947
715.448	153.38308
715.881	181.39365
716.313	72.17062
716.746	99.23428
717.178	95.22959
717.61	127.32131
718.043	130.32332
718.475	104.25299
718.907	129.32602
719.339	86.19669
719.77	66.15809
720.202	134.33751
720.634	85.20797
721.065	120.2848
721.497	153.37267
721.928	61.15125
722.359	94.22747
722.79	89.21428
723.221	119.29935
723.652	183.46643
724.083	116.26252
724.514	126.28991
724.945	109.25704
725.375	102.23759
725.806	151.37479
726.236	156.39657
726.666	112.26591
727.096	130.31837
727.526	85.21673
727.956	92.21066
728.386	144.35291
728.816	78.19836
729.246	65.15939
729.675	57.14169
730.105	148.36231
730.534	144.33582
730.964	150.37686
731.393	187.45905
731.822	137.34821
732.251	107.27167
732.68	155.36353
733.109	62.15426
733.537	79.19214
733.966	68.17023
734.395	86.20024
734.823	133.30032
735.251	59.14371
735.68	152.37831
736.108	126.31793
736.536	139.32702
736.964	81.18961
737.392	107.26801
737.82	133.31851
738.247	132.31557
738.675	113.27071
739.102	63.15865
739.53	108.27475
739.957	87.22441
740.384	122.30088
740.811	126.31849
741.238	73.17954
741.665	88.20539
742.092	98.23518
742.519	48.12008
742.945	55.13362
743.372	104.25781
743.798	79.20399
744.225	91.21751
744.651	88.22165
745.077	98.24489
745.503	113.27586
745.929	124.29712
746.355	115.28617
746.781	101.25079
747.207	77.18194
747.632	59.14511
748.058	86.21553
748.483	106.24496
748.908	74.18505
749.334	60.14879
749.759	95.22499
750.184	84.2012
750.609	100.24635
751.033	130.30698
751.458	137.30695
751.883	102.25322
752.307	48.11449
752.732	28.07085
753.156	61.15196
753.58	135.31972
754.005	119.30139
754.429	114.26805
754.853	105.26015
755.277	78.18598
755.7	131.32361
756.124	73.18219
756.548	68.16257
756.971	131.31873
757.394	117.30053
757.818	77.19889
758.241	94.23879
758.664	87.22027
759.087	63.1422
759.51	88.21974
759.933	31.07568
760.356	103.26393
760.778	105.25824
761.201	135.32699
761.623	110.26709
762.046	159.37437
762.468	145.34645
762.89	106.26181
763.312	136.33046
763.734	99.2388
764.156	88.21799
764.578	104.24005
765	112.27307
765.421	41.1051
765.843	121.31578
766.264	136.32712
766.686	122.30541
767.107	68.16598
767.528	48.12216
767.949	67.17132
768.37	72.17777
768.791	104.25186
769.212	85.21383
769.632	12.02848
770.053	69.18235
770.473	67.16412
770.894	126.31417
771.314	111.26521
771.734	72.16903
772.154	94.24141
772.575	181.41386
772.994	52.1195
773.414	158.37584
773.834	66.16594
774.254	86.21108
774.673	105.25567
775.093	66.16421
775.512	72.17816
775.931	65.16562
776.351	107.2651
776.77	44.1086
777.189	95.22629
777.607	53.13624
778.026	87.21697
778.445	39.09846
778.864	105.26867
779.282	32.07796
779.701	58.14708
780.119	75.18995
780.537	41.10321
780.955	107.27148
781.373	83.20564
781.791	64.1449
782.209	100.23064
782.627	87.22899
783.045	66.15283
783.462	66.16921
783.88	75.19426
784.297	101.25344
784.715	46.11884
785.132	83.20127
785.549	88.22006
785.966	78.19646
786.383	75.18494
786.8	98.22755
787.217	45.10764
787.633	67.1677
788.05	124.29304
788.466	76.17996
788.883	45.11547
789.299	82.19776
789.715	99.24016
790.131	83.20647
790.547	49.12318
790.963	65.16193
791.379	71.17982
791.795	92.21007
792.21	135.31291
792.626	131.30832
793.041	82.20246
793.457	102.25128
793.872	56.1325
794.287	63.15093
794.702	69.17052
795.117	71.17668
795.532	47.11845
795.947	117.28008
796.362	136.3219
796.776	152.35196
797.191	41.10114
797.605	51.12046
798.02	83.20195
798.434	93.20708
798.848	93.22848
799.262	55.13702
799.676	123.29792
800.09	102.24998
800.504	86.20858
800.918	64.1489
801.331	92.24055
801.745	92.21109
802.158	89.22204
802.572	101.24418
802.985	79.19114
803.398	72.17206
803.811	94.24099
804.224	89.22115
804.637	44.10555
805.05	107.24693
805.462	87.2135
805.875	48.12491
806.288	82.19761
806.7	89.22316
807.112	53.12363
807.525	56.13877
807.937	62.15364
808.349	60.15075
808.761	58.1432
809.173	100.24135
809.584	133.32541
809.996	81.19811
810.408	41.10634
810.819	130.30269
811.231	37.09613
811.642	10.02414
812.053	164.38336
812.464	222.51301
812.875	157.39522
813.286	105.26867
813.697	139.32141
814.108	105.25519
814.519	115.25458
814.929	88.22387
815.34	111.26744
815.75	93.23538
816.16	94.23345
816.571	104.26858
816.981	110.25814
817.391	63.15248
817.801	84.20816
818.211	105.24896
818.62	56.13526
819.03	68.16684
819.44	122.31583
819.849	91.22851
820.259	116.29458
820.668	59.14543
821.077	72.17875
821.486	74.17826
821.895	108.26518
822.304	97.25574
822.713	111.26054
823.122	90.22384
823.531	83.19642
823.939	56.13684
824.348	161.38497
824.756	86.21483
825.164	105.26262
825.573	76.19047
825.981	100.24672
826.389	91.22777
826.797	77.19259
827.205	83.19009
827.612	86.21163
828.02	58.13654
828.428	108.27309
828.835	83.2178
829.243	82.19506
829.65	71.17643
830.057	107.2579
830.464	89.21606
830.871	96.2288
831.278	85.20488
831.685	64.14313
832.092	101.24583
832.499	87.18978
832.905	78.1971
833.312	87.19789
833.718	132.32506
834.124	46.10567
834.531	90.22596
834.937	64.16431
835.343	86.20686
835.749	119.27539
836.155	80.20889
836.561	92.22523
836.966	120.2906
837.372	86.21809
837.777	55.13727
838.183	136.29836
838.588	73.181
838.993	92.22297
839.399	86.20944
839.804	63.15357
840.209	73.18548
840.613	65.14473
841.018	72.18206
841.423	107.27235
841.828	48.12172
842.232	148.3611
842.637	101.2367
843.041	59.15129
843.445	80.20006
843.849	109.26759
844.253	99.23383
844.657	72.18096
845.061	68.15427
845.465	63.1522
845.869	88.20361
846.272	51.12446
846.676	119.28487
847.079	62.15762
847.483	128.31556
847.886	120.28896
848.289	47.12567
848.692	103.25892
849.095	133.31522
849.498	170.42264
849.901	86.19645
850.304	52.12455
850.707	79.2008
851.109	100.25133
851.512	51.12557
851.914	39.09864
852.316	78.19667
852.718	37.09587
853.121	79.19293
853.523	68.15877
853.925	43.11245
854.326	50.12522
854.728	112.28533
855.13	47.12144
855.531	101.23947
855.933	111.264
856.334	55.13722
856.736	59.13225
857.137	69.16019
857.538	95.23726
857.939	42.10408
858.34	113.27267
858.741	109.28242
859.142	77.1844
859.542	81.21284
859.943	111.2732
860.343	78.19244
860.744	89.21598
861.144	82.19918
861.544	44.10603
861.945	32.08193
862.345	54.1322
862.745	79.19559
863.145	140.32957
863.544	49.12402
863.944	86.20214
864.344	98.24169
864.743	110.27039
865.143	68.17434
865.542	40.09314
865.941	59.14602
866.34	121.28645
866.74	73.19537
867.139	70.16722
867.537	77.19551
867.936	82.19649
868.335	89.22517
868.734	94.23863
869.132	76.17598
869.531	96.23056
869.929	58.13222
870.327	81.19331
870.726	127.31269
871.124	111.25677
871.522	87.22043
871.92	112.27347
872.318	70.17073
872.715	112.27449
873.113	36.08807
873.511	46.11482
873.908	14.0356
874.306	69.17121
874.703	62.15499
875.1	101.25635
875.497	85.2027
875.894	63.15415
876.291	108.26253
876.688	69.17755
877.085	132.31219
877.482	80.1994
877.878	72.17279
878.275	74.18739
878.671	110.24234
879.068	109.26053
879.464	92.22087
879.86	55.13011
880.256	97.2376
880.652	76.19259
881.048	92.22648
881.444	110.25915
881.84	64.16241
882.236	97.24208
882.631	131.31706
883.027	123.29411
883.422	108.27358
883.817	56.1407
884.213	61.15636
884.608	81.19767
885.003	88.21086
885.398	60.15004
885.793	87.21713
886.188	16.04005
886.582	123.31174
886.977	54.12821
887.371	92.23114
887.766	10.02507
888.16	122.30077
888.554	144.3503
888.949	124.3075
889.343	95.23037
889.737	55.14652
890.131	46.11557
890.525	89.22621
890.918	74.18559
891.312	138.32499
891.706	57.14947
892.099	104.26232
892.492	93.19908
892.886	63.15392
893.279	107.27004
893.672	84.21271
894.065	101.25079
894.458	93.23227
894.851	125.30231
895.244	59.15055
895.637	108.2575
896.029	100.24244
896.422	109.26362
896.814	52.12933
897.206	55.13096
897.599	164.39745
897.991	88.21143
898.383	75.17652
898.775	99.22145
899.167	8.01883
899.559	94.23625
899.951	77.18074
900.342	122.30651
900.734	-3.00752
901.125	108.28075
901.517	63.15437
901.908	104.24702
902.299	51.12474
902.69	73.17162
903.082	91.21884
903.473	67.16002
903.863	89.22565
904.254	104.239
904.645	104.2563
905.036	43.10431
905.426	87.19789
905.817	92.22414
906.207	47.11213
906.597	109.25214
906.987	83.21402
907.378	78.19639
907.768	100.26227
908.158	51.12441
908.547	57.14713
908.937	92.23446
909.327	116.27838
909.717	77.19467
910.106	50.12017
910.495	139.34161
910.885	116.2905
911.274	97.2405
911.663	99.24922
912.052	103.25183
912.441	58.14734
912.83	96.2185
913.219	101.26215
913.608	115.27844
913.997	66.16505
914.385	122.28764
914.774	98.23661
915.162	72.17095
915.55	103.24685
915.939	59.14874
916.327	99.24501
916.715	38.09708
917.103	81.19833
917.491	84.20663
917.878	87.21255
918.266	83.21409
918.654	100.25332
919.041	55.14349
919.429	48.11339
919.816	109.27351
920.203	41.09965
920.591	35.08707
920.978	89.21647
921.365	79.20632
921.752	96.22696
922.139	103.22125
922.525	45.10822
922.912	43.10505
923.299	82.20268
923.685	61.15887
924.072	55.12678
924.458	90.22139
924.844	46.11395
925.231	60.13943
925.617	42.107
926.003	69.17581
926.389	65.16357
926.774	66.16683
927.16	95.23408
927.546	56.14282
927.931	92.2279
928.317	72.1652
928.702	84.19751
929.088	62.14635
929.473	56.14236
929.858	51.1233
930.243	74.17684
930.628	58.14094
931.013	119.29127
931.398	122.27666
931.783	94.2457
932.167	61.14886
932.552	74.18465
932.937	116.28451
933.321	53.13294
933.705	72.18083
934.09	117.29221
934.474	81.19131
934.858	41.10653
935.242	42.09752
935.626	43.11022
936.009	82.21696
936.393	65.16498
936.777	53.13567
937.16	70.18153
937.544	74.17359
937.927	60.15199
938.311	117.28211
938.694	113.29571
939.077	81.1928
939.46	92.22422
939.843	93.19227
940.226	92.23429
940.609	72.1646
940.991	100.25233
941.374	54.1319
941.757	78.19152
942.139	54.12121
942.522	98.22953
942.904	103.24516
943.286	70.17726
943.668	96.24672
944.05	60.14754
944.432	65.15998
944.814	63.15483
945.196	63.15317
945.578	30.07158
945.959	107.24801
946.341	82.20015
946.722	64.14984
947.104	90.21352
947.485	67.15542
947.866	65.16334
948.247	63.1586
948.628	91.22033
949.009	57.1458
949.39	87.21516
949.771	113.25963
950.152	67.16393
950.532	39.09613
950.913	100.23898
951.293	45.12167
951.674	85.20426
952.054	46.11408
952.434	58.14378
952.814	133.31145
953.194	82.21346
953.574	151.36505
953.954	72.17029
954.334	74.18365
954.714	44.10736
955.093	135.32674
955.473	48.12008
955.853	57.14739
956.232	77.21014
956.611	88.20958
956.99	22.05557
957.37	82.20779
957.749	65.15465
958.128	77.19308
958.506	78.20137
958.885	57.1437
959.264	64.15645
959.643	124.27799
960.021	87.21413
960.4	106.23754
960.778	108.26322
961.156	53.1328
961.535	120.27588
961.913	100.23174
962.291	74.18905
962.669	50.12666
963.047	35.08956
963.424	86.21809
963.802	87.21247
964.18	102.25571
964.557	100.22806
964.935	76.17919
965.312	74.1919
965.69	109.27006
966.067	105.25308
966.444	87.21295
966.821	76.19505
967.198	114.27327
967.575	113.27463
967.952	101.23568
968.329	68.16493
968.705	93.19762
969.082	68.17385
969.458	7.01693
969.835	105.25299
970.211	78.1992
970.587	71.1761
970.963	120.30409
971.339	85.22062
971.715	72.17907
972.091	99.2416
972.467	90.22286
972.843	60.14863
973.219	151.35567
973.594	68.17732
973.97	108.25424
974.345	87.20676
974.721	119.28444
975.096	76.18301
975.471	119.27855
975.846	107.25429
976.221	56.14206
976.596	43.10321
976.971	84.2061
977.346	101.2328
977.72	82.20772
978.095	83.21327
978.469	135.317
978.844	158.38952
979.218	86.20474
979.593	111.26288
979.967	116.27912
980.341	85.19436
980.715	109.27174
981.089	69.17214
981.463	116.26284
981.837	70.17041
982.21	131.30002
982.584	89.21338
982.957	93.23042
983.331	95.22264
983.704	76.18585
984.078	107.26092
984.451	111.27421
984.824	67.16265
985.197	107.25712
985.57	62.15516
985.943	113.27586
986.316	117.28393
986.688	111.26461
987.061	116.26839
987.434	43.11218
987.806	124.29656
988.179	49.11564
988.551	98.24648
988.923	73.17901
989.295	126.31052
989.667	-4.00965
990.039	83.20383
990.411	41.09454
990.783	105.23913
991.155	37.08912
991.527	143.3461
991.898	85.21044
992.27	28.06954
992.641	97.24129
993.012	120.27853
993.384	97.22928
993.755	83.21037
994.126	87.20779
994.497	75.18323
994.868	73.16692
995.239	87.20938
995.61	69.17302
995.98	84.20274
996.351	64.15807
996.722	41.09526
997.092	55.13011
997.462	34.07967
997.833	107.25086
998.203	66.15953
998.573	23.05755
998.943	93.21624
999.313	73.17415
999.683	70.16735
1000.053	69.15816
1000.423	111.26663
1000.792	106.27204
1001.162	80.19578
1001.531	122.29678
1001.901	93.23
1002.27	73.16241
1002.639	62.15806
1003.009	78.18448
1003.378	87.22097
1003.747	96.22476
1004.116	76.18093
1004.485	79.18775
1004.853	113.28304
1005.222	72.18083
1005.591	86.20277
1005.959	52.11711
1006.328	24.05429
1006.696	62.14919
1007.064	67.168
1007.433	111.27431
1007.801	116.28123
1008.169	74.18605
1008.537	149.32309
1008.905	54.12569
1009.273	95.2327
1009.64	70.16633
1010.008	80.18957
1010.375	123.29456
1010.743	171.38533
1011.11	75.17659
1011.478	56.13842
1011.845	79.18471
1012.212	86.1932
1012.579	62.15184
1012.946	91.21485
1013.313	103.24261
1013.68	94.20935
1014.047	53.1262
1014.414	80.18781
1014.78	66.16349
1015.147	102.24422
1015.513	75.17982
1015.88	135.33997
1016.246	131.31849
1016.612	106.23989
1016.978	109.26411
1017.344	111.27118
1017.71	90.21779
1018.076	121.28135
1018.442	101.25744
1018.808	109.26946
1019.174	87.21673
1019.539	155.34928
1019.905	61.14352
1020.27	63.15506
1020.636	135.31836
1021.001	114.26951
1021.366	58.13903
1021.731	82.20964
1022.096	38.09602
1022.461	94.22051
1022.826	68.16101
1023.191	73.19071
1023.556	71.16568
1023.92	116.28166
1024.285	97.2346
1024.649	101.2451
1025.014	75.18487
1025.378	72.18025
1025.742	76.18778
1026.107	92.20625
1026.471	81.1879
1026.835	74.18257
1027.199	26.06285
1027.562	90.20749
1027.926	94.2279
1028.29	105.263
1028.654	101.22992
1029.017	91.22191
1029.381	66.15712
1029.744	71.18034
1030.107	103.2411
1030.471	67.15984
1030.834	94.21187
1031.197	122.28977
1031.56	89.20833
1031.923	36.09326
1032.286	123.28464
1032.648	98.23214
1033.011	66.15095
1033.374	115.26676
1033.736	77.20144
1034.099	82.19858
1034.461	66.16618
1034.823	59.14661
1035.185	111.27622
1035.548	78.18875
1035.91	92.21851
1036.272	120.26914
1036.634	105.25414
1036.995	97.22581
1037.357	37.09019
1037.719	71.17191
1038.08	143.33329
1038.442	97.22804
1038.803	94.22369
1039.165	80.20071
1039.526	88.21102
1039.887	54.12905
1040.248	57.14019
1040.609	75.18439
1040.97	97.23486
1041.331	100.25079
1041.692	10.02351
1042.053	80.18098
1042.413	102.23516
1042.774	102.24553
1043.134	134.31373
1043.495	86.21467
1043.855	98.23545
1044.215	84.20709
1044.576	41.09815
1044.936	113.25568
1045.296	94.2326
1045.656	115.27865
1046.016	134.31814
1046.375	109.26133
1046.735	80.18016
1047.095	90.2089
1047.454	107.2238
1047.814	81.19346
1048.173	126.2965
1048.533	89.2022
1048.892	23.05546
1049.251	71.17745
1049.61	57.14009
1049.969	59.13876
1050.328	64.13828
1050.687	67.16241
1051.046	115.27645
1051.405	58.14399
1051.763	37.08525
1052.122	48.11969
1052.48	64.15645
1052.839	65.15239
1053.197	78.18248
1053.555	152.33922
1053.914	87.2112
1054.272	118.28145
1054.63	33.08089
1054.988	70.16556
1055.345	88.18785
1055.703	91.21718
1056.061	80.2046
1056.419	47.12165
1056.776	99.23772
1057.134	93.21334
1057.491	71.177
1057.848	73.18087
1058.206	88.2053
1058.563	57.12539
1058.92	101.23029
1059.277	119.28965
1059.634	73.17088
1059.991	123.2904
1060.348	50.11293
1060.704	28.06697
1061.061	114.26135
1061.418	69.16663
1061.774	59.14532
1062.131	41.1085
1062.487	56.1307
1062.843	110.27109
1063.199	70.17334
1063.555	60.13866
1063.911	52.13121
1064.267	67.13914
1064.623	49.11896
1064.979	103.24139
1065.335	119.28052
1065.691	63.15053
1066.046	100.21745
1066.402	36.08197
1066.757	104.25979
1067.112	100.24299
1067.468	16.038
1067.823	117.27752
1068.178	79.18991
1068.533	120.28688
1068.888	78.18526
1069.243	87.2131
1069.598	33.08038
1069.952	21.04754
1070.307	45.11141
1070.662	56.1327
1071.016	33.07415
1071.371	62.1406
1071.725	115.27151
1072.079	50.12017
1072.434	73.17649
1072.788	77.18229
1073.142	90.21959
1073.496	80.18855
1073.85	101.23169
1074.203	95.22837
1074.557	68.18016
1074.911	101.23855
1075.265	97.22323
1075.618	94.22747
1075.971	105.24694
1076.325	59.14959
1076.678	52.11878
1077.031	40.09064
1077.385	105.22846
1077.738	24.05443
1078.091	26.05937
1078.444	110.25218
1078.796	67.16375
1079.149	77.19043
1079.502	77.18081
1079.855	59.13724
1080.207	79.19344
1080.56	57.14703
1080.912	82.19828
1081.264	75.17961
1081.617	55.13382
1081.969	60.15096
1082.321	99.23934
1082.673	33.07552
1083.025	87.20477
1083.377	58.12419
1083.728	91.21042
1084.08	34.08506
1084.432	50.12049
1084.783	94.21818
1085.135	56.14009
1085.486	23.05287
1085.838	66.16194
1086.189	81.19531
1086.54	115.27098
1086.891	17.04321
1087.242	66.16007
1087.593	110.26458
1087.944	103.23039
1088.295	110.24681
1088.646	92.22104
1088.996	20.04842
1089.347	83.20225
1089.698	31.07347
1090.048	52.1349
1090.398	104.23843
1090.749	78.18548
1091.099	20.05052
1091.449	64.15889
1091.799	65.16216
1092.149	22.05388
1092.499	83.20104
1092.849	82.20706
1093.199	88.21887
1093.548	92.2191
1093.898	46.11507
1094.248	89.22693
1094.597	27.06914
1094.947	86.22785
1095.296	67.16479
1095.645	98.25256
1095.994	70.16735
1096.343	92.22956
1096.692	48.12602
1097.041	30.08141
1097.39	72.17972
1097.739	62.16067
1098.088	92.24456
1098.437	52.13643
1098.785	92.2461
1099.134	117.30691
1099.482	65.17819
1099.83	73.19091
1100.179	63.1638
1100.527	92.24252
1100.875	53.13992
1101.223	66.17463
1101.571	85.23338
1101.919	21.05509
1102.267	33.09306
1102.615	17.05457
1102.962	22.07073
1103.31	17.05455
1103.658	24.07718
