Data from N2 R15 sample 9_Subt2__3__15-24-54-511.txt Node

Date: Tue Sep 02 15:24:54 PDT 2025
User: uwsun
Spectrometer: HDX01956
Trigger mode: 0
Integration Time (sec): 5.000000E-1
Scans to average: 1
Nonlinearity correction enabled: true
Boxcar width: 0
Storing dark spectrum: false
XAxis mode: Wavelengths
Number of Pixels in Spectrum: 2068
>>>>>Begin Spectral Data<<<<<
194.03	153.41927
194.578	152.4716
195.127	158.48238
195.676	160.4899
196.225	202.51767
196.773	201.53329
197.321	277.7092
197.87	411.93965
198.418	409.92229
198.966	364.83373
199.513	326.71426
200.061	353.78302
200.609	383.8971
201.156	361.67941
201.704	346.76382
202.251	342.79968
202.798	375.85323
203.345	412.88627
203.892	396.86723
204.438	405.83916
204.985	351.7198
205.532	389.89366
206.078	378.8086
206.624	391.83079
207.17	417.83311
207.716	398.83369
208.262	439.72992
208.808	353.75365
209.354	386.81249
209.899	498.07757
210.445	398.85322
210.99	313.6616
211.535	418.84731
212.08	424.84768
212.625	438.94664
213.17	407.89789
213.715	362.69018
214.259	409.82281
214.804	416.89295
215.348	501.96706
215.892	454.9329
216.436	416.834
216.98	426.81024
217.524	408.83233
218.068	409.89739
218.612	449.97809
219.155	454.91397
219.698	394.81619
220.242	399.87214
220.785	373.76215
221.328	376.82344
221.871	381.85284
222.414	380.8336
222.956	348.73477
223.499	365.71738
224.041	403.82008
224.583	425.79438
225.126	350.67573
225.668	328.70499
226.21	385.84795
226.751	349.66394
227.293	415.82219
227.835	341.73372
228.376	399.80418
228.918	404.89482
229.459	341.74759
230	395.81808
230.541	408.8157
231.082	368.78142
231.622	345.69982
232.163	366.77548
232.704	371.80478
233.244	325.71312
233.784	383.82478
234.324	326.62244
234.864	334.66434
235.404	358.74858
235.944	384.79512
236.484	425.92229
237.023	356.73484
237.563	357.71853
238.102	404.82642
238.641	364.80859
239.18	352.71549
239.719	382.83834
240.258	400.77635
240.797	415.8545
241.335	360.7731
241.874	404.65672
242.412	366.76565
242.95	330.68851
243.488	407.79917
244.026	352.70472
244.564	413.72274
245.102	358.69582
245.64	444.92017
246.177	391.75471
246.715	379.79232
247.252	429.84436
247.789	474.74548
248.326	307.64493
248.863	443.81942
249.4	410.7988
249.936	394.6893
250.473	394.78844
251.009	362.71467
251.546	365.69201
252.082	451.83297
252.618	399.75722
253.154	404.83129
253.69	396.76271
254.226	385.79095
254.761	391.75109
255.297	298.56815
255.832	370.75447
256.367	367.74614
256.903	394.73588
257.438	387.7825
257.972	400.75856
258.507	350.68773
259.042	404.74372
259.576	373.67923
260.111	430.84454
260.645	440.80106
261.179	419.82779
261.713	380.71957
262.247	432.84326
262.781	375.66452
263.315	390.81657
263.849	413.88097
264.382	431.83872
264.915	410.81172
265.449	363.75282
265.982	455.86899
266.515	411.85197
267.048	428.75472
267.58	430.79199
268.113	358.65605
268.646	381.80355
269.178	371.70133
269.71	420.77007
270.243	400.77449
270.775	441.94925
271.307	436.88905
271.838	460.92136
272.37	430.89355
272.902	454.86224
273.433	385.70927
273.965	455.92842
274.496	408.86483
275.027	409.85957
275.558	427.8709
276.089	370.76887
276.62	469.00325
277.15	453.94071
277.681	416.7562
278.211	460.94608
278.741	413.75437
279.272	395.75512
279.802	450.94302
280.332	408.80511
280.861	493.97901
281.391	391.74131
281.921	430.86964
282.45	453.94868
282.98	460.00411
283.509	447.82848
284.038	404.76727
284.567	455.88247
285.096	450.903
285.625	413.77691
286.153	438.84686
286.682	449.84215
287.21	459.90894
287.739	450.87507
288.267	414.83153
288.795	451.99327
289.323	426.81655
289.851	450.86548
290.378	430.7908
290.906	413.8232
291.433	439.90513
291.961	345.64994
292.488	461.9428
293.015	440.84298
293.542	460.95205
294.069	455.91198
294.596	525.04907
295.122	447.86903
295.649	496.8733
296.175	497.97545
296.702	479.94367
297.228	523.02089
297.754	527.93301
298.28	481.86929
298.806	459.88981
299.332	478.83455
299.857	484.86555
300.383	554.11916
300.908	439.85428
301.433	509.9792
301.958	506.9292
302.483	451.90438
303.008	494.97894
303.533	506.06036
304.058	499.93503
304.582	450.8434
305.107	418.88371
305.631	555.98363
306.155	496.90121
306.679	476.87058
307.203	533.95445
307.727	518.95747
308.251	491.95776
308.775	512.93502
309.298	470.87611
309.822	550.077
310.345	589.05651
310.868	526.96643
311.391	594.11505
311.914	498.96888
312.437	597.02152
312.96	540.96375
313.482	537.96459
314.005	575.09392
314.527	556.11601
315.049	591.1326
315.571	511.84082
316.093	585.08166
316.615	612.08238
317.137	574.90658
317.659	611.09831
318.18	622.10239
318.702	606.01947
319.223	612.88029
319.744	581.93434
320.265	640.10438
320.786	538.97308
321.307	582.05116
321.828	672.05177
322.348	657.07817
322.869	609.0042
323.389	743.73068
323.909	700.09255
324.43	734.21998
324.95	711.08562
325.47	619.05358
325.989	674.06715
326.509	668.95861
327.029	686.00493
327.548	636.93835
328.067	718.1266
328.587	692.15315
329.106	711.03242
329.625	755.34043
330.144	728.05949
330.662	774.10589
331.181	774.12324
331.7	727.06555
332.218	825.04195
332.736	856.19226
333.255	826.13923
333.773	761.09235
334.291	839.27805
334.808	753.97932
335.326	842.07945
335.844	822.07611
336.361	867.26078
336.879	872.11432
337.396	913.20446
337.913	820.03236
338.43	931.08202
338.947	894.14105
339.464	892.9511
339.981	854.0717
340.497	960.24869
341.014	890.14061
341.53	902.00345
342.046	939.17298
342.562	951.22477
343.078	1002.133
343.594	1013.16341
344.11	980.12135
344.626	950.1914
345.141	994.02749
345.657	1078.08199
346.172	1055.15887
346.687	1025.03107
347.202	1083.00746
347.717	1028.08912
348.232	1072.20478
348.747	1015.98923
349.261	1014.85537
349.776	1077.04368
350.29	1032.07335
350.805	1184.207
351.319	1155.03964
351.833	1094.92144
352.347	1102.00143
352.861	1125.97861
353.374	1211.01156
353.888	1145.06052
354.401	1153.94385
354.915	1116.83964
355.428	1196.08563
355.941	1255.94865
356.454	1312.92388
356.967	1182.96672
357.48	1233.91989
357.993	1251.05691
358.505	1232.00335
359.018	1332.03318
359.53	1325.96379
360.042	1387.81255
360.554	1327.98295
361.066	1235.93992
361.578	1264.72354
362.09	1314.905
362.602	1332.71707
363.113	1341.8114
363.625	1401.7333
364.136	1405.68865
364.647	1287.70156
365.158	1473.76276
365.669	1469.8219
366.18	1444.7715
366.691	1482.61515
367.201	1447.76633
367.712	1449.62612
368.222	1481.61935
368.733	1519.46103
369.243	1550.46923
369.753	1560.56798
370.263	1616.60968
370.773	1593.6654
371.282	1544.52903
371.792	1556.33753
372.301	1551.45883
372.811	1668.61363
373.32	1592.09565
373.829	1617.23547
374.338	1782.02072
374.847	1790.01261
375.356	1798.00738
375.865	1869.67095
376.373	1989.66451
376.882	2128.8234
377.39	2054.68389
377.898	2039.56028
378.407	2205.2613
378.915	2350.09186
379.423	2373.10994
379.93	2412.98655
380.438	2466.92089
380.946	2753.72502
381.453	2755.70282
381.96	2770.69471
382.468	2889.7645
382.975	3326.81606
383.482	3487.13602
383.989	3416.95433
384.495	3549.52083
385.002	3515.34316
385.509	3831.81741
386.015	3924.57234
386.521	4361.71829
387.028	4388.88177
387.534	4619.8795
388.04	4761.0612
388.546	4653.26122
389.051	4827.58781
389.557	5244.18328
390.063	6070.94421
390.568	6213.97324
391.073	6292.11867
391.578	6514.61879
392.084	6569.32731
392.589	6286.47449
393.093	6538.72286
393.598	7512.07995
394.103	8472.59391
394.607	9342.7854
395.112	10010.01126
395.616	10537.6641
396.12	10965.13739
396.624	12466.77071
397.128	13388.73967
397.632	15606.26995
398.136	16831.72047
398.639	16150.81457
399.143	16646.69545
399.646	19730.2099
400.15	21149.81561
400.653	19142.41853
401.156	13572.14488
401.659	5169.95759
402.162	1054.15589
402.664	0
403.167	0
403.67	0
404.172	0
404.674	0
405.176	0
405.678	0
406.18	0
406.682	0
407.184	0
407.686	0
408.187	0
408.688	0
409.19	0
409.691	0
410.192	0
410.693	0
411.194	435.30976
411.694	4082.94878
412.195	8864.71461
412.696	12089.80453
413.196	12760.96929
413.696	12863.67595
414.196	13703.56671
414.696	17261.84252
415.196	21764.24417
415.696	29583.19008
416.196	36460.31858
416.695	28136.39979
417.195	22077.36729
417.694	20721.65573
418.194	19927.37243
418.693	18047.24736
419.192	17606.48891
419.691	17137.09915
420.19	16888.19702
420.688	16786.10911
421.187	16332.2207
421.685	15998.86797
422.184	14615.21521
422.682	12644.28352
423.18	10382.96921
423.678	9053.22168
424.176	8247.06596
424.674	7693.90995
425.172	7635.51828
425.669	7252.17932
426.167	6894.84342
426.664	6167.65181
427.161	5564.42618
427.659	5102.55838
428.156	4782.90826
428.652	4573.54755
429.149	4351.05757
429.646	4148.72567
430.143	4005.0156
430.639	3690.73869
431.135	3519.5733
431.632	3307.57908
432.128	3087.63785
432.624	2825.81663
433.12	2569.83135
433.616	2546.85955
434.111	2350.04588
434.607	2287.1822
435.103	2384.08883
435.598	2376.12495
436.093	2203.50647
436.588	2140.57498
437.083	2022.73492
437.578	1965.87383
438.073	1631.15503
438.568	1760.24723
439.062	1582.05883
439.557	1664.31141
440.051	1625.24687
440.546	1406.32584
441.04	1422.46152
441.534	1381.63258
442.028	1384.56625
442.522	1324.56954
443.015	1341.42485
443.509	1307.67468
444.002	1276.67697
444.496	1187.48912
444.989	1262.71765
445.482	1238.75349
445.975	1133.55205
446.468	1168.49851
446.961	1195.50943
447.454	1076.60893
447.947	1039.66222
448.439	1064.76037
448.931	1015.60113
449.424	1061.85685
449.916	998.76488
450.408	934.61423
450.9	925.73196
451.392	923.81319
451.884	921.69213
452.375	912.78887
452.867	965.72119
453.358	882.65993
453.849	877.58993
454.341	881.67839
454.832	874.61881
455.323	804.75995
455.814	845.72372
456.304	844.7342
456.795	858.73812
457.285	833.72011
457.776	793.74519
458.266	720.72272
458.756	749.78333
459.247	698.71876
459.737	650.68894
460.226	707.67262
460.716	661.7235
461.206	666.74815
461.695	675.82711
462.185	663.74163
462.674	603.67479
463.163	657.68106
463.653	639.61449
464.142	581.71211
464.63	657.82225
465.119	542.64267
465.608	558.66121
466.096	614.67265
466.585	547.68089
467.073	565.74321
467.561	554.73977
468.05	586.7432
468.538	612.84192
469.026	531.72484
469.513	475.5509
470.001	525.66822
470.489	466.64494
470.976	519.69457
471.463	498.75476
471.951	543.82771
472.438	439.6286
472.925	374.54337
473.412	484.75065
473.899	422.61012
474.385	410.65374
474.872	377.56425
475.359	397.63318
475.845	390.50565
476.331	455.62991
476.817	354.58643
477.303	370.57408
477.789	325.53852
478.275	314.54121
478.761	323.54292
479.247	352.5407
479.732	280.49447
480.218	319.59682
480.703	271.4872
481.188	302.45099
481.673	270.44279
482.158	228.34128
482.643	304.57227
483.128	247.40789
483.612	278.4748
484.097	270.49452
484.581	248.43086
485.066	247.44953
485.55	173.28457
486.034	189.30622
486.518	206.36492
487.002	210.39103
487.486	198.3718
487.969	162.3075
488.453	197.39011
488.936	232.39815
489.42	180.3094
489.903	235.46514
490.386	-244.34608
490.869	193.32899
491.352	230.44703
491.835	129.21207
492.318	172.30627
492.8	198.31944
493.283	162.33169
493.765	155.30751
494.247	155.29486
494.73	153.27166
495.212	145.28821
495.694	127.24065
496.175	84.16264
496.657	196.3764
497.139	147.20591
497.62	42.08264
498.102	91.18746
498.583	112.2342
499.064	95.17403
499.545	103.19479
500.026	88.16353
500.507	120.23101
500.988	145.29964
501.469	49.10376
501.949	168.34523
502.43	47.09399
502.91	107.18229
503.39	124.26205
503.87	85.16753
504.35	105.20968
504.83	79.14516
505.31	85.174
505.79	87.17543
506.269	114.22485
506.749	46.08928
507.228	113.2224
507.707	231.41635
508.187	176.35236
508.666	115.23808
509.145	127.24878
509.623	102.20279
510.102	106.21851
510.581	175.35612
511.059	108.22974
511.538	196.42764
512.016	202.40273
512.494	225.45536
512.972	224.44389
513.45	157.30245
513.928	255.50922
514.406	193.38451
514.884	247.5285
515.361	288.5651
515.839	294.54446
516.316	344.6702
516.793	347.71996
517.27	390.76489
517.747	410.84743
518.224	400.74116
518.701	411.72606
519.178	348.69961
519.654	426.81379
520.131	369.742
520.607	398.80234
521.083	411.74844
521.56	349.67105
522.036	409.71611
522.512	383.77264
522.987	365.69945
523.463	367.70872
523.939	324.65767
524.414	346.65487
524.89	314.61525
525.365	292.54562
525.84	238.47097
526.315	243.49112
526.79	277.51849
527.265	253.48224
527.74	235.48301
528.215	199.3985
528.689	166.31294
529.164	229.41846
529.638	200.44135
530.112	149.30114
530.587	142.25823
531.061	126.26231
531.534	203.42119
532.008	143.29631
532.482	126.2512
532.956	126.27841
533.429	133.2799
533.903	202.381
534.376	139.2652
534.849	165.32949
535.322	128.26267
535.795	116.24783
536.268	90.18962
536.741	144.30072
537.213	143.28689
537.686	38.08196
538.158	37.07306
538.631	81.17422
539.103	60.11812
539.575	117.2125
540.047	144.274
540.519	97.20423
540.991	88.19046
541.463	89.18994
541.934	70.14131
542.406	48.10131
542.877	67.13342
543.348	79.16882
543.82	105.22691
544.291	97.19964
544.762	44.09238
545.233	57.12639
545.703	54.10515
546.174	81.16558
546.645	39.08193
547.115	49.10421
547.585	152.30149
548.056	61.12832
548.526	62.12712
548.996	129.26849
549.466	164.34522
549.935	103.2097
550.405	134.25001
550.875	146.29487
551.344	106.21969
551.814	122.24063
552.283	141.26209
552.752	123.24345
553.221	156.28412
553.69	216.3986
554.159	231.47051
554.628	199.36861
555.096	169.36193
555.565	225.41636
556.033	268.52611
556.502	173.35831
556.97	199.37451
557.438	176.35889
557.906	197.4029
558.374	226.44345
558.842	210.43192
559.31	197.38115
559.777	122.25873
560.245	224.45573
560.712	269.53343
561.18	222.4216
561.647	284.53962
562.114	252.49166
562.581	329.68932
563.048	354.68837
563.514	374.76922
563.981	305.59577
564.448	427.7914
564.914	445.85813
565.381	518.95843
565.847	563.06168
566.313	619.14352
566.779	646.14265
567.245	627.1618
567.711	653.23357
568.176	700.20947
568.642	807.54515
569.108	828.54231
569.573	907.58437
570.038	1076.55355
570.504	1023.61242
570.969	1174.05488
571.434	1199.74264
571.899	1222.97041
572.363	1350.98153
572.828	1478.11139
573.293	1504.12767
573.757	1599.1998
574.222	1605.09992
574.686	1659.14301
575.15	1746.39868
575.614	1809.31442
576.078	1852.41487
576.542	1966.36965
577.006	2020.346
577.469	2059.76068
577.933	2042.31393
578.396	2087.59082
578.86	2164.58026
579.323	2122.59682
579.786	2138.22611
580.249	2059.39559
580.712	2118.7259
581.175	2073.73509
581.637	2075.48171
582.1	2116.31091
582.563	2061.22161
583.025	1991.62578
583.487	2021.97665
583.95	1867.12539
584.412	1955.10758
584.874	1838.55491
585.336	1781.43284
585.797	1781.12758
586.259	1779.43473
586.721	1687.33919
587.182	1647.33074
587.643	1577.17463
588.105	1498.23624
588.566	1556.94668
589.027	1423.2079
589.488	1335.99214
589.949	1382.20408
590.41	1258.54693
590.87	1275.94882
591.331	1271.80849
591.791	1214.89817
592.252	1126.77814
592.712	1151.93641
593.172	1066.68873
593.632	1091.67086
594.092	1051.65581
594.552	1044.57733
595.011	981.62259
595.471	954.55042
595.931	1019.61717
596.39	925.6371
596.849	920.5806
597.308	971.51868
597.768	848.64293
598.227	903.62625
598.685	974.63451
599.144	854.50134
599.603	800.44956
600.062	827.28514
600.52	824.37604
600.978	906.59881
601.437	863.48043
601.895	845.32547
602.353	913.48895
602.811	899.46768
603.269	853.54071
603.727	823.497
604.184	876.45755
604.642	858.58803
605.099	894.53908
605.557	885.6206
606.014	919.43036
606.471	918.69931
606.928	924.41853
607.385	975.71599
607.842	1036.67952
608.299	1122.82569
608.755	1072.83576
609.212	1085.67043
609.668	1028.59198
610.125	1182.98071
610.581	1207.99152
611.037	1179.86816
611.493	1212.98386
611.949	1093.87335
612.405	1158.54938
612.861	1196.96623
613.316	1152.93337
613.772	1163.86057
614.227	1171.92972
614.683	1206.75882
615.138	1110.84341
615.593	1173.90216
616.048	1208.9171
616.503	1223.11593
616.958	1175.09689
617.412	1152.93233
617.867	1082.69461
618.321	1181.67414
618.776	1151.79028
619.23	1105.86979
619.684	1169.86598
620.138	1130.89322
620.592	1045.88264
621.046	1119.90786
621.5	997.82341
621.954	1063.75779
622.407	1030.69504
622.861	963.78411
623.314	988.69327
623.768	963.70364
624.221	913.34767
624.674	857.54243
625.127	865.5847
625.58	838.51163
626.033	851.47772
626.485	829.57511
626.938	920.7081
627.39	783.46592
627.843	762.42828
628.295	750.41059
628.747	714.39811
629.199	730.35743
629.651	695.3028
630.103	682.29632
630.555	699.21703
631.006	691.35141
631.458	673.33045
631.909	712.36461
632.361	710.38109
632.812	605.1919
633.263	696.24922
633.714	657.18542
634.165	679.39626
634.616	567.17088
635.067	700.3067
635.518	614.26384
635.968	674.13664
636.419	620.15595
636.869	615.26561
637.319	579.1636
637.769	575.11675
638.219	661.35858
638.669	591.22761
639.119	619.31385
639.569	601.26395
640.019	661.31463
640.468	628.21205
640.918	645.34828
641.367	638.2361
641.816	648.24953
642.265	631.26711
642.714	634.27344
643.163	698.37318
643.612	591.24289
644.061	596.09573
644.51	667.30809
644.958	663.25249
645.406	679.4019
645.855	706.49191
646.303	643.31085
646.751	643.26867
647.199	696.35895
647.647	699.38064
648.095	638.27323
648.543	740.28011
648.99	688.42082
649.438	705.43091
649.885	754.60039
650.333	756.22424
650.78	665.39996
651.227	652.3879
651.674	704.38045
652.121	686.45213
652.568	659.39947
653.015	677.50132
653.461	668.38502
653.908	660.34342
654.354	695.44331
654.801	594.23413
655.247	653.25165
655.693	646.49145
656.139	650.36984
656.585	634.34252
657.031	566.17639
657.477	590.1266
657.922	601.22621
658.368	622.36465
658.813	715.44529
659.259	592.26712
659.704	562.17377
660.149	522.1007
660.594	606.28091
661.039	535.09974
661.484	593.26954
661.929	554.16829
662.373	507.16674
662.818	527.18868
663.262	536.16883
663.707	486.13102
664.151	578.27226
664.595	479.06043
665.039	494.12886
665.483	503.17409
665.927	553.1797
666.371	474.00544
666.814	468.03195
667.258	456.99649
667.701	555.08348
668.145	472.08672
668.588	474.07439
669.031	472.02122
669.474	468.04185
669.917	548.10144
670.36	473.08492
670.803	526.16249
671.245	472.91873
671.688	460.04218
672.13	430.89872
672.573	460.08721
673.015	471.04746
673.457	455.91999
673.899	456.02766
674.341	456.02305
674.783	396.89426
675.225	436.0009
675.666	439.98426
676.108	432.87769
676.549	432.95961
676.991	433.89316
677.432	457.84363
677.873	421.91516
678.314	432.96717
678.755	433.98755
679.196	416.89526
679.637	438.00229
680.078	446.97753
680.518	438.95838
680.959	388.88012
681.399	397.93061
681.839	404.92867
682.28	402.93624
682.72	387.83841
683.16	366.86684
683.6	419.90075
684.039	374.74044
684.479	364.85011
684.919	323.7132
685.358	394.94788
685.798	358.89476
686.237	399.91406
686.676	391.86152
687.115	334.75274
687.554	388.87369
687.993	400.83714
688.432	385.83479
688.871	349.75642
689.309	315.72398
689.748	386.76635
690.186	372.84692
690.625	342.7673
691.063	309.71417
691.501	342.81001
691.939	330.78944
692.377	308.72415
692.815	288.6663
693.253	371.85061
693.69	344.72409
694.128	292.68359
694.565	310.71321
695.003	310.75826
695.44	307.696
695.877	295.66581
696.314	331.68492
696.751	296.65455
697.188	281.62618
697.625	370.81133
698.061	289.67114
698.498	336.78103
698.934	331.76592
699.371	243.55875
699.807	279.64074
700.243	285.66446
700.679	304.66578
701.115	329.74586
701.551	338.76424
701.987	279.61039
702.422	293.67316
702.858	281.64947
703.294	322.70281
703.729	332.78056
704.164	280.65396
704.599	319.68461
705.035	279.606
705.47	289.68014
705.904	289.652
706.339	349.77865
706.774	296.67065
707.209	243.54778
707.643	296.6878
708.078	272.6435
708.512	261.63451
708.946	263.61439
709.38	267.61589
709.814	252.56308
710.248	307.7225
710.682	275.63509
711.116	227.52988
711.549	253.63639
711.983	248.55985
712.416	270.62144
712.85	254.61738
713.283	237.54909
713.716	311.75434
714.149	270.62665
714.582	241.52993
715.015	282.68543
715.448	274.67097
715.881	297.62998
716.313	232.53271
716.746	246.56553
717.178	232.54612
717.61	228.56641
718.043	254.61738
718.475	289.67856
718.907	296.72564
719.339	182.40819
719.77	193.45105
720.202	238.58823
720.634	245.58154
721.065	223.5187
721.497	241.57733
721.928	195.47159
722.359	189.44915
722.79	217.50972
723.221	221.54572
723.652	262.65843
724.083	166.37184
724.514	235.52889
724.945	212.48991
725.375	180.41282
725.806	177.43724
726.236	252.62967
726.666	234.54246
727.096	205.49503
727.526	182.45609
727.956	206.46087
728.386	227.54773
728.816	180.44946
729.246	171.41106
729.675	172.41856
730.105	178.43332
730.534	188.43462
730.964	229.56713
731.393	243.59032
731.822	194.48809
732.251	190.47528
732.68	231.5337
733.109	197.47805
733.537	209.49591
733.966	184.45094
734.395	186.42453
734.823	204.45395
735.251	124.29837
735.68	240.58772
736.108	189.4715
736.536	190.44256
736.964	153.35308
737.392	171.42335
737.82	214.50454
738.247	182.43093
738.675	198.46664
739.102	148.36701
739.53	153.38612
739.957	144.36775
740.384	194.47209
740.811	224.55627
741.238	153.37072
741.665	143.33014
742.092	166.3932
742.519	130.32038
742.945	126.30203
743.372	135.33276
743.798	163.41473
744.225	146.3453
744.651	181.44827
745.077	108.26939
745.503	121.29495
745.929	172.40836
746.355	208.5088
746.781	146.35954
747.207	123.28803
747.632	121.29418
748.058	171.42195
748.483	173.39446
748.908	136.33627
749.334	133.32541
749.759	124.29202
750.184	133.31559
750.609	171.41574
751.033	162.38017
751.458	137.30695
751.883	143.35235
752.307	154.35984
752.732	128.31812
753.156	138.33896
753.58	142.33584
754.005	136.3434
754.429	145.33888
754.853	116.28682
755.277	151.35498
755.7	144.35488
756.124	112.27754
756.548	84.2002
756.971	172.41527
757.394	124.31812
757.818	125.32018
758.241	162.40656
758.664	118.2971
759.087	55.12434
759.51	127.31488
759.933	102.24571
760.356	101.25889
760.778	125.30629
761.201	174.41835
761.623	146.3521
762.046	199.46489
762.468	149.35573
762.89	131.32207
763.312	134.32573
763.734	121.29065
764.156	104.25687
764.578	169.38503
765	105.25633
765.421	71.18104
765.843	132.34384
766.264	139.33414
766.686	134.33472
767.107	110.26639
767.528	53.13476
767.949	86.21917
768.37	122.29844
768.791	153.3671
769.212	49.12406
769.632	49.11546
770.053	88.23182
770.473	93.2267
770.894	140.34819
771.314	110.26287
771.734	97.22661
772.154	124.31679
772.575	136.31379
772.994	73.16706
773.414	138.32953
773.834	79.19816
774.254	132.32123
774.673	128.31033
775.093	96.23755
775.512	112.2751
775.931	103.26068
776.351	114.28208
776.77	99.24187
777.189	82.19581
777.607	102.25994
778.026	54.13548
778.445	57.14344
778.864	113.28874
779.282	66.15977
779.701	129.32299
780.119	78.19745
780.537	96.23928
780.955	112.28392
781.373	135.33129
781.791	72.16275
782.209	138.31586
782.627	78.20561
783.045	130.29719
783.462	94.23981
783.88	83.21469
784.297	99.24851
784.715	90.23074
785.132	94.22747
785.549	89.22252
785.966	93.23361
786.383	90.22131
786.8	117.27065
787.217	83.1971
787.633	53.13299
788.05	166.3891
788.466	125.29317
788.883	51.13073
789.299	82.19776
789.715	111.26866
790.131	94.23336
790.547	113.28079
790.963	112.27663
791.379	71.17982
791.795	113.25693
792.21	95.22194
792.626	91.21585
793.041	114.27981
793.457	110.27059
793.872	92.21616
794.287	52.12484
794.702	88.21671
795.117	118.29112
795.532	76.19053
795.947	156.37066
796.362	131.31036
796.776	187.42999
797.191	102.24878
797.605	38.08998
798.02	105.25442
798.434	125.27649
798.848	111.27179
799.262	82.20328
799.676	130.31446
800.09	107.262
800.504	119.28683
800.918	67.15579
801.331	102.26624
801.745	61.14083
802.158	76.19005
802.572	127.30553
802.985	129.30916
803.398	135.31873
803.811	173.43737
804.224	114.28198
804.637	76.18121
805.05	94.21749
805.462	116.28313
805.875	56.14553
806.288	89.21419
806.7	88.2207
807.112	115.26497
807.525	106.26027
807.937	92.22673
808.349	117.29094
808.761	93.22814
809.173	100.24135
809.584	95.23408
809.996	75.18364
810.408	93.23905
810.819	85.19967
811.231	69.17829
811.642	78.18583
812.053	188.43738
812.464	207.47978
812.875	211.52599
813.286	133.33864
813.697	157.36173
814.108	135.32625
814.519	88.19591
814.929	105.26631
815.34	105.25327
815.75	122.30717
816.16	112.27724
816.571	117.30148
816.981	104.24435
817.391	107.25683
817.801	90.22278
818.211	111.26288
818.62	57.13765
819.03	106.25825
819.44	125.32343
819.849	100.2507
820.259	99.25216
820.668	59.14543
821.077	50.12463
821.486	97.23265
821.895	129.31551
822.304	111.29196
822.713	89.2098
823.122	100.24826
823.531	77.18243
823.939	84.20419
824.348	115.2774
824.756	104.25894
825.164	107.26752
825.573	81.20281
825.981	117.28776
826.389	97.24252
826.797	107.26617
827.205	75.17205
827.612	140.34108
828.02	69.16209
828.428	102.2582
828.835	69.18149
829.243	92.21843
829.65	55.13707
830.057	91.22
830.464	80.19454
830.871	124.29395
831.278	100.24035
831.685	110.24366
832.092	118.2863
832.499	52.11427
832.905	94.23685
833.312	89.20236
833.718	117.28892
834.124	88.20045
834.531	136.33861
834.937	88.22498
835.343	114.27275
835.749	119.27539
836.155	78.20374
836.561	55.13557
836.966	114.27639
837.372	86.21809
837.777	83.20609
838.183	157.34291
838.588	101.24914
838.993	106.25622
839.399	29.07138
839.804	37.09063
840.209	79.20051
840.613	93.20588
841.018	110.27627
841.423	90.22977
841.828	78.19674
842.232	105.25824
842.637	89.20907
843.041	53.13605
843.445	58.14562
843.849	95.23382
844.253	97.22919
844.657	94.23532
845.061	82.1855
845.465	44.10668
845.869	86.19906
846.272	30.0735
846.676	87.20954
847.079	69.17519
847.483	138.33959
847.886	152.3638
848.289	82.21797
848.692	72.182
849.095	99.23618
849.498	141.3524
849.901	111.25228
850.304	92.21868
850.707	105.26565
851.109	131.32741
851.512	89.2176
851.914	71.17854
852.316	104.26101
852.718	44.11387
853.121	96.23371
853.523	92.21379
853.925	44.11505
854.326	49.12273
854.728	76.19484
855.13	71.18269
855.531	77.18342
855.933	67.1607
856.334	46.11495
856.736	37.08331
857.137	46.10728
857.538	78.19541
857.939	57.14086
858.34	100.2419
858.741	64.16711
859.142	68.16313
859.542	73.19208
859.943	117.28765
860.343	72.17783
860.744	145.34817
861.144	108.26105
861.544	16.03876
861.945	50.1276
862.345	118.28544
862.745	105.25872
863.145	129.30433
863.544	66.16654
863.944	84.19751
864.344	120.29475
864.743	85.2099
865.143	71.18193
865.542	61.14145
865.941	103.25286
866.34	123.29107
866.74	91.24282
867.139	60.14361
867.537	97.24541
867.936	92.22003
868.335	86.2177
868.734	89.22613
869.132	86.19874
869.531	102.24469
869.929	46.10512
870.327	104.24711
870.726	142.34866
871.124	110.25451
871.522	95.24035
871.92	120.29257
872.318	128.30881
872.715	112.27449
873.113	73.17735
873.511	81.20091
873.908	26.06598
874.306	66.16385
874.703	82.20424
875.1	140.35287
875.497	42.10099
875.894	59.14447
876.291	107.26015
876.688	78.20039
877.085	111.26359
877.482	64.15999
877.878	63.15145
878.275	92.23222
878.671	114.25094
879.068	76.1828
879.464	94.22558
879.86	68.16045
880.256	79.19415
880.652	64.16253
881.048	92.22648
881.444	104.2453
881.84	85.2149
882.236	74.18545
882.631	114.2768
883.027	130.31043
883.422	52.13304
883.817	50.12576
884.213	112.28452
884.608	48.11786
885.003	69.16594
885.398	70.17473
885.793	62.15544
886.188	56.13918
886.582	131.33155
886.977	119.27899
887.371	107.2681
887.766	30.07494
888.16	85.21098
888.554	98.24045
888.949	99.24663
889.343	108.26125
889.737	51.13595
890.131	42.1056
890.525	92.23371
890.918	104.25941
891.312	127.29972
891.706	64.16763
892.099	103.25985
892.492	58.1251
892.886	62.1515
893.279	88.22284
893.672	81.20522
894.065	89.22147
894.458	77.19287
894.851	121.29286
895.244	75.19083
895.637	118.28081
896.029	103.24958
896.422	98.23751
896.814	56.13918
897.206	17.04077
897.599	149.36212
897.991	59.14253
898.383	64.15096
898.775	78.17523
899.167	39.09122
899.559	94.23625
899.951	114.26565
900.342	115.28929
900.734	20.04992
901.125	89.23211
901.517	86.20983
901.908	126.298
902.299	47.11504
902.69	94.22008
903.082	97.233
903.473	46.11031
903.863	67.17054
904.254	42.09772
904.645	121.29726
905.036	39.09468
905.426	112.25347
905.817	105.25519
906.207	5.01202
906.597	88.20442
906.987	111.28482
907.378	64.16155
907.768	99.25969
908.158	97.2346
908.547	63.16245
908.937	69.17656
909.327	67.16229
909.717	83.20962
910.106	27.06518
910.495	74.18405
910.885	107.26839
911.274	59.1473
911.663	101.25417
912.052	146.3541
912.441	77.19495
912.83	84.19165
913.219	97.25194
913.608	94.2285
913.997	13.03282
914.385	116.27382
914.774	90.21763
915.162	61.14514
915.55	104.2492
915.939	90.22563
916.327	72.17907
916.715	60.15269
917.103	110.26789
917.491	72.17751
917.878	109.26521
918.266	91.2344
918.654	80.20337
919.041	52.13573
919.429	86.20166
919.816	88.22165
920.203	65.15726
920.591	114.2795
920.978	105.25461
921.365	79.20632
921.752	47.11217
922.139	100.21495
922.525	32.07715
922.912	77.18693
923.299	70.1734
923.685	43.11234
924.072	133.30179
924.458	42.10423
924.844	69.1702
925.231	74.17149
925.617	46.11711
926.003	74.18839
926.389	31.07849
926.774	52.13177
927.16	84.2074
927.546	71.18059
927.931	90.22303
928.317	105.23932
928.702	99.2321
929.088	71.1673
929.473	30.07662
929.858	61.1472
930.243	70.16741
930.628	62.15054
931.013	83.20451
931.398	126.2855
931.783	73.19149
932.167	62.15128
932.552	85.21167
932.937	95.23391
933.321	53.13294
933.705	99.24743
934.09	140.34819
934.474	86.20293
934.858	62.16051
935.242	77.17756
935.626	59.15081
936.009	35.09333
936.393	65.16498
936.777	49.12551
937.16	62.16101
937.544	102.23797
937.927	68.17201
938.311	107.25849
938.694	120.31365
939.077	68.16226
939.46	84.20503
939.843	92.19025
940.226	78.19913
940.609	80.1826
940.991	82.20757
941.374	66.16086
941.757	81.19878
942.139	94.20926
942.522	100.23413
942.904	73.17475
943.286	69.17476
943.668	89.22901
944.05	94.22969
944.432	53.13074
944.814	121.29418
945.196	38.09282
945.578	77.18208
945.959	83.1933
946.341	125.30265
946.722	58.13595
947.104	76.18079
947.485	89.20555
947.866	82.20543
948.247	69.17351
948.628	66.16056
949.009	43.11026
949.39	120.29497
949.771	110.25289
950.152	65.1591
950.532	11.02725
950.913	87.20843
951.293	37.10017
951.674	97.23256
952.054	60.14841
952.434	95.23391
952.814	63.14955
953.194	121.31286
953.574	80.19599
953.954	77.18194
954.334	62.1542
954.714	74.17954
955.093	98.23884
955.473	26.0653
955.853	79.20349
956.232	86.23436
956.611	80.19082
956.99	66.1654
957.37	87.22027
957.749	73.17342
958.128	89.22268
958.506	50.12971
958.885	61.15367
959.264	59.14436
959.643	126.28236
960.021	47.11653
960.4	97.21778
960.778	86.21046
961.156	84.2093
961.535	103.2376
961.913	71.16548
962.291	60.15366
962.669	77.19412
963.047	84.21309
963.424	76.19307
963.802	86.21007
964.18	132.32913
964.557	88.20118
964.935	114.2668
965.312	59.1534
965.69	98.24329
966.067	87.21041
966.444	107.26092
966.821	108.27562
967.198	95.22855
967.575	77.1884
967.952	131.30388
968.329	84.20312
968.705	143.30055
969.082	72.18394
969.458	79.18847
969.835	118.28361
970.211	89.22685
970.587	113.27812
970.963	86.21925
971.339	90.2334
971.715	57.14215
972.091	89.2176
972.467	100.24717
972.843	97.23866
973.219	115.27277
973.594	51.13337
973.97	129.30243
974.345	63.15041
974.721	116.27742
975.096	66.15923
975.471	110.25794
975.846	84.20051
976.221	50.12697
976.596	68.16244
976.971	103.25183
977.346	98.22602
977.72	83.21022
978.095	82.21074
978.469	116.27339
978.844	87.21728
979.218	55.13172
979.593	84.19997
979.967	81.1962
980.341	66.15149
980.715	79.19802
981.089	85.21144
981.463	79.18035
981.837	65.15839
982.21	101.23271
982.584	72.17318
982.957	71.17662
983.331	98.22953
983.704	95.23149
984.078	81.19848
984.451	137.33682
984.824	43.10486
985.197	74.17894
985.57	109.27045
985.943	128.31161
986.316	129.31234
986.688	88.2107
987.061	137.31565
987.434	114.2938
987.806	53.12847
988.179	56.13198
988.551	77.1944
988.923	106.25834
989.295	85.21106
989.667	25.06001
990.039	46.11374
990.411	88.20102
990.783	110.25026
991.155	58.13914
991.527	118.28694
991.898	36.08993
992.27	55.13592
992.641	83.20699
993.012	126.29211
993.384	64.15224
993.755	81.20537
994.126	23.05561
994.497	79.19286
994.868	94.21403
995.239	80.19279
995.61	55.13826
995.98	51.12386
996.351	26.06467
996.722	78.1799
997.092	37.08783
997.462	63.14678
997.833	112.26232
998.203	65.15715
998.573	66.16385
998.943	51.11957
999.313	90.21401
999.683	45.1081
1000.053	83.18971
1000.423	72.17423
1000.792	55.14241
1001.162	85.20782
1001.531	91.22265
1001.901	93.23
1002.27	82.1821
1002.639	80.2033
1003.009	114.26774
1003.378	88.22347
1003.747	114.26596
1004.116	68.16213
1004.485	79.18775
1004.853	64.16172
1005.222	58.14604
1005.591	88.2074
1005.959	88.19672
1006.328	46.10359
1006.696	58.13967
1007.064	110.27368
1007.433	69.17183
1007.801	122.29545
1008.169	40.10118
1008.537	121.26395
1008.905	63.14637
1009.273	115.28064
1009.64	53.12634
1010.008	51.12153
1010.375	160.38046
1010.743	126.28654
1011.11	59.13935
1011.478	71.17501
1011.845	150.34581
1012.212	60.13551
1012.579	65.1591
1012.946	110.25875
1013.313	115.27025
1013.68	108.23983
1014.047	69.16379
1014.414	62.14607
1014.78	63.15615
1015.147	86.20654
1015.513	71.17036
1015.88	99.25092
1016.246	121.29473
1016.612	88.19988
1016.978	61.14914
1017.344	73.17961
1017.71	150.35887
1018.076	133.30852
1018.442	113.28742
1018.808	51.12742
1019.174	118.2923
1019.539	141.31864
1019.905	36.08511
1020.27	75.18419
1020.636	100.23742
1021.001	121.28567
1021.366	35.08427
1021.731	72.1844
1022.096	69.17339
1022.461	81.1905
1022.826	71.16802
1023.191	87.22674
1023.556	85.1978
1023.92	99.24115
1024.285	111.26775
1024.649	102.24748
1025.014	125.30527
1025.378	88.21966
1025.742	77.19022
1026.107	82.18421
1026.471	127.29191
1026.835	104.25517
1027.199	51.12269
1027.562	139.31732
1027.926	76.18488
1028.29	63.15899
1028.654	102.23215
1029.017	96.23388
1029.381	71.16886
1029.744	86.21785
1030.107	130.30269
1030.471	98.23241
1030.834	138.30823
1031.197	125.29672
1031.56	74.17373
1031.923	40.10355
1032.286	144.33185
1032.648	90.21352
1033.011	97.22046
1033.374	110.25542
1033.736	55.14442
1034.099	118.28382
1034.461	53.13376
1034.823	103.25389
1035.185	97.242
1035.548	107.25751
1035.91	100.23715
1036.272	119.26695
1036.634	94.22798
1036.995	88.20522
1037.357	43.1047
1037.719	62.15037
1038.08	110.25804
1038.442	68.16076
1038.803	60.14372
1039.165	76.19081
1039.526	74.17793
1039.887	87.2066
1040.248	88.21519
1040.609	91.22307
1040.97	78.18953
1041.331	80.20136
1041.692	40.0935
1042.053	98.22088
1042.413	146.33364
1042.774	147.35082
1043.134	93.21948
1043.495	120.29769
1043.855	55.13322
1044.215	41.10188
1044.576	61.14547
1044.936	107.2424
1045.296	83.20579
1045.656	94.22867
1046.016	89.21314
1046.375	76.18336
1046.735	45.10207
1047.095	97.22483
1047.454	113.23603
1047.814	103.24497
1048.173	142.33311
1048.533	93.21111
1048.892	48.11519
1049.251	73.18239
1049.61	73.17888
1049.969	75.17584
1050.328	55.11906
1050.687	90.21722
1051.046	86.20788
1051.405	71.17585
1051.763	25.05774
1052.122	47.11721
1052.48	82.19978
1052.839	51.1199
1053.197	65.15245
1053.555	137.3067
1053.914	134.32243
1054.272	100.23934
1054.63	-8.01976
1054.988	62.14686
1055.345	119.25231
1055.703	78.18662
1056.061	83.21216
1056.419	57.14728
1056.776	103.24713
1057.134	95.21784
1057.491	109.26986
1057.848	47.117
1058.206	61.14307
1058.563	85.18589
1058.92	129.29247
1059.277	75.18405
1059.634	99.23056
1059.991	88.20917
1060.348	49.11069
1060.704	59.14027
1061.061	115.26359
1061.418	77.18567
1061.774	98.23965
1062.131	38.10061
1062.487	49.11452
1062.843	66.16397
1063.199	61.1513
1063.555	56.12952
1063.911	83.20827
1064.267	140.286
1064.623	48.11655
1064.979	92.21607
1065.335	112.26438
1065.691	110.26046
1066.046	106.2302
1066.402	35.07971
1066.757	53.13361
1067.112	85.20712
1067.468	6.01428
1067.823	99.23564
1068.178	106.25351
1068.533	67.1618
1068.888	77.18292
1069.243	53.13064
1069.598	65.15738
1069.952	25.05654
1070.307	51.12613
1070.662	60.14207
1071.016	27.06074
1071.371	93.20957
1071.725	127.29914
1072.079	101.2404
1072.434	40.09731
1072.788	101.23799
1073.142	138.33369
1073.496	37.08793
1073.85	106.24291
1074.203	44.1068
1074.557	102.2687
1074.911	101.23855
1075.265	57.13222
1075.618	92.22271
1075.971	120.28139
1076.325	48.12194
1076.678	65.14809
1077.031	61.13763
1077.385	124.26871
1077.738	79.17715
1078.091	15.03433
1078.444	68.15721
1078.796	82.19985
1079.149	81.20017
1079.502	82.19236
1079.855	49.11421
1080.207	124.30108
1080.56	49.12657
1080.912	78.18875
1081.264	90.21492
1081.617	78.18897
1081.969	53.13352
1082.321	98.23697
1082.673	47.10725
1083.025	59.13962
1083.377	-149.33328
1083.728	76.17626
1084.08	87.21555
1084.432	82.19641
1084.783	123.28385
1085.135	89.22131
1085.486	73.16612
1085.838	102.24859
1086.189	96.23082
1086.54	96.22705
1086.891	80.20107
1087.242	59.14329
1087.593	79.19114
1087.944	75.16873
1088.295	143.31868
1088.646	73.17602
1088.996	62.1489
1089.347	82.19985
1089.698	41.09699
1090.048	70.18103
1090.398	110.25188
1090.749	75.17845
1091.099	78.19498
1091.449	65.16134
1091.799	88.21863
1092.149	17.04167
1092.499	62.15077
1092.849	63.15962
1093.199	116.28703
1093.548	34.08187
1093.898	80.1989
1094.248	86.2194
1094.597	44.11233
1094.947	71.18858
1095.296	77.18903
1095.645	84.21701
1095.994	64.15318
1096.343	71.17784
1096.692	17.04487
1097.041	52.14061
1097.39	89.22147
1097.739	57.14784
1098.088	108.28632
1098.437	24.06327
1098.785	95.254
1099.134	89.23457
1099.482	81.22148
1099.83	97.25263
1100.179	40.10441
1100.527	61.16164
1100.875	50.13207
1101.223	79.20856
1101.571	58.15993
1101.919	57.14861
1102.267	57.16016
1102.615	22.07058
1102.962	20.06432
1103.31	20.06415
1103.658	17.05472
