Data from N2 R15 sample 1_Subt2__5__15-36-40-491.txt Node

Date: Tue Sep 02 15:36:40 PDT 2025
User: uwsun
Spectrometer: HDX01956
Trigger mode: 0
Integration Time (sec): 5.000000E-1
Scans to average: 1
Nonlinearity correction enabled: true
Boxcar width: 0
Storing dark spectrum: false
XAxis mode: Wavelengths
Number of Pixels in Spectrum: 2068
>>>>>Begin Spectral Data<<<<<
194.03	276.74137
194.578	264.80717
195.127	271.81483
195.676	271.81748
196.225	355.88518
196.773	368.94885
197.321	519.26955
197.87	720.54143
198.418	630.35437
198.966	681.45817
199.513	627.28455
200.061	606.27141
200.609	610.36297
201.156	628.10323
201.704	655.35047
202.251	615.35861
202.798	623.34418
203.345	724.45115
203.892	651.34702
204.438	704.35965
204.985	617.18765
205.532	671.45219
206.078	697.38633
206.624	721.42016
207.17	705.31313
207.716	671.31905
208.262	704.08478
208.808	615.23664
209.354	634.25997
209.899	704.45715
210.445	645.30719
210.99	685.32827
211.535	719.35583
212.08	692.29621
212.625	689.4073
213.17	762.55414
213.715	668.17797
214.259	692.30004
214.804	697.40371
215.348	729.32904
215.892	684.33107
216.436	763.40591
216.98	724.27629
217.524	680.30004
218.068	712.46059
218.612	697.43653
219.155	693.31694
219.698	643.2562
220.242	682.3996
220.785	653.24803
221.328	622.28952
221.871	632.33944
222.414	677.39026
222.956	601.19678
223.499	593.10141
224.041	673.28384
224.583	653.15056
225.126	666.18729
225.668	557.1363
226.21	619.29443
226.751	505.92433
227.293	610.15191
227.835	601.21899
228.376	643.22176
228.918	646.35663
229.459	566.18005
230	627.22952
230.541	612.16416
231.082	597.20259
231.622	668.25364
232.163	594.19407
232.704	648.32076
233.244	605.24724
233.784	628.27935
234.324	568.01954
234.864	597.11326
235.404	617.21444
235.944	618.21099
236.484	682.39708
237.023	606.17903
237.563	631.18844
238.102	633.22611
238.641	632.3237
239.18	582.11935
239.719	612.2761
240.258	616.13257
240.797	651.26765
241.335	632.27584
241.874	651.98552
242.412	593.17644
242.95	576.1344
243.488	629.16899
244.026	624.16918
244.564	676.10049
245.102	655.1818
245.64	665.30847
246.177	674.21151
246.715	682.32843
247.252	675.2503
247.789	703.03214
248.326	641.24577
248.863	659.15207
249.4	664.21428
249.936	677.09564
250.473	668.25055
251.009	624.15479
251.546	681.19062
252.082	700.21139
252.618	659.17024
253.154	660.27819
253.69	672.20729
254.226	655.26214
254.761	639.15287
255.297	640.1179
255.832	645.23152
256.367	687.29348
256.903	656.14471
257.438	703.31718
257.972	704.23513
258.507	625.14714
259.042	705.19906
259.576	619.05585
260.111	666.23391
260.645	668.14486
261.179	644.20376
261.713	682.19519
262.247	703.28284
262.781	646.06331
263.315	674.32091
263.849	685.37319
264.382	726.31253
264.915	737.34637
265.449	651.26163
265.982	760.34339
266.515	734.41024
267.048	734.19051
267.58	704.20671
268.113	673.13464
268.646	692.35816
269.178	740.27197
269.71	711.20734
270.243	717.28205
270.775	694.4108
271.307	733.39242
271.838	758.41239
272.37	669.31449
272.902	779.36168
273.433	698.18425
273.965	706.357
274.496	703.39244
275.027	675.33378
275.558	723.37406
276.089	675.30573
276.62	735.48306
277.15	745.44481
277.681	761.26186
278.211	764.46233
278.741	685.16433
279.272	678.20624
279.802	736.4433
280.332	741.34687
280.861	768.4261
281.391	672.18566
281.921	731.37513
282.45	768.4948
282.98	746.53111
283.509	739.26923
284.038	725.2684
284.567	735.32918
285.096	767.4253
285.625	706.23152
286.153	762.35814
286.682	776.33756
287.21	757.39344
287.739	739.33711
288.267	786.44222
288.795	794.62094
289.323	774.35825
289.851	808.41954
290.378	763.28541
290.906	745.36925
291.433	774.47437
291.961	821.36615
292.488	787.48938
293.015	799.39746
293.542	734.42446
294.069	761.41624
294.596	809.5117
295.122	854.49899
295.649	790.28379
296.175	861.54411
296.702	838.51086
297.228	831.50547
297.754	829.35228
298.28	806.33559
298.806	861.50855
299.332	835.32109
299.857	889.42461
300.383	863.62154
300.908	762.36795
301.433	831.47416
301.958	882.46676
302.483	830.51778
303.008	842.53202
303.533	914.74489
304.058	878.49137
304.582	842.42543
305.107	837.60577
305.631	892.44281
306.155	895.46194
306.679	884.45075
307.203	851.39914
307.727	886.48719
308.251	943.64224
308.775	879.45655
309.298	888.48407
309.822	944.67903
310.345	995.60239
310.868	869.45896
311.391	980.66788
311.914	929.62205
312.437	951.47607
312.96	1021.59817
313.482	946.52189
314.005	1026.74174
314.527	1038.85524
315.049	1008.74056
315.571	987.41238
316.093	1000.66097
316.615	1000.59369
317.137	1078.46052
317.659	1112.74788
318.18	1066.67618
318.702	1071.57937
319.223	1035.29664
319.744	1035.45379
320.265	1054.62293
320.786	1075.68117
321.307	1091.72013
321.828	1117.52913
322.348	1156.641
322.869	1103.57653
323.389	938.84848
323.909	1175.58842
324.43	1271.80963
324.95	1166.54784
325.47	1160.69436
325.989	1266.67529
326.509	1171.42395
327.029	1232.51348
327.548	1322.55702
328.067	1268.68354
328.587	1320.8326
329.106	1325.57373
329.625	1388.07042
330.144	1322.58551
330.662	1250.52937
331.181	1364.63314
331.7	1348.61484
332.218	1378.42275
332.736	1395.62227
333.255	1348.55918
333.773	1458.65889
334.291	1477.84169
334.808	1485.47712
335.326	1512.5179
335.844	1461.52211
336.361	1442.74056
336.879	1502.52635
337.396	1521.6194
337.913	1523.47564
338.43	1621.43344
338.947	1590.57216
339.464	1628.26398
339.981	1538.49633
340.497	1691.6887
341.014	1676.60621
341.53	1678.35109
342.046	1721.60102
342.562	1728.67355
343.078	1814.46944
343.594	1699.48477
344.11	1750.46623
344.626	1730.6189
345.141	1825.30314
345.657	1896.31326
346.172	1829.45417
346.687	1823.27782
347.202	1811.19024
347.717	1924.3754
348.232	1938.52132
348.747	1941.21736
349.261	1874.9972
349.776	1979.25087
350.29	1995.34442
350.805	2134.4144
351.319	2119.16834
351.833	1974.03823
352.347	2035.15619
352.861	2058.09851
353.374	2137.08462
353.888	2120.20973
354.401	2147.00868
354.915	2100.87007
355.428	2197.2015
355.941	2169.95868
356.454	2215.88884
356.967	2172.02318
357.48	2207.91497
357.993	2245.11175
358.505	2227.04199
359.018	2419.9891
359.53	2415.88532
360.042	2395.64981
360.554	2458.9
361.066	2243.93609
361.578	2411.53008
362.09	2417.79746
362.602	2375.52407
363.113	2470.62678
363.625	2428.52017
364.136	2596.38034
364.647	2389.50096
365.158	2552.50641
365.669	2631.55696
366.18	2666.46855
366.691	2616.26713
367.201	2573.50324
367.712	2625.27589
368.222	2644.25919
368.733	2697.01665
369.243	2718.0235
369.753	2821.10607
370.263	2828.16933
370.773	2856.2277
371.282	2941.98305
371.792	2883.75583
372.301	2966.87294
372.811	3056.06084
373.32	3003.38769
373.829	3110.51399
374.338	3241.25136
374.847	3407.15801
375.356	3357.18186
375.865	3584.7751
376.373	3793.74522
376.882	3908.89693
377.39	3900.75209
377.898	3875.6637
378.407	4129.53196
378.915	4482.58822
379.423	4565.60151
379.93	4688.72684
380.438	4881.90816
380.946	5064.2826
381.453	5245.69438
381.96	5451.47051
382.468	5807.15114
382.975	6246.41283
383.482	6427.15076
383.989	6474.70899
384.495	6601.09496
385.002	6848.11787
385.509	7301.72322
386.015	7785.47953
386.521	8292.41271
387.028	8480.72503
387.534	8587.40884
388.04	9286.31714
388.546	9133.89326
389.051	9451.67791
389.557	10320.34593
390.063	11819.58843
390.568	11882.4105
391.073	11973.99332
391.578	12611.25605
392.084	12787.49979
392.589	13267.37231
393.093	13754.57357
393.598	15307.81692
394.103	16603.0612
394.607	18521.74413
395.112	19999.02702
395.616	20956.30799
396.12	22754.8994
396.624	25410.74128
397.128	27480.8264
397.632	30634.90534
398.136	33161.83251
398.639	33997.98224
399.143	31654.55509
399.646	28699.84172
400.15	25083.82847
400.653	20124.16724
401.156	13866.23708
401.659	5169.95759
402.162	1054.15589
402.664	0
403.167	0
403.67	0
404.172	0
404.674	0
405.176	0
405.678	0
406.18	0
406.682	0
407.184	0
407.686	0
408.187	0
408.688	0
409.19	0
409.691	0
410.192	0
410.693	0
411.194	435.30976
411.694	4082.94878
412.195	8864.71461
412.696	12089.80453
413.196	12760.96929
413.696	12863.67595
414.196	13703.56671
414.696	17261.84252
415.196	21764.24417
415.696	29583.19008
416.196	36460.31858
416.695	40057.39798
417.195	39047.70633
417.694	36645.67863
418.194	35680.81203
418.693	32600.81681
419.192	31098.78163
419.691	30807.22235
420.19	30368.15929
420.688	29491.03886
421.187	28573.71167
421.685	27133.3645
422.184	24779.89722
422.682	21453.33454
423.18	18091.86634
423.678	15766.1991
424.176	14635.78152
424.674	13853.74946
425.172	13386.07394
425.669	12820.76964
426.167	12004.6574
426.664	10789.98276
427.161	9859.28156
427.659	9333.15776
428.156	8522.18563
428.652	8106.11862
429.149	7559.53493
429.646	7388.41997
430.143	7041.7473
430.639	6546.40646
431.135	6184.48403
431.632	5898.82298
432.128	5498.63124
432.624	5059.9227
433.12	4749.89266
433.616	4580.74751
434.111	4376.57879
434.607	4247.53299
435.103	4459.57584
435.598	4293.53798
436.093	4061.64299
436.588	3821.7292
437.083	3742.83613
437.578	3379.10741
438.073	3123.41044
438.568	3160.55568
439.062	3121.27212
439.557	2952.7182
440.051	2825.69315
440.546	2832.72605
441.04	2694.99983
441.534	2643.2744
442.028	2561.21643
442.522	2515.24156
443.015	2506.03283
443.509	2527.39738
444.002	2341.48435
444.496	2404.17148
444.989	2406.52328
445.482	2242.64551
445.975	2302.32452
446.468	2229.26608
446.961	2237.27819
447.454	2180.48063
447.947	2057.62428
448.439	2160.74991
448.931	1997.54863
449.424	2029.946
449.916	1999.83681
450.408	1912.63112
450.9	1897.84949
451.392	1909.99653
451.884	1894.78154
452.375	1749.97455
452.867	1806.81556
453.358	1756.77305
453.849	1712.66011
454.341	1700.81162
454.832	1635.72032
455.323	1685.03198
455.814	1630.92273
456.304	1634.94206
456.795	1548.93289
457.285	1637.9276
457.776	1707.0172
458.266	1457.04311
458.756	1540.1323
459.247	1427.05964
459.737	1374.06037
460.226	1467.96721
460.716	1404.11882
461.206	1365.14724
461.695	1351.27695
462.185	1363.13894
462.674	1398.1172
463.163	1341.0261
463.653	1284.91145
464.142	1198.15957
464.63	1240.24851
465.119	1191.09223
465.608	1161.08518
466.096	1187.02363
466.585	1241.18506
467.073	1138.21886
467.561	1081.19885
468.05	1136.17639
468.538	1144.31125
469.026	1037.18859
469.513	1070.97761
470.001	1093.128
470.489	1045.1844
470.976	1034.15452
471.463	1022.312
471.951	1032.34944
472.438	878.08743
472.925	879.08138
473.412	945.27119
473.899	871.08669
474.385	858.19506
474.872	848.09167
475.359	802.13244
475.845	809.90309
476.331	845.02528
476.817	764.12308
477.303	758.04366
477.789	764.11347
478.275	642.00934
478.761	755.12034
479.247	757.02511
479.732	681.07672
480.218	672.1468
480.703	646.04916
481.188	644.86367
481.673	663.9696
482.158	657.85815
482.643	640.10438
483.128	577.86654
483.612	577.90686
484.097	564.95679
484.581	580.91977
485.066	474.81317
485.55	534.79102
486.034	516.75967
486.518	486.79854
487.002	469.81732
487.486	521.9008
487.969	440.77872
488.453	461.85656
488.936	466.74989
489.42	473.74973
489.903	473.88411
490.386	-22.02902
490.869	411.65965
491.352	465.85325
491.835	402.61098
492.318	393.6599
492.8	442.66421
493.283	336.66085
493.765	365.68863
494.247	438.77599
494.73	372.62308
495.212	447.826
495.694	357.63855
496.175	337.61304
496.657	368.67744
497.139	428.54628
497.62	261.48709
498.102	308.60349
498.583	320.63828
499.064	309.53558
499.545	391.68747
500.026	252.4492
500.507	332.60655
500.988	283.56671
501.469	206.42121
501.949	286.57205
502.43	205.39492
502.91	248.40648
503.39	252.5176
503.87	238.45221
504.35	290.55424
504.83	256.44948
505.31	212.42148
505.79	248.48156
506.269	286.5413
506.749	220.40924
507.228	222.42572
507.707	270.48179
508.187	320.61929
508.666	166.33973
509.145	153.29787
509.623	201.39038
510.102	225.4514
510.581	226.45456
511.059	160.3365
511.538	209.45474
512.016	245.48357
512.494	231.46686
512.972	129.26131
513.45	125.24266
513.928	223.44863
514.406	132.26672
514.884	211.45499
515.361	221.4405
515.839	144.27667
516.316	179.36243
516.793	172.37082
517.27	223.45462
517.747	164.35767
518.224	217.42045
518.701	251.46192
519.178	165.34572
519.654	176.3566
520.131	109.23232
520.607	158.3361
521.083	148.28751
521.56	132.26709
522.036	180.33417
522.512	157.33317
522.987	132.26721
523.463	133.27127
523.939	153.3227
524.414	193.37896
524.89	176.35611
525.365	101.19766
525.84	78.16014
526.315	138.28563
526.79	163.31371
527.265	155.30248
527.74	168.35052
528.215	172.34658
528.689	164.30932
529.164	217.39774
529.638	178.39462
530.112	127.25797
530.587	140.25472
531.061	119.24812
531.534	183.38139
532.008	114.23775
532.482	168.33167
532.956	124.2741
533.429	200.41469
533.903	191.36122
534.376	207.38842
534.849	123.24802
535.322	180.36504
535.795	185.38933
536.268	179.36974
536.741	189.39074
537.213	186.36945
537.686	166.3482
538.158	160.30682
538.631	268.5532
539.103	232.43823
539.575	264.46158
540.047	281.51687
540.519	258.52394
540.991	226.47467
541.463	208.43244
541.934	250.48382
542.406	279.55896
542.877	206.39694
543.348	290.59135
543.82	321.66155
544.291	352.68285
544.762	331.65086
545.233	318.66672
545.703	381.6843
546.174	400.75856
546.645	350.68481
547.115	403.79095
547.585	444.82066
548.056	453.87062
548.526	497.91887
548.996	614.13851
549.466	573.09592
549.935	568.03262
550.405	661.07208
550.875	718.25909
551.344	729.29953
551.814	709.20523
552.283	780.22068
552.752	797.32901
553.221	870.30075
553.69	983.4701
554.159	936.60132
554.628	1007.49441
555.096	1073.84973
555.565	1145.64109
556.033	1195.83973
556.502	1166.88282
556.97	1289.79085
557.438	1342.02159
557.906	1438.12778
558.374	1446.03821
558.842	1637.30915
559.31	1676.13413
559.777	1717.40113
560.245	1871.42645
560.712	2053.45098
561.18	2114.26992
561.647	2412.37725
562.114	2495.4601
562.581	2709.87965
563.048	2953.52701
563.514	3067.81396
563.981	3222.42998
564.448	3552.19687
564.914	3762.33258
565.381	4051.06502
565.847	4249.12896
566.313	4558.91805
566.779	4915.52518
567.245	5256.56022
567.711	5351.65123
568.176	5741.09244
568.642	6173.592
569.108	6427.42145
569.573	6906.23099
570.038	7333.99451
570.504	7672.39983
570.969	8120.14653
571.434	8405.24562
571.899	8842.0654
572.363	9463.4772
572.828	9763.31283
573.293	10329.21777
573.757	10680.60111
574.222	11320.77243
574.686	11679.67878
575.15	12139.85658
575.614	12340.43486
576.078	12738.87608
576.542	13003.07022
577.006	13172.48472
577.469	13513.84953
577.933	13617.16156
578.396	13979.2666
578.86	14147.86812
579.323	13954.07691
579.786	14035.18474
580.249	13908.33771
580.712	13948.57706
581.175	13710.51441
581.637	13630.71828
582.1	13510.37115
582.563	13347.31667
583.025	13121.18682
583.487	12856.32889
583.95	12612.91595
584.412	12374.42504
584.874	12078.24893
585.336	11890.35786
585.797	11368.16939
586.259	11083.19007
586.721	10760.8233
587.182	10523.84004
587.643	10099.4033
588.105	9892.63126
588.566	9700.29259
589.027	9290.00021
589.488	9102.58831
589.949	8899.19197
590.41	8484.35198
590.87	8379.27124
591.331	8238.99574
591.791	7949.75107
592.252	7720.50661
592.712	7514.54385
593.172	7394.23975
593.632	7150.04282
594.092	6957.02184
594.552	6832.857
595.011	6598.06892
595.471	6439.97619
595.931	6246.97214
596.39	6135.35315
596.849	5926.26875
597.308	5944.92258
597.768	5596.94099
598.227	5499.65413
598.685	5423.42798
599.144	5379.52253
599.603	5196.70153
600.062	5061.07831
600.52	5029.41145
600.978	5054.78073
601.437	4817.70943
601.895	4767.29639
602.353	4600.65194
602.811	4574.65362
603.269	4508.14102
603.727	4378.21075
604.184	4284.87771
604.642	4225.43717
605.099	4217.10605
605.557	4047.50606
606.014	3945.81298
606.471	4021.62313
606.928	3908.78005
607.385	3828.52064
607.842	3867.18197
608.299	3846.31961
608.755	3670.57789
609.212	3602.13818
609.668	3486.14345
610.125	3514.67333
610.581	3490.64071
611.037	3407.45338
611.493	3354.65452
611.949	3270.74252
612.405	3140.87614
612.861	3138.70982
613.316	2987.77349
613.772	2993.58438
614.227	2957.7215
614.683	2941.28653
615.138	2853.69583
615.593	2821.67137
616.048	2708.63051
616.503	2795.99885
616.958	2640.06705
617.412	2650.78528
617.867	2597.45218
618.321	2593.21275
618.776	2510.49528
619.23	2457.74995
619.684	2480.6025
620.138	2366.72053
620.592	2383.9164
621.046	2321.76278
621.5	2332.91366
621.954	2238.57969
622.407	2257.53739
622.861	2124.85114
623.314	2205.62457
623.768	2147.69355
624.221	2009.04493
624.674	2008.60105
625.127	1954.6411
625.58	2028.60146
626.033	1962.45705
626.485	1889.69767
626.938	1909.70665
627.39	1833.57597
627.843	1808.54735
628.295	1757.51529
628.747	1789.64091
629.199	1771.47329
629.651	1683.41219
630.103	1661.42873
630.555	1636.17193
631.006	1626.49487
631.458	1621.51103
631.909	1653.46974
632.361	1562.43759
632.812	1475.32509
633.263	1556.19673
633.714	1451.10264
634.165	1464.48671
634.616	1401.36065
635.067	1432.20079
635.518	1362.33845
635.968	1382.89762
636.419	1352.07437
636.869	1352.32734
637.319	1271.15311
637.769	1266.06133
638.219	1260.24401
638.669	1267.23977
639.119	1317.3742
639.569	1200.1938
640.019	1308.21554
640.468	1212.01686
640.918	1225.23462
641.367	1222.04247
641.816	1158.96458
642.265	1136.0182
642.714	1211.11274
643.163	1180.06112
643.612	1060.00028
644.061	1080.7492
644.51	1097.93638
644.958	1046.79396
645.406	1130.09855
645.855	1150.19486
646.303	1096.00608
646.751	1054.88198
647.199	1136.99037
647.647	1102.97398
648.095	1055.90457
648.543	1059.67998
648.99	1107.07246
649.438	1113.05005
649.885	1106.16755
650.333	1091.60416
650.78	1097.09094
651.227	994.96009
651.674	1048.89046
652.121	989.95614
652.568	1018.99435
653.015	1055.15514
653.461	1000.92131
653.908	1027.91802
654.354	1026.97511
654.801	1023.92464
655.247	1019.78339
655.693	985.1196
656.139	957.8822
656.585	949.87256
657.031	936.78696
657.477	1005.72939
657.922	983.83388
658.368	1021.05178
658.813	1025.92653
659.259	1020.98326
659.704	973.84921
660.149	947.81279
660.594	999.9318
661.039	957.78265
661.484	976.91826
661.929	986.88439
662.373	1004.08079
662.818	974.99774
663.262	970.92253
663.707	994.08104
664.151	1002.00939
664.595	972.93277
665.039	928.93665
665.483	961.04055
665.927	1037.98249
666.371	929.77742
666.814	1030.00504
667.258	966.88168
667.701	1067.83448
668.145	1072.17268
668.588	1006.03407
669.031	971.87936
669.474	989.96615
669.917	1047.86609
670.36	982.02249
670.803	1097.13627
671.245	1054.76925
671.688	1023.05299
672.13	962.77296
672.573	1039.17967
673.015	1038.03782
673.457	1044.82679
673.899	1042.06772
674.341	980.96403
674.783	1011.99411
675.225	1003.04137
675.666	1030.02492
676.108	1092.88609
676.549	1043.01938
676.991	1066.88687
677.432	1054.65818
677.873	1000.90475
678.314	1038.03019
678.755	994.00611
679.196	1014.90069
679.637	1044.09857
680.078	1056.01405
680.518	1074.0317
680.959	995.97626
681.399	1088.20016
681.839	1018.04808
682.28	1003.05428
682.72	1037.93387
683.16	1060.1678
683.6	1049.94859
684.039	1043.74359
684.479	953.96473
684.919	1041.95187
685.358	1107.29606
685.798	1047.28191
686.237	1112.17831
686.676	1074.0248
687.115	1089.07165
687.554	1066.06353
687.993	1078.91804
688.432	1030.92505
688.871	1109.01217
689.309	1054.05961
689.748	1178.91084
690.186	1163.22027
690.625	1116.10216
691.063	1079.10709
691.501	1170.32115
691.939	1137.29366
692.377	1125.21777
692.815	1105.13666
693.253	1178.25924
693.69	1108.94116
694.128	1130.20534
694.565	1157.20666
695.003	1192.42829
695.44	1212.23911
695.877	1171.16688
696.314	1220.02471
696.751	1264.22925
697.188	1202.16558
697.625	1289.27883
698.061	1187.26185
698.498	1247.3719
698.934	1262.37567
699.371	1234.27085
699.807	1271.3351
700.243	1265.37496
700.679	1339.29328
701.115	1367.44351
701.551	1319.38383
701.987	1307.23938
702.422	1333.4214
702.858	1343.44454
703.294	1326.27994
703.729	1437.64513
704.164	1302.42498
704.599	1396.30476
705.035	1309.22141
705.47	1399.57494
705.904	1353.38755
706.339	1429.47684
706.774	1384.44062
707.209	1410.42004
707.643	1381.51649
708.078	1503.70278
708.512	1381.64262
708.946	1422.56103
709.38	1387.48194
709.814	1432.42164
710.248	1453.65085
710.682	1488.60467
711.116	1397.50628
711.549	1446.84192
711.983	1444.46432
712.416	1512.61535
712.85	1444.71668
713.283	1450.54835
713.716	1496.81072
714.149	1511.64309
714.582	1426.35849
715.015	1469.76587
715.448	1431.73984
715.881	1487.34417
716.313	1463.52946
716.746	1401.47393
717.178	1355.48625
717.61	1416.74146
718.043	1417.68321
718.475	1384.54913
718.907	1406.72591
719.339	1322.26942
719.77	1342.42373
720.202	1352.64574
720.634	1333.49325
721.065	1321.40194
721.497	1322.50587
721.928	1259.42477
722.359	1264.37481
722.79	1280.37685
723.221	1326.59719
723.652	1289.62788
724.083	1278.20631
724.514	1232.20408
724.945	1173.18779
725.375	1172.14888
725.806	1178.36407
726.236	1139.37818
726.666	1134.15488
727.096	1112.21711
727.526	1091.27486
727.956	1095.99905
728.386	1104.21432
728.816	1036.17574
729.246	1005.02604
729.675	1034.10219
730.105	998.04907
730.534	993.92475
730.964	1039.18253
731.393	1070.18828
731.822	1010.15909
732.251	975.08374
732.68	1037.00678
733.109	977.01621
733.537	933.90026
733.966	892.8935
734.395	884.73071
734.823	926.74993
735.251	873.79727
735.68	925.97167
736.108	862.88211
736.536	820.66954
736.964	847.68122
737.392	792.73286
737.82	823.70715
738.247	835.72359
738.675	864.76877
739.102	772.69121
739.53	782.74616
739.957	786.77455
740.384	780.68579
740.811	785.7453
741.238	736.58385
741.665	714.4581
742.092	733.5426
742.519	694.52852
742.945	676.44714
743.372	665.47529
743.798	649.50521
744.225	663.40798
744.651	649.46599
745.077	636.43047
745.503	640.40536
745.929	629.35888
746.355	630.41696
746.781	601.3525
747.207	572.21898
747.632	535.19692
748.058	585.33041
748.483	568.18947
748.908	575.30395
749.334	557.25235
749.759	490.06926
750.184	533.16449
750.609	527.19303
751.033	517.12662
751.458	539.10549
751.883	469.08346
752.307	507.10012
752.732	399.94223
753.156	428.99442
753.58	447.99436
754.005	470.11303
754.429	438.96445
754.853	409.95648
755.277	411.91695
755.7	417.97556
756.124	394.92556
756.548	351.79347
756.971	380.88119
757.394	381.93307
757.818	364.89294
758.241	334.81209
758.664	330.79906
759.087	364.7709
759.51	331.78986
759.933	334.76902
760.356	306.75598
760.778	328.77326
761.201	313.7326
761.623	366.84571
762.046	347.78698
762.468	383.87319
762.89	315.74795
763.312	349.81396
763.734	276.64336
764.156	300.71412
764.578	304.67364
765	277.65444
765.421	249.61485
765.843	265.67444
766.264	293.68365
766.686	271.66005
767.107	261.61402
767.528	206.50952
767.949	263.64917
768.37	222.53294
768.791	247.58199
769.212	211.51873
769.632	194.44421
770.053	229.5888
770.473	250.59146
770.894	273.66244
771.314	273.63198
771.734	226.51457
772.154	224.56214
772.575	230.52071
772.994	203.45238
773.414	234.54847
773.834	188.46228
774.254	230.54941
774.673	202.4829
775.093	131.32207
775.512	213.51337
775.931	195.48541
776.351	202.49174
776.77	161.38879
777.189	185.43304
777.607	193.48392
778.026	175.42944
778.445	150.37116
778.864	195.49105
779.282	160.38046
779.701	163.40561
780.119	114.28672
780.537	131.32444
780.955	170.42649
781.373	164.40029
781.791	114.25547
782.209	175.39757
782.627	121.31664
783.045	136.31054
783.462	142.35919
783.88	130.33351
784.297	131.32693
784.715	124.31601
785.132	160.38236
785.549	124.30806
785.966	128.31951
786.383	110.26949
786.8	192.43751
787.217	119.28063
787.633	135.33374
788.05	202.47014
788.466	162.3772
788.883	90.22912
789.299	114.27327
789.715	139.33465
790.131	149.36618
790.547	145.35819
790.963	144.35357
791.379	129.32334
791.795	155.34942
792.21	160.36901
792.626	106.2507
793.041	134.32768
793.457	129.31621
793.872	102.23918
794.287	88.20982
794.702	132.32243
795.117	102.25239
795.532	92.22998
795.947	168.39825
796.362	145.3426
796.776	141.3272
797.191	115.2798
797.605	48.11344
798.02	82.19955
798.434	162.35555
798.848	120.29333
799.262	119.293
799.676	123.29792
800.09	120.29312
800.504	150.35942
800.918	106.24457
801.331	136.35292
801.745	105.24028
802.158	88.21958
802.572	131.31491
802.985	121.29043
803.398	103.24469
803.811	117.29875
804.224	131.32302
804.637	85.20232
805.05	125.28743
805.462	144.34964
805.875	70.18147
806.288	3.00734
806.7	98.24533
807.112	106.24467
807.525	125.30584
807.937	57.14138
808.349	78.19534
808.761	150.36407
809.173	75.18187
809.584	154.37532
809.996	98.23893
810.408	73.1883
810.819	146.33887
811.231	117.2998
811.642	115.27204
812.053	192.44634
812.464	264.60496
812.875	231.57375
813.286	192.48375
813.697	146.33713
814.108	119.28845
814.519	166.36356
814.929	126.31838
815.34	56.13633
815.75	106.26766
816.16	108.26753
816.571	77.19979
816.981	130.30388
817.391	116.27795
817.801	94.23251
818.211	110.26056
818.62	88.21127
819.03	128.31056
819.44	140.3613
819.849	101.25316
820.259	107.27216
820.668	81.19885
821.077	95.23486
821.486	108.25849
821.895	121.29638
822.304	107.28163
822.713	88.20748
823.122	112.27744
823.531	99.23355
823.939	117.28265
824.348	141.33844
824.756	96.23937
825.164	124.30907
825.573	72.18057
825.981	111.2733
826.389	101.25234
826.797	114.28322
827.205	100.22824
827.612	120.29344
828.02	64.15049
828.428	114.28796
828.835	73.19188
829.243	127.29949
829.65	82.20335
830.057	105.25318
830.464	85.2065
830.871	143.33774
831.278	116.27795
831.685	137.30176
832.092	88.21471
832.499	77.16832
832.905	138.34496
833.312	108.24461
833.718	107.26471
834.124	148.33303
834.531	136.33861
834.937	123.31252
835.343	95.22811
835.749	106.24594
836.155	121.31373
836.561	94.23004
836.966	144.34715
837.372	81.20559
837.777	61.15207
838.183	120.26415
838.588	72.17855
838.993	127.30576
839.399	80.19505
839.804	21.05159
840.209	86.21801
840.613	97.21455
841.018	72.18206
841.423	88.22474
841.828	88.22157
842.232	134.3278
842.637	104.24359
843.041	60.15383
843.445	67.16794
843.849	86.21202
844.253	127.29833
844.657	60.15113
845.061	112.25182
845.465	77.18553
845.869	113.26015
846.272	43.10509
846.676	118.28253
847.079	69.17519
847.483	127.31316
847.886	126.30307
848.289	76.20223
848.692	114.286
849.095	110.26187
849.498	143.35727
849.901	116.26337
850.304	85.20232
850.707	128.32251
851.109	128.32008
851.512	105.25595
851.914	39.09864
852.316	81.20413
852.718	26.0675
853.121	132.31918
853.523	89.20694
853.925	51.13319
854.326	84.20907
854.728	76.19484
855.13	74.19031
855.531	92.21851
855.933	90.21492
856.334	67.16679
856.736	95.21136
857.137	52.12113
857.538	62.15577
857.939	78.19202
858.34	84.20381
858.741	85.22115
859.142	84.2009
859.542	85.2232
859.943	102.25147
860.343	62.15342
860.744	109.26352
861.144	65.15839
861.544	31.07489
861.945	114.28765
862.345	87.21168
862.745	49.12198
863.145	133.31352
863.544	57.14406
863.944	68.16039
864.344	102.25137
864.743	80.19774
865.143	122.30981
865.542	78.18026
865.941	91.22389
866.34	145.34167
866.74	82.21913
867.139	83.19778
867.537	86.21801
867.936	101.24114
868.335	102.25746
868.734	39.09997
869.132	62.14396
869.531	106.25409
869.929	88.1994
870.327	96.22845
870.726	104.25715
871.124	114.26355
871.522	89.22541
871.92	90.22066
872.318	108.26154
872.715	148.36029
873.113	84.20365
873.511	59.14693
873.908	39.09874
874.306	78.19322
874.703	130.32097
875.1	114.28868
875.497	120.28425
875.894	20.04933
876.291	100.24345
876.688	89.22821
877.085	93.22161
877.482	95.23615
877.878	40.09658
878.275	73.18489
878.671	99.21861
879.068	105.25117
879.464	58.14014
879.86	58.13712
880.256	92.22556
880.652	105.2647
881.048	104.25545
881.444	112.26376
881.84	82.20743
882.236	99.24699
882.631	55.13502
883.027	98.23545
883.422	102.25866
883.817	51.12825
884.213	81.2069
884.608	64.15668
885.003	64.15406
885.398	65.1624
885.793	89.22204
886.188	65.16128
886.582	132.33402
886.977	89.20988
887.371	102.25581
887.766	45.1121
888.16	98.24267
888.554	109.26689
888.949	103.25641
889.343	134.32255
889.737	19.05092
890.131	63.1578
890.525	107.2711
890.918	86.21521
891.312	81.19287
891.706	90.23468
892.099	102.25737
892.492	136.28842
892.886	81.19723
893.279	59.15018
893.672	111.27973
894.065	87.21658
894.458	85.2126
894.851	106.25728
895.244	37.09478
895.637	132.31328
896.029	115.27802
896.422	136.32724
896.814	116.28514
897.206	88.20821
897.599	108.26449
897.991	79.19013
898.383	49.11591
898.775	74.16638
899.167	90.2084
899.559	150.3732
899.951	85.1992
900.342	99.24976
900.734	53.13151
901.125	102.26543
901.517	84.20503
901.908	104.24702
902.299	91.22092
902.69	61.14374
903.082	117.27998
903.473	45.10793
903.863	82.20816
904.254	83.19154
904.645	116.28524
905.036	64.15464
905.426	128.28873
905.817	85.20736
906.207	47.11213
906.597	69.16088
906.987	84.21656
907.378	74.18646
907.768	70.18452
908.158	60.14612
908.547	78.2006
908.937	98.24949
909.327	46.11186
909.717	130.32556
910.106	80.19118
910.495	153.37504
910.885	108.27085
911.274	108.26724
911.663	116.29113
912.052	91.22298
912.441	93.23479
912.83	76.17368
913.219	96.24938
913.608	107.25946
913.997	43.10798
914.385	98.23214
914.774	73.17709
915.162	85.2013
915.55	125.29832
915.939	74.18605
916.327	97.24015
916.715	32.08184
917.103	133.32251
917.491	128.31231
917.878	87.21255
918.266	88.22679
918.654	134.33739
919.041	85.22062
919.429	81.19013
919.816	119.29806
920.203	92.22146
920.591	77.19008
920.978	102.24748
921.365	83.21661
921.752	98.2316
922.139	77.16633
922.525	73.17462
922.912	118.28425
923.299	130.31849
923.685	83.21535
924.072	132.29958
924.458	120.29355
924.844	51.12622
925.231	99.22828
925.617	74.18746
926.003	88.22347
926.389	102.25498
926.774	123.30775
927.16	101.24859
927.546	74.18812
927.931	131.32219
928.317	90.20575
928.702	110.25734
929.088	62.14635
929.473	75.19002
929.858	46.11132
930.243	74.17684
930.628	66.16013
931.013	96.23598
931.398	155.34913
931.783	115.29951
932.167	99.23988
932.552	61.15257
932.937	110.27009
933.321	108.26822
933.705	96.24007
934.09	143.35546
934.474	100.23532
934.858	79.20392
935.242	33.07676
935.626	83.21126
936.009	60.15934
936.393	107.26955
936.777	71.18117
937.16	101.26052
937.544	97.22652
937.927	83.20939
938.311	143.3431
938.694	119.31109
939.077	99.23482
939.46	135.32637
939.843	115.23658
940.226	101.2568
940.609	52.11936
940.991	69.17507
941.374	96.23266
941.757	79.19394
942.139	86.19177
942.522	87.20421
942.904	104.24749
943.286	83.20969
943.668	85.21887
944.05	96.23449
944.432	102.24934
944.814	70.17181
945.196	57.13874
945.578	23.05495
945.959	77.17954
946.341	108.26233
946.722	76.17752
947.104	107.25301
947.485	115.26423
947.866	43.10848
948.247	65.16357
948.628	104.25119
949.009	65.16603
949.39	113.27812
949.771	140.31993
950.152	106.25747
950.532	41.10103
950.913	88.21078
951.293	91.24419
951.674	94.2255
952.054	79.19473
952.434	86.2121
952.814	127.29775
953.194	108.27988
953.574	113.27514
953.954	63.14926
954.334	104.25668
954.714	59.14355
955.093	142.34323
955.473	80.19897
955.853	75.19332
956.232	99.26922
956.611	91.2166
956.99	63.15797
957.37	86.21778
957.749	89.21078
958.128	87.21776
958.506	39.10137
958.885	46.1162
959.264	60.14678
959.643	90.20318
960.021	86.21171
960.4	107.23973
960.778	83.20323
961.156	79.19702
961.535	128.2938
961.913	101.23401
962.291	81.20668
962.669	68.17171
963.047	108.2728
963.424	105.26537
963.802	114.27701
964.18	120.29986
964.557	88.20118
964.935	145.33728
965.312	79.20469
965.69	124.30638
966.067	99.23889
966.444	104.25375
966.821	119.3031
967.198	120.28732
967.575	120.29126
967.952	62.14578
968.329	81.19598
968.705	117.24731
969.082	59.15108
969.458	55.13182
969.835	125.30003
970.211	64.16385
970.587	96.23702
970.963	78.19913
971.339	70.18216
971.715	115.28378
972.091	105.25595
972.467	66.16415
972.843	78.19258
973.219	130.30746
973.594	61.15925
973.97	147.34342
974.345	36.08639
974.721	126.30076
975.096	91.21851
975.471	86.20261
975.846	102.24264
976.221	69.17463
976.596	88.20942
976.971	84.2061
977.346	122.28003
977.72	82.20772
978.095	67.17264
978.469	103.24337
978.844	109.27114
979.218	62.14828
979.593	103.24431
979.967	129.30963
980.341	67.15376
980.715	72.1807
981.089	97.24077
981.463	113.2562
981.837	95.23019
982.21	113.25974
982.584	51.12316
982.957	78.19378
983.331	70.16485
983.704	87.21231
984.078	60.1476
984.451	140.344
984.824	48.11694
985.197	123.29467
985.57	70.17492
985.943	130.31636
986.316	142.34297
986.688	110.26227
987.061	108.25028
987.434	39.10182
987.806	77.18581
988.179	74.1738
988.551	49.12433
988.923	91.22241
989.295	103.25491
989.667	58.13834
990.039	41.10147
990.411	79.18079
990.783	115.26137
991.155	89.21224
991.527	139.33668
991.898	103.25417
992.27	71.17495
992.641	126.31178
993.012	124.28758
993.384	90.21302
993.755	105.26508
994.126	89.21249
994.497	77.18805
994.868	101.22964
995.239	105.25184
995.61	57.14324
995.98	103.2477
996.351	67.16539
996.722	68.15715
997.092	62.14647
997.462	42.09826
997.833	100.23477
998.203	68.16431
998.573	108.26606
998.943	84.19566
999.313	69.16474
999.683	47.11286
1000.053	80.18296
1000.423	85.20519
1000.792	108.27708
1001.162	91.22224
1001.531	49.12083
1001.901	105.2591
1002.27	91.2017
1002.639	98.24825
1003.009	43.10239
1003.378	87.22097
1003.747	96.22476
1004.116	51.122
1004.485	105.24829
1004.853	82.20654
1005.222	117.29147
1005.591	103.24205
1005.959	52.11711
1006.328	89.19867
1006.696	36.08705
1007.064	80.20013
1007.433	80.19883
1007.801	155.37303
1008.169	78.19597
1008.537	149.32309
1008.905	71.1647
1009.273	85.20859
1009.64	28.06707
1010.008	78.18491
1010.375	131.31324
1010.743	162.36572
1011.11	80.18818
1011.478	73.17987
1011.845	93.21684
1012.212	72.16221
1012.579	107.25985
1012.946	88.20789
1013.313	99.23337
1013.68	102.22679
1014.047	43.10258
1014.414	73.17162
1014.78	67.16594
1015.147	128.30495
1015.513	75.17982
1015.88	124.31288
1016.246	135.32797
1016.612	109.24653
1016.978	115.27834
1017.344	85.20867
1017.71	131.31455
1018.076	99.23119
1018.442	101.25744
1018.808	94.23302
1019.174	61.15268
1019.539	185.41432
1019.905	71.16672
1020.27	55.13557
1020.636	110.26066
1021.001	78.18569
1021.366	54.12954
1021.731	97.24733
1022.096	83.20805
1022.461	107.25037
1022.826	60.14229
1023.191	74.19329
1023.556	153.35125
1023.92	85.20759
1024.285	89.21557
1024.649	81.1973
1025.014	100.24536
1025.378	70.1753
1025.742	115.28211
1026.107	96.21505
1026.471	125.28743
1026.835	89.21897
1027.199	58.13935
1027.562	80.1848
1027.926	94.2279
1028.29	79.1988
1028.654	77.17614
1029.017	133.32178
1029.381	59.14065
1029.744	69.17532
1030.107	101.23651
1030.471	108.25563
1030.834	58.13169
1031.197	92.21978
1031.56	97.2267
1031.923	74.19045
1032.286	97.22563
1032.648	103.24374
1033.011	67.1532
1033.374	123.28487
1033.736	43.11314
1034.099	107.2579
1034.461	95.23795
1034.823	74.18338
1035.185	78.19527
1035.548	115.27635
1035.91	125.295
1036.272	80.1809
1036.634	136.32724
1036.995	55.1291
1037.357	55.13362
1037.719	97.23371
1038.08	118.27638
1038.442	38.09036
1038.803	104.24702
1039.165	93.23277
1039.526	70.16844
1039.887	79.18789
1040.248	46.11337
1040.609	130.31636
1040.97	39.09546
1041.331	49.12402
1041.692	53.12358
1042.053	123.27581
1042.413	100.23064
1042.774	83.20051
1043.134	115.27025
1043.495	87.21713
1043.855	99.23781
1044.215	60.14858
1044.576	51.12186
1044.936	133.2997
1045.296	122.30033
1045.656	81.19752
1046.016	108.2577
1046.375	108.25898
1046.735	57.12897
1047.095	84.1952
1047.454	138.28665
1047.814	76.18169
1048.173	107.25272
1048.533	80.18208
1048.892	94.22361
1049.251	131.32385
1049.61	79.19337
1049.969	122.28339
1050.328	114.24367
1050.687	72.17436
1051.046	126.30226
1051.405	100.24635
1051.763	91.20741
1052.122	90.2227
1052.48	50.12254
1052.839	66.15471
1053.197	77.18017
1053.555	110.24762
1053.914	90.21836
1054.272	95.22759
1054.63	75.18241
1054.988	48.11401
1055.345	64.13733
1055.703	98.23357
1056.061	61.15653
1056.419	57.14728
1056.776	110.26358
1057.134	79.18173
1057.491	66.16469
1057.848	100.24654
1058.206	71.1662
1058.563	35.07735
1058.92	105.23922
1059.277	94.22987
1059.634	120.27831
1059.991	103.24412
1060.348	50.11293
1060.704	39.09308
1061.061	116.26583
1061.418	102.24478
1061.774	84.20595
1062.131	55.1452
1062.487	63.14684
1062.843	108.26626
1063.199	127.3112
1063.555	58.13409
1063.911	102.25507
1064.267	185.37407
1064.623	58.14057
1064.979	146.33927
1065.335	83.19702
1065.691	99.23491
1066.046	95.20679
1066.402	56.12699
1066.757	102.25488
1067.112	127.30703
1067.468	72.16917
1067.823	145.34207
1068.178	113.26989
1068.533	112.26817
1068.888	103.24346
1069.243	121.29451
1069.598	67.16216
1069.952	57.12808
1070.307	22.0547
1070.662	71.16776
1071.016	65.14509
1071.371	67.15178
1071.725	129.30373
1072.079	78.18647
1072.434	85.20503
1072.788	111.26105
1073.142	131.31718
1073.496	83.1955
1073.85	86.19787
1074.203	94.22601
1074.557	62.16443
1074.911	113.26627
1075.265	121.27712
1075.618	107.25829
1075.971	92.21691
1076.325	62.15711
1076.678	51.11652
1077.031	121.26965
1077.385	132.28556
1077.738	110.24509
1078.091	54.12261
1078.444	129.29461
1078.796	91.22141
1079.149	68.16845
1079.502	102.23834
1079.855	86.19898
1080.207	91.22232
1080.56	61.15724
1080.912	94.22678
1081.264	77.18433
1081.617	78.18897
1081.969	59.14847
1082.321	92.22271
1082.673	42.09594
1083.025	76.17926
1083.377	-126.2805
1083.728	88.20361
1084.08	85.21067
1084.432	73.17515
1084.783	131.30183
1085.135	87.21642
1085.486	64.1459
1085.838	99.24142
1086.189	109.26143
1086.54	99.23401
1086.891	74.18619
1087.242	67.16247
1087.593	82.19828
1087.944	83.18642
1088.295	133.297
1088.646	60.14503
1088.996	50.12036
1089.347	87.21184
1089.698	60.14141
1090.048	124.31768
1090.398	78.17975
1090.749	68.16201
1091.099	62.15544
1091.449	78.19315
1091.799	115.2843
1092.149	28.0685
1092.499	79.1915
1092.849	80.20208
1093.199	102.25304
1093.548	46.11052
1093.898	64.15958
1094.248	114.2894
1094.597	64.16282
1094.947	93.2461
1095.296	77.18903
1095.645	95.24496
1095.994	90.21434
1096.343	77.19266
1096.692	60.1572
1097.041	25.0679
1097.39	85.21167
1097.739	83.21432
1098.088	95.2524
1098.437	33.08686
1098.785	98.26189
1099.134	100.26307
1099.482	67.18361
1099.83	73.19091
1100.179	50.13029
1100.527	81.21392
1100.875	62.16344
1101.223	92.24235
1101.571	54.149
1101.919	12.03153
1102.267	63.17686
1102.615	9.02892
1102.962	23.07394
1103.31	-2.00643
1103.658	20.06435
