Data from N2 R15 sample 12_Subt2__3__15-19-57-013.txt Node

Date: Tue Sep 02 15:19:57 PDT 2025
User: uwsun
Spectrometer: HDX01956
Trigger mode: 0
Integration Time (sec): 5.000000E-1
Scans to average: 1
Nonlinearity correction enabled: true
Boxcar width: 0
Storing dark spectrum: false
XAxis mode: Wavelengths
Number of Pixels in Spectrum: 2068
>>>>>Begin Spectral Data<<<<<
194.03	114.31434
194.578	115.35849
195.127	116.35612
195.676	140.4298
196.225	176.45309
196.773	177.4715
197.321	242.62341
197.87	325.75591
198.418	358.81571
198.966	278.64776
199.513	276.61109
200.061	343.76242
200.609	343.80971
201.156	288.55175
201.704	268.60129
202.251	325.76247
202.798	257.59872
203.345	329.72037
203.892	314.69956
204.438	396.82217
204.985	301.62424
205.532	294.68827
206.078	315.68302
206.624	363.77601
207.17	362.73246
207.716	273.58767
208.262	337.57606
208.808	241.52704
209.354	307.65744
209.899	351.78473
210.445	314.68536
210.99	281.59813
211.535	405.8234
212.08	333.6798
212.625	375.82142
213.17	370.8226
213.715	302.58417
214.259	374.75847
214.804	404.86944
215.348	334.67054
215.892	337.71076
216.436	408.81948
216.98	346.67089
217.524	345.71389
218.068	354.78573
218.612	365.80929
219.155	329.68139
219.698	328.6895
220.242	334.74011
220.785	305.63282
221.328	299.66546
221.871	330.74646
222.414	337.74598
222.956	284.60806
223.499	287.57445
224.041	360.73976
224.583	350.66633
225.126	335.6491
225.668	308.66486
226.21	291.65356
226.751	285.55063
227.293	350.70396
227.835	274.59806
228.376	369.74884
228.918	349.78187
229.459	288.63846
230	303.64046
230.541	299.61289
231.082	313.67261
231.622	324.66038
232.163	285.61455
232.704	341.74444
233.244	288.63686
233.784	310.67806
234.324	283.54598
234.864	285.57336
235.404	329.69237
235.944	332.69545
236.484	329.72858
237.023	309.64455
237.563	266.5466
238.102	301.6301
238.641	282.63712
239.18	253.52587
239.719	301.67185
240.258	357.7
240.797	316.66516
241.335	298.64851
241.874	330.54757
242.412	276.58889
242.95	288.60649
243.488	395.77781
244.026	300.60784
244.564	362.64198
245.102	345.67263
245.64	330.70135
246.177	312.61364
246.715	355.74609
247.252	328.66093
247.789	384.61963
248.326	258.54786
248.863	319.60834
249.4	377.74027
249.936	300.53782
250.473	311.63431
251.009	315.62874
251.546	327.62572
252.082	378.71089
252.618	323.62435
253.154	318.66701
253.69	316.62034
254.226	381.78344
254.761	339.65936
255.297	303.57698
255.832	329.67712
256.367	306.63078
256.903	291.55737
257.438	350.71369
257.972	309.599
258.507	256.51418
259.042	332.62222
259.576	280.5219
260.111	318.64107
260.645	370.68557
261.179	314.63563
261.713	309.59528
262.247	332.66345
262.781	319.57351
263.315	294.62865
263.849	309.67402
264.382	341.67779
264.915	328.66184
265.449	267.56561
265.982	409.78984
266.515	335.70623
267.048	359.64444
267.58	393.73055
268.113	279.52146
268.646	306.65601
269.178	336.64061
269.71	338.63252
270.243	345.67679
270.775	345.75795
271.307	368.76199
271.838	386.78638
272.37	306.65346
272.902	350.68157
273.433	379.69927
273.965	365.76001
274.496	358.76714
275.027	298.64162
275.558	344.71485
276.089	341.7132
276.62	381.8321
277.15	376.79423
277.681	387.70866
278.211	419.86972
278.741	298.56015
279.272	388.74299
279.802	382.81256
280.332	314.6333
280.861	333.68597
281.391	365.69641
281.921	367.75295
282.45	363.77534
282.98	385.85541
283.509	371.70064
284.038	427.80641
284.567	440.85643
285.096	401.81378
285.625	314.60506
286.153	340.67281
286.682	309.59958
287.21	339.69016
287.739	341.68032
288.267	358.72835
288.795	381.85144
289.323	366.71171
289.851	404.78561
290.378	385.71604
290.906	334.67797
291.433	382.7977
291.961	377.70464
292.488	366.76463
293.015	380.73858
293.542	366.77344
294.069	392.79715
294.596	359.74618
295.122	390.7685
295.649	402.72518
296.175	381.76825
296.702	421.84071
297.228	405.81402
297.754	416.75774
298.28	390.72119
298.806	398.78279
299.332	416.73815
299.857	412.75045
300.383	452.93591
300.908	347.69004
301.433	389.76996
301.958	447.83302
302.483	413.83545
303.008	459.91702
303.533	422.90231
304.058	477.89865
304.582	377.71931
305.107	358.76681
305.631	414.7606
306.155	362.68012
306.679	418.77568
307.203	400.74079
307.727	425.80382
308.251	457.89863
308.775	341.64967
309.298	446.83632
309.822	422.85268
310.345	464.8602
310.868	407.77014
311.391	480.92763
311.914	442.87138
312.437	486.85748
312.96	428.78593
313.482	474.86517
314.005	460.90091
314.527	463.95075
315.049	483.9511
315.571	459.76614
316.093	521.98012
316.615	483.88405
317.137	549.87331
317.659	519.9562
318.18	531.96458
318.702	519.89495
319.223	541.7953
319.744	558.90317
320.265	497.89133
320.786	474.8713
321.307	535.97926
321.828	570.91949
322.348	534.90734
322.869	576.95973
323.389	359.4109
323.909	533.87315
324.43	622.06526
324.95	561.89549
325.47	567.97986
325.989	530.87478
326.509	480.72919
327.029	533.81826
327.548	509.77999
328.067	580.94729
328.587	567.97829
329.106	590.88957
329.625	638.16664
330.144	553.84899
330.662	576.87469
331.181	581.89415
331.7	669.99891
332.218	622.84129
332.736	630.94143
333.255	587.87256
333.773	630.942
334.291	686.09182
334.808	755.98126
335.326	637.8744
335.844	626.87408
336.361	612.96055
336.879	650.89431
337.396	665.95041
337.913	684.9023
338.43	723.90515
338.947	692.94485
339.464	700.80281
339.981	703.929
340.497	760.05456
341.014	753.00965
341.53	721.85792
342.046	736.98482
342.562	774.05615
343.078	822.99268
343.594	778.97192
344.11	832.00397
344.626	827.08087
345.141	803.89428
345.657	865.94456
346.172	759.92915
346.687	781.86495
347.202	838.86326
347.717	856.96878
348.232	831.01832
348.747	834.87463
349.261	812.75009
349.776	858.90873
350.29	826.93035
350.805	932.04672
351.319	908.90774
351.833	846.79581
352.347	877.87683
352.861	829.8194
353.374	960.89712
353.888	883.91187
354.401	910.83184
354.915	905.75446
355.428	938.94906
355.941	903.8057
356.454	1012.82754
356.967	942.85912
357.48	1007.83839
357.993	1028.95899
358.505	949.87848
359.018	1054.93081
359.53	962.83349
360.042	1020.73383
360.554	1050.88881
361.066	1047.87227
361.578	1103.69493
362.09	1020.81538
362.602	1059.67289
363.113	1079.75578
363.625	1065.68413
364.136	1094.65471
364.647	991.64531
365.158	1068.70617
365.669	1174.78018
366.18	1159.73576
366.691	1186.6097
367.201	1149.72921
367.712	1114.60802
368.222	1050.59296
368.733	1149.48388
369.243	1153.49461
369.753	1187.57703
370.263	1242.6209
370.773	1211.66094
371.282	1233.5458
371.792	1200.38875
372.301	1253.4875
372.811	1281.63263
373.32	1274.18426
373.829	1313.30407
374.338	1417.14618
374.847	1472.12616
375.356	1384.14927
375.865	1448.86675
376.373	1661.82498
376.882	1664.0314
377.39	1610.89548
377.898	1494.82924
378.407	1743.51935
378.915	1722.44547
379.423	1875.39125
379.93	1960.23805
380.438	1859.25425
380.946	2080.04451
381.453	2115.98271
381.96	2076.95047
382.468	2312.85522
382.975	2576.79295
383.482	2654.89658
383.989	2571.83568
384.495	2609.05843
385.002	2620.53124
385.509	2741.60602
386.015	3100.96308
386.521	3232.158
387.028	3338.05208
387.534	3331.78306
388.04	3610.22997
388.546	3469.6286
389.051	3452.18933
389.557	3963.80205
390.063	4559.52574
390.568	4802.14444
391.073	4589.93955
391.578	4950.65457
392.084	4804.31342
392.589	4783.8987
393.093	4627.17475
393.598	5437.42349
394.103	6270.90115
394.607	6598.14715
395.112	7473.38359
395.616	7947.28016
396.12	8231.73269
396.624	9147.69187
397.128	10025.05609
397.632	11456.70266
398.136	12328.69817
398.639	11420.06877
399.143	12041.58071
399.646	13522.10515
400.15	14703.16983
400.653	15542.78928
401.156	12717.27327
401.659	4840.03801
402.162	1054.15589
402.664	0
403.167	0
403.67	0
404.172	0
404.674	0
405.176	0
405.678	0
406.18	0
406.682	0
407.184	0
407.686	0
408.187	0
408.688	0
409.19	0
409.691	0
410.192	0
410.693	0
411.194	435.30976
411.694	4082.94878
412.195	8864.71461
412.696	12089.80453
413.196	12760.96929
413.696	12863.67595
414.196	13703.56671
414.696	17261.84252
415.196	21764.24417
415.696	29583.19008
416.196	32842.45587
416.695	23060.37283
417.195	17315.5171
417.694	16195.81433
418.194	15826.78451
418.693	14226.01123
419.192	13707.28803
419.691	13651.72167
420.19	13637.5447
420.688	13529.63207
421.187	13243.51913
421.685	12531.11512
422.184	11713.03182
422.682	10187.67652
423.18	8125.18911
423.678	6816.5088
424.176	6434.6431
424.674	5927.15579
425.172	6034.76304
425.669	5586.29967
426.167	5363.48765
426.664	4895.57087
427.161	4496.6061
427.659	4104.14461
428.156	3593.48217
428.652	3478.26775
429.149	3323.09936
429.646	3255.02952
430.143	3136.71255
430.639	3008.66579
431.135	2679.72872
431.632	2538.78489
432.128	2293.98552
432.624	2179.15619
433.12	2019.11741
433.616	1836.24202
434.111	1749.38403
434.607	1659.53323
435.103	1802.41696
435.598	1826.43524
436.093	1725.75631
436.588	1680.8082
437.083	1588.93515
437.578	1446.08197
438.073	1293.24231
438.568	1396.33837
439.062	1346.13183
439.557	1313.38015
440.051	1127.33503
440.546	1092.35794
441.04	1105.47142
441.534	1085.60732
442.028	1101.55499
442.522	962.5333
443.015	1033.42985
443.509	974.61795
444.002	995.62742
444.496	888.45651
444.989	915.63584
445.482	912.66476
445.975	898.5117
446.468	899.46661
446.961	874.4691
447.454	861.55444
447.947	802.58222
448.439	822.6636
448.931	745.51556
449.424	802.72952
449.916	805.67734
450.408	765.55172
450.9	711.62247
451.392	659.65092
451.884	706.58961
452.375	566.56891
452.867	756.62623
453.358	554.48589
453.849	670.50344
454.341	596.52584
454.832	578.47551
455.323	565.58964
455.814	614.58291
456.304	593.576
456.795	545.53787
457.285	623.59124
457.776	664.65895
458.266	472.52277
458.756	525.59857
459.247	472.53089
459.737	517.57695
460.226	523.53725
460.716	465.54775
461.206	456.55324
461.695	412.55212
462.185	493.58724
462.674	461.54384
463.163	481.5342
463.653	504.51277
464.142	407.5297
464.63	486.64451
465.119	407.50637
465.608	361.45861
466.096	399.47371
466.585	389.51108
467.073	403.55893
467.561	384.54167
468.05	383.51988
468.538	424.61875
469.026	386.55178
469.513	376.45211
470.001	314.42882
470.489	345.49608
470.976	357.5034
471.463	339.53816
471.951	353.56845
472.438	243.36936
472.925	225.34199
473.412	306.49932
473.899	311.46514
474.385	237.3966
474.872	295.45244
475.359	236.39373
475.845	238.32456
476.331	343.49197
476.817	246.41969
477.303	218.35331
477.789	279.46817
478.275	230.40531
478.761	238.40932
479.247	243.38528
479.732	172.31231
480.218	191.36866
480.703	216.39381
481.188	198.30499
481.673	195.32649
482.158	165.25168
482.643	207.39897
483.128	135.22987
483.612	184.32221
484.097	196.36569
484.581	151.26909
485.066	130.24363
485.55	148.24514
486.034	120.19821
486.518	147.2644
487.002	122.23214
487.486	89.17162
487.969	102.19645
488.453	113.22817
488.936	111.19668
489.42	126.21971
489.903	122.24787
490.386	-349.51159
490.869	131.22704
491.352	162.31997
491.835	100.16572
492.318	111.20078
492.8	69.11539
493.283	63.13188
493.765	100.20095
494.247	133.25437
494.73	79.14297
495.212	121.24185
495.694	39.07549
496.175	12.02363
496.657	128.24985
497.139	156.21788
497.62	-2.00398
498.102	53.11012
498.583	56.11855
499.064	-9.01692
499.545	83.15774
500.026	38.0715
500.507	59.11525
500.988	58.1222
501.469	46.09747
501.949	41.08667
502.43	-12.02433
502.91	6.0105
503.39	53.11375
503.87	29.05791
504.35	57.11509
504.83	7.0131
505.31	33.06835
505.79	26.05316
506.269	71.14145
506.749	-12.02361
507.228	13.02619
507.707	65.12214
508.187	84.17176
508.666	41.08629
509.145	26.05215
509.623	73.14611
510.102	70.14547
510.581	120.24726
511.059	80.17122
511.538	156.34325
512.016	114.23193
512.494	152.31277
512.972	152.30628
513.45	86.1685
513.928	203.41027
514.406	125.25298
514.884	182.3949
515.361	164.33122
515.839	204.38628
516.316	243.4848
516.793	273.57579
517.27	300.60089
517.747	257.54942
518.224	257.49319
518.701	270.49452
519.178	284.57938
519.654	311.61067
520.131	284.58227
520.607	323.66238
521.083	263.49691
521.56	244.48103
522.036	263.47817
522.512	292.60138
522.987	268.52561
523.463	245.48698
523.939	223.4631
524.414	266.5133
524.89	212.42542
525.365	174.33464
525.84	159.32046
526.315	176.36117
526.79	171.32847
527.265	192.37139
527.74	141.29595
528.215	169.34077
528.689	128.24356
529.164	156.29033
529.638	142.31717
530.112	115.23424
530.587	124.22653
531.061	123.25623
531.534	134.28232
532.008	81.17017
532.482	144.28589
532.956	39.08774
533.429	90.1912
533.903	85.16493
534.376	116.22255
534.849	77.15691
535.322	111.22866
535.795	97.20809
536.268	53.11257
536.741	88.18606
537.213	99.20064
537.686	45.09691
538.158	79.15446
538.631	114.24345
539.103	67.13168
539.575	154.27706
540.047	91.17539
540.519	146.30408
540.991	124.2663
541.463	78.16686
541.934	78.15717
542.406	114.23712
542.877	94.18601
543.348	122.25828
543.82	179.38069
544.291	170.34413
544.762	145.29763
545.233	138.30084
545.703	133.25412
546.174	216.42803
546.645	164.33503
547.115	214.43876
547.585	260.50269
548.056	201.40977
548.526	243.47782
548.996	311.62105
549.466	371.74534
549.935	303.58878
550.405	406.70656
550.875	411.77962
551.344	426.81971
551.814	471.85295
552.283	498.84384
552.752	495.8946
553.221	554.90783
553.69	617.02363
554.159	690.25748
554.628	711.14889
555.096	749.40146
555.565	873.35611
556.033	890.49149
556.502	899.55965
556.97	1029.54667
557.438	1107.78359
557.906	1151.84961
558.374	1251.87032
558.842	1324.04771
559.31	1532.04369
559.777	1506.24294
560.245	1753.36014
560.712	1839.3569
561.18	2000.23762
561.647	2293.36357
562.114	2316.44101
562.581	2575.86879
563.048	2766.54952
563.514	2953.82882
563.981	3236.42586
564.448	3516.21187
564.914	3755.33576
565.381	4234.96593
565.847	4437.02486
566.313	4729.82098
566.779	5055.44947
567.245	5551.41861
567.711	5815.44383
568.176	6176.97631
568.642	6625.50868
569.108	7093.4434
569.573	7550.48637
570.038	8265.99996
570.504	8677.72628
570.969	9184.77344
571.434	9766.43461
571.899	10335.11291
572.363	11029.18387
572.828	11719.66187
573.293	12163.28506
573.757	12823.66778
574.222	13625.26
574.686	14118.4633
575.15	14705.91137
575.614	15270.1114
576.078	16004.54629
576.542	16583.7244
577.006	16926.06873
577.469	17604.10164
577.933	17786.0699
578.396	18316.34795
578.86	18384.48011
579.323	18678.20582
579.786	18762.75847
580.249	18991.61189
580.712	19168.02672
581.175	19031.98861
581.637	19106.65301
582.1	19171.76878
582.563	18986.72723
583.025	18901.67534
583.487	18971.176
583.95	18783.17669
584.412	18767.31168
584.874	18426.22439
585.336	18147.16245
585.797	17812.98586
586.259	17911.08145
586.721	17456.56749
587.182	17351.12
587.643	17249.63417
588.105	16842.78814
588.566	16510.26957
589.027	16220.30563
589.488	16015.00507
589.949	15623.56049
590.41	15562.05397
590.87	15189.10252
591.331	14851.674
591.791	14445.81314
592.252	14184.62061
592.712	13732.94535
593.172	13398.13844
593.632	13172.64373
594.092	12778.5742
594.552	12511.0814
595.011	11876.53189
595.471	11773.10276
595.931	11557.94036
596.39	11061.02394
596.849	10746.78078
597.308	10513.11145
597.768	10089.09734
598.227	9927.69868
598.685	9749.24572
599.144	9444.38968
599.603	9200.79925
600.062	8993.38648
600.52	8786.93237
600.978	8465.45041
601.437	8330.20384
601.895	8161.86045
602.353	7942.6674
602.811	7763.48192
603.269	7741.67678
603.727	7398.46048
604.184	7354.20756
604.642	7171.46786
605.099	7107.21643
605.557	6896.39662
606.014	6763.82182
606.471	6690.47263
606.928	6596.75658
607.385	6553.31647
607.842	6536.04963
608.299	6493.15669
608.755	6446.31725
609.212	6300.9224
609.668	6191.8971
610.125	6205.39464
610.581	6223.3513
611.037	6155.16102
611.493	6030.3728
611.949	5865.49474
612.405	5891.58594
612.861	5894.41741
613.316	5705.53212
613.772	5743.30836
614.227	5607.51123
614.683	5725.98351
615.138	5598.47327
615.593	5552.46236
616.048	5559.40472
616.503	5462.89764
616.958	5375.04468
617.412	5219.76294
617.867	5201.35563
618.321	5100.11252
618.776	4983.52738
619.23	4942.89497
619.684	4829.75641
620.138	4733.99641
620.592	4566.36092
621.046	4542.18016
621.5	4426.45555
621.954	4326.07052
622.407	4162.09305
622.861	4050.67564
623.314	4045.29852
623.768	3871.51172
624.221	3777.6745
624.674	3620.56928
625.127	3544.69886
625.58	3651.54391
626.033	3452.4498
626.485	3430.88056
626.938	3355.89622
627.39	3185.8091
627.843	3105.80519
628.295	3092.80985
628.747	3032.97663
629.199	2943.75326
629.651	2849.75939
630.103	2794.81142
630.555	2806.44533
631.006	2591.94131
631.458	2607.97355
631.909	2530.86481
632.361	2510.92442
632.812	2369.8425
633.263	2410.56197
633.714	2421.54555
634.165	2305.08043
634.616	2163.93213
635.067	2196.66647
635.518	2127.94481
635.968	2164.27601
636.419	2095.5546
636.869	2048.90346
637.319	1982.74376
637.769	1957.60187
638.219	1935.87031
638.669	1845.79027
639.119	1887.92514
639.569	1799.80941
640.019	1848.69264
640.468	1795.5295
640.918	1807.82851
641.367	1671.46283
641.816	1746.50931
642.265	1698.59303
642.714	1643.55136
643.163	1663.54859
643.612	1550.5833
644.061	1595.22231
644.51	1585.45184
644.958	1575.33078
645.406	1632.66369
645.855	1580.70937
646.303	1607.57412
646.751	1549.42196
647.199	1599.47087
647.647	1496.41435
648.095	1501.40829
648.543	1503.09103
648.99	1451.49147
649.438	1476.47781
649.885	1453.61909
650.333	1405.8745
650.78	1360.43032
651.227	1400.50084
651.674	1420.32282
652.121	1325.4165
652.568	1337.42381
653.015	1412.65501
653.461	1385.41782
653.908	1365.33929
654.354	1252.28004
654.801	1215.17854
655.247	1312.12247
655.693	1201.46591
656.139	1182.20192
656.585	1187.2118
657.031	1129.05479
657.477	1200.95977
657.922	1202.12165
658.368	1118.19727
658.813	1074.99463
659.259	1077.06459
659.704	1073.99031
660.149	1089.0127
660.594	1084.05266
661.039	1012.85973
661.484	980.92433
661.929	949.82973
662.373	920.94366
662.818	963.98004
663.262	909.82705
663.707	898.92112
664.151	901.84998
664.595	789.6351
665.039	935.94825
665.483	862.87102
665.927	846.69132
666.371	778.54229
666.814	807.65458
667.258	735.50952
667.701	846.53931
668.145	760.65023
668.588	718.54773
669.031	702.44523
669.474	663.41715
669.917	727.4018
670.36	706.54458
670.803	696.48423
671.245	648.20707
671.688	687.48559
672.13	671.32587
672.573	655.49036
673.015	630.35553
673.457	643.24254
673.899	655.41693
674.341	597.30122
674.783	564.2279
675.225	563.26017
675.666	533.16988
676.108	569.11822
676.549	569.22595
676.991	536.07827
677.432	568.01798
677.873	520.10463
678.314	513.12734
678.755	492.10668
679.196	447.95555
679.637	507.14443
680.078	514.10846
680.518	468.01556
680.959	477.06039
681.399	450.04175
681.839	462.04757
682.28	399.92981
682.72	411.88583
683.16	411.96492
683.6	438.93774
684.039	435.84892
684.479	385.89543
684.919	357.78266
685.358	368.88971
685.798	408.00816
686.237	396.90774
686.676	396.87162
687.115	410.90962
687.554	381.85916
687.993	387.81226
688.432	360.78475
688.871	341.74034
689.309	342.78178
689.748	367.73186
690.186	331.75984
690.625	309.69797
691.063	345.79165
691.501	357.84308
691.939	339.80957
692.377	319.7484
692.815	270.6269
693.253	296.68888
693.69	303.64355
694.128	277.65039
694.565	294.67856
695.003	285.70036
695.44	310.70237
695.877	257.58455
696.314	305.6348
696.751	327.71841
697.188	261.58403
697.625	306.68005
698.061	270.62937
698.498	285.66917
698.934	239.56315
699.371	241.55437
699.807	259.5972
700.243	243.57123
700.679	280.61633
701.115	256.58899
701.551	258.59288
701.987	282.61656
702.422	242.56167
702.858	224.5236
703.294	260.57495
703.729	260.61987
704.164	221.52215
704.599	258.56099
705.035	210.46284
705.47	223.53157
705.904	183.4218
706.339	269.61011
706.774	227.52154
707.209	206.46789
707.643	226.53241
708.078	156.37735
708.512	192.47281
708.946	211.49795
709.38	203.47424
709.814	205.46251
710.248	179.43176
710.682	220.51364
711.116	126.29996
711.549	177.4513
711.983	204.46467
712.416	199.46453
712.85	228.55689
713.283	214.49807
713.716	246.60398
714.149	233.54474
714.582	150.33614
715.015	190.46978
715.448	208.5156
715.881	222.47861
716.313	167.38845
716.746	203.4707
717.178	190.45092
717.61	176.44138
718.043	171.42211
718.475	168.40377
718.907	225.55885
719.339	163.367
719.77	155.36495
720.202	153.38405
720.634	148.35787
721.065	191.44708
721.497	189.45726
721.928	161.39187
722.359	102.24646
722.79	146.3477
723.221	192.47664
723.652	205.52047
724.083	139.3131
724.514	184.41844
724.945	126.29615
725.375	107.24899
725.806	161.39888
726.236	170.43108
726.666	166.39001
727.096	142.34698
727.526	134.33872
727.956	158.35698
728.386	172.41934
728.816	127.32016
729.246	137.33146
729.675	96.23694
730.105	154.37658
730.534	177.41009
730.964	170.42556
731.393	181.44482
731.822	137.34821
732.251	166.41705
732.68	179.41784
733.109	170.41462
733.537	103.24939
733.966	94.23421
734.395	151.34708
734.823	170.38096
735.251	115.27719
735.68	191.47199
736.108	152.38174
736.536	176.41108
736.964	133.30815
737.392	163.40413
737.82	147.35109
738.247	155.36892
738.675	166.39366
739.102	110.27468
739.53	113.28721
739.957	128.32781
740.384	165.4037
740.811	128.32343
741.238	89.21825
741.665	137.31666
742.092	168.39779
742.519	74.18425
742.945	151.36023
743.372	157.38541
743.798	113.29005
744.225	137.32458
744.651	131.32741
745.077	109.27183
745.503	155.37543
745.929	116.27838
746.355	197.48288
746.781	87.21658
747.207	92.21675
747.632	72.17666
748.058	145.35951
748.483	111.25626
748.908	105.2611
749.334	95.23408
749.759	97.22964
750.184	86.20591
750.609	130.31849
751.033	149.35055
751.458	121.27199
751.883	126.31143
752.307	141.33031
752.732	73.18324
753.156	87.21571
753.58	156.36795
754.005	114.28898
754.429	123.28871
754.853	79.19666
755.277	100.23742
755.7	109.27035
756.124	123.30419
756.548	58.13893
756.971	132.32111
757.394	94.24242
757.818	89.22941
758.241	64.16345
758.664	110.27736
759.087	81.18215
759.51	91.22711
759.933	54.13127
760.356	107.27398
760.778	71.17572
761.201	118.28673
761.623	153.36849
762.046	123.29164
762.468	107.25751
762.89	103.25454
763.312	121.29484
763.734	86.20795
764.156	78.19357
764.578	133.30522
765	87.2131
765.421	82.20868
765.843	115.30043
766.264	186.44313
766.686	108.27105
767.107	61.14909
767.528	46.11711
767.949	87.22168
768.37	62.15336
768.791	159.38106
769.212	51.12908
769.632	45.10612
770.053	125.32722
770.473	70.17137
770.894	114.28487
771.314	140.33265
771.734	72.16903
772.154	124.31679
772.575	106.24603
772.994	90.20525
773.414	104.24996
773.834	81.20311
774.254	126.30697
774.673	120.29137
775.093	48.11982
775.512	56.13898
775.931	100.25323
776.351	114.28208
776.77	89.21784
777.189	125.29603
777.607	66.16927
778.026	90.22433
778.445	31.07838
778.864	95.24351
779.282	74.17887
779.701	91.22941
780.119	81.20493
780.537	91.22703
780.955	139.35066
781.373	64.15912
781.791	72.16275
782.209	82.1898
782.627	68.17955
783.045	99.22774
783.462	95.24232
783.88	58.15067
784.297	65.16416
784.715	54.13931
785.132	82.19888
785.549	52.13088
785.966	102.25581
786.383	108.26469
786.8	101.23438
787.217	78.18541
787.633	15.0379
788.05	132.31146
788.466	114.26795
788.883	68.17379
789.299	94.22618
789.715	90.21869
790.131	69.17208
790.547	87.21721
790.963	75.1865
791.379	84.21226
791.795	58.13334
792.21	103.24025
792.626	76.18079
793.041	81.20003
793.457	86.21249
793.872	80.1884
794.287	29.06993
794.702	123.30095
795.117	63.157
795.532	80.20042
795.947	126.30111
796.362	129.30574
796.776	134.31139
797.191	75.18385
797.605	23.05462
798.02	92.22347
798.434	109.2419
798.848	122.29811
799.262	62.15426
799.676	103.25042
800.09	71.17501
800.504	59.14382
800.918	89.20604
801.331	115.29951
801.745	73.16813
802.158	106.26363
802.572	82.19895
802.985	106.25515
803.398	91.21668
803.811	112.28623
804.224	107.26501
804.637	57.1364
805.05	100.2311
805.462	70.17232
805.875	56.14553
806.288	69.16669
806.7	87.21823
807.112	79.18333
807.525	91.22406
807.937	55.13647
808.349	84.21013
808.761	66.16272
809.173	65.15792
809.584	74.18304
809.996	51.12543
810.408	53.13718
810.819	39.09244
811.231	45.11676
811.642	100.23724
812.053	121.28523
812.464	168.3924
812.875	162.40744
813.286	121.30874
813.697	165.37956
814.108	106.25757
814.519	129.28474
814.929	128.32332
815.34	99.23907
815.75	56.14267
816.16	110.27239
816.571	86.22279
816.981	116.2719
817.391	94.22618
817.801	37.09248
818.211	120.2837
818.62	117.27934
819.03	95.23192
819.44	131.3386
819.849	74.18639
820.259	118.29955
820.668	51.1259
821.077	72.17875
821.486	95.22794
821.895	130.3179
822.304	82.21674
822.713	62.14692
823.122	85.2116
823.531	105.24742
823.939	94.22807
824.348	90.21812
824.756	122.30276
825.164	99.24788
825.573	87.2176
825.981	111.2733
826.389	125.31094
826.797	61.15301
827.205	89.20359
827.612	86.21163
828.02	58.13654
828.428	119.30032
828.835	91.23846
829.243	102.24171
829.65	74.18378
830.057	93.22475
830.464	105.25414
830.871	102.24282
831.278	103.24742
831.685	124.27387
832.092	139.33592
832.499	58.1273
832.905	113.28375
833.312	118.26672
833.718	114.28167
834.124	87.19821
834.531	98.24569
834.937	78.19976
835.343	122.29144
835.749	118.27313
836.155	93.2423
836.561	68.16721
836.966	82.2
837.372	117.29506
837.777	87.21587
838.183	96.21239
838.588	106.26123
838.993	104.25148
839.399	89.21663
839.804	42.10278
840.209	49.12503
840.613	51.11389
841.018	102.25654
841.423	106.26985
841.828	38.09654
842.232	71.17572
842.637	97.2275
843.041	105.26707
843.445	68.17042
843.849	76.18771
844.253	119.27997
844.657	57.14365
845.061	73.16544
845.465	71.17126
845.869	81.18767
846.272	68.16542
846.676	72.1739
847.079	60.15259
847.483	138.33959
847.886	124.29837
848.289	91.24154
848.692	96.24163
849.095	79.18919
849.498	154.38398
849.901	98.22332
850.304	119.28139
850.707	105.26565
851.109	135.33716
851.512	54.13289
851.914	76.19095
852.316	54.13674
852.718	51.13183
853.121	59.14463
853.523	55.12874
853.925	75.19507
854.326	43.10782
854.728	81.20748
855.13	58.14958
855.531	81.1928
855.933	119.28259
856.334	80.19868
856.736	67.14993
857.137	67.1556
857.538	65.16322
857.939	52.12862
858.34	117.28211
858.741	82.21346
859.142	70.16786
859.542	75.19727
859.943	44.10963
860.343	46.11416
860.744	92.22313
861.144	93.22543
861.544	47.1132
861.945	99.25047
862.345	89.21647
862.745	63.15643
863.145	121.2859
863.544	79.19887
863.944	105.24588
864.344	93.22957
864.743	146.35649
865.143	100.25494
865.542	82.18935
865.941	81.19966
866.34	87.20731
866.74	64.17154
867.139	81.19309
867.537	112.2826
867.936	87.20827
868.335	49.12485
868.734	88.22363
869.132	80.1851
869.531	111.26582
869.929	70.15919
870.327	63.15087
870.726	94.23285
871.124	124.2861
871.522	74.18792
871.92	96.23511
872.318	82.19955
872.715	133.32469
873.113	95.22985
873.511	131.32195
873.908	59.14885
874.306	72.17855
874.703	91.22629
875.1	103.26133
875.497	93.22144
875.894	43.1056
876.291	88.21471
876.688	89.22821
877.085	74.17698
877.482	74.18465
877.878	121.28767
878.275	94.23719
878.671	127.2788
879.068	112.26755
879.464	61.14731
879.86	77.18137
880.256	74.18203
880.652	98.24737
881.048	105.25786
881.444	99.23374
881.84	55.1398
882.236	101.25188
882.631	55.13502
883.027	80.19286
883.422	84.21369
883.817	50.12576
884.213	92.23454
884.608	46.11299
885.003	105.25078
885.398	76.1895
885.793	95.23675
886.188	71.17598
886.582	128.32413
886.977	90.2122
887.371	122.30486
887.766	64.15889
888.16	107.26452
888.554	138.33608
888.949	129.31961
889.343	106.25651
889.737	57.1518
890.131	106.26344
890.525	100.25368
890.918	72.18064
891.312	116.27435
891.706	97.25263
892.099	100.25242
892.492	81.17384
892.886	93.22594
893.279	75.19036
893.672	71.18021
894.065	113.27997
894.458	69.17308
894.851	90.2191
895.244	83.21089
895.637	43.1038
896.029	106.2567
896.422	94.22798
896.814	99.24412
897.206	64.15213
897.599	155.37628
897.991	57.13775
898.383	73.17188
898.775	93.20828
899.167	48.11207
899.559	130.32462
899.951	91.21301
900.342	96.24232
900.734	40.09949
901.125	76.19865
901.517	110.26719
901.908	78.18619
902.299	72.17541
902.69	90.21088
903.082	108.25888
903.473	80.1906
903.863	76.19314
904.254	70.16196
904.645	136.33319
905.036	45.10912
905.426	119.26892
905.817	91.22174
906.207	80.18965
906.597	88.20442
906.987	77.19875
907.378	84.21127
907.768	85.2235
908.158	65.15815
908.547	63.16245
908.937	80.20431
909.327	108.25957
909.717	124.31087
910.106	33.07957
910.495	112.27663
910.885	85.21406
911.274	111.27451
911.663	78.1971
912.052	104.25422
912.441	64.16241
912.83	89.20285
913.219	91.2366
913.608	96.23327
913.997	41.10299
914.385	103.24374
914.774	98.23661
915.162	41.09793
915.55	119.28433
915.939	42.10621
916.327	80.19868
916.715	41.10469
917.103	105.25595
917.491	109.26689
917.878	60.14732
918.266	72.18607
918.654	73.18581
919.041	30.0786
919.429	69.16234
919.816	94.23651
920.203	61.1477
920.591	104.25545
920.978	171.4095
921.365	74.19342
921.752	45.10744
922.139	91.19598
922.525	31.07475
922.912	94.22747
923.299	56.13908
923.685	87.22558
924.072	114.25967
924.458	78.1923
924.844	53.13112
925.231	76.17605
925.617	65.16492
926.003	88.22347
926.389	82.20572
926.774	126.31508
927.16	82.20253
927.546	48.12259
927.931	81.20105
928.317	123.27932
928.702	83.1952
929.088	77.18123
929.473	72.18252
929.858	30.07282
930.243	60.14377
930.628	77.18644
931.013	73.1802
931.398	115.26116
931.783	102.26624
932.167	48.11742
932.552	68.16986
932.937	88.21695
933.321	60.15031
933.705	54.13606
934.09	111.27752
934.474	81.19131
934.858	90.23187
935.242	29.06751
935.626	53.13562
936.009	57.15144
936.393	97.2448
936.777	83.21134
937.16	96.24784
937.544	95.22194
937.927	25.06372
938.311	95.23002
938.694	114.29828
939.077	69.16461
939.46	128.30986
939.843	114.23458
940.226	70.17896
940.609	66.15107
940.991	65.16504
941.374	68.16567
941.757	74.18183
942.139	93.20708
942.522	74.17414
942.904	36.08679
943.286	85.21467
943.668	94.24167
944.05	93.22729
944.432	105.25653
944.814	76.18633
945.196	41.10009
945.578	9.02156
945.959	121.27968
946.341	114.27659
946.722	92.21421
947.104	76.18079
947.485	86.19874
947.866	55.13846
948.247	55.13866
948.628	61.14853
949.009	73.1862
949.39	97.23945
949.771	122.2798
950.152	35.08615
950.532	46.11324
950.913	107.25536
951.293	52.14043
951.674	92.22078
952.054	67.16551
952.434	75.18535
952.814	72.17062
953.194	102.26461
953.574	93.22729
953.954	62.14692
954.334	69.17139
954.714	39.09525
955.093	149.35968
955.473	66.16457
955.853	74.19078
956.232	93.25315
956.611	92.21893
956.99	54.13562
957.37	94.23769
957.749	78.18512
958.128	82.20543
958.506	93.23947
958.885	78.1959
959.264	45.11039
959.643	72.16314
960.021	67.16551
960.4	61.13797
960.778	93.22729
961.156	58.1452
961.535	110.2534
961.913	101.23401
962.291	54.13844
962.669	63.15922
963.047	97.2455
963.424	71.18053
963.802	73.17875
964.18	128.31939
964.557	129.29247
964.935	109.25535
965.312	66.17139
965.69	113.27976
966.067	96.23178
966.444	104.25375
966.821	59.15187
967.198	124.29667
967.575	103.2508
967.952	126.29257
968.329	111.26704
968.705	98.20801
969.082	99.25172
969.458	40.09614
969.835	89.21509
970.211	37.09517
970.587	112.27571
970.963	121.30657
971.339	48.12538
971.715	113.27894
972.091	118.28694
972.467	90.22286
972.843	41.10192
973.219	134.31667
973.594	30.07874
973.97	124.291
974.345	52.12441
974.721	78.1879
975.096	63.15208
975.471	86.20261
975.846	90.21459
976.221	79.19959
976.596	65.15537
976.971	62.15274
977.346	92.21244
977.72	84.21271
978.095	51.13178
978.469	110.25955
978.844	131.32456
979.218	54.12934
979.593	66.15767
979.967	56.13628
980.341	85.19436
980.715	82.20543
981.089	83.20654
981.463	38.08747
981.837	54.13186
982.21	120.27544
982.584	61.14703
982.957	36.09012
983.331	116.27073
983.704	59.14473
984.078	37.0914
984.451	126.3104
984.824	63.15306
985.197	83.20036
985.57	99.24609
985.943	91.22307
986.316	116.28155
986.688	103.24591
987.061	97.22528
987.434	68.17665
987.806	53.12847
988.179	67.15757
988.551	130.32509
988.923	98.2392
989.295	81.20127
989.667	13.03128
990.039	78.19173
990.411	87.19877
990.783	100.22797
991.155	-12.02917
991.527	165.39769
991.898	51.12705
992.27	79.19437
992.641	91.22662
993.012	96.22388
993.384	73.17335
993.755	76.19286
994.126	111.26389
994.497	78.19046
994.868	97.22073
995.239	83.19991
995.61	48.12081
995.98	70.16939
996.351	62.15319
996.722	65.1503
997.092	20.04763
997.462	12.02824
997.833	118.27605
998.203	123.29411
998.573	46.11462
998.943	83.19337
999.313	116.27445
999.683	99.23537
1000.053	72.16493
1000.423	108.25957
1000.792	96.24681
1001.162	40.09862
1001.531	72.17679
1001.901	94.23243
1002.27	135.29648
1002.639	48.12267
1003.009	95.22394
1003.378	101.2559
1003.747	115.26824
1004.116	61.14564
1004.485	73.17369
1004.853	83.20902
1005.222	98.24498
1005.591	103.24205
1005.959	64.14378
1006.328	63.14139
1006.696	78.18712
1007.064	81.20259
1007.433	86.2135
1007.801	85.20728
1008.169	99.24779
1008.537	109.23838
1008.905	78.18069
1009.273	106.25911
1009.64	72.17101
1010.008	90.21286
1010.375	164.38967
1010.743	123.27989
1011.11	45.10657
1011.478	100.24517
1011.845	103.23968
1012.212	65.14665
1012.579	102.24794
1012.946	96.22643
1013.313	106.24953
1013.68	96.21372
1014.047	28.06699
1014.414	54.12742
1014.78	68.16839
1015.147	121.28866
1015.513	91.21751
1015.88	109.27577
1016.246	99.24214
1016.612	129.29057
1016.978	109.26411
1017.344	68.16746
1017.71	101.2439
1018.076	154.35574
1018.442	94.23989
1018.808	73.18166
1019.174	91.22653
1019.539	159.358
1019.905	51.12022
1020.27	39.09642
1020.636	108.25602
1021.001	81.19272
1021.366	68.16269
1021.731	94.23981
1022.096	55.13856
1022.461	56.13234
1022.826	96.22608
1023.191	77.20102
1023.556	85.1978
1023.92	91.22199
1024.285	92.22271
1024.649	87.21168
1025.014	107.26219
1025.378	70.1753
1025.742	93.22907
1026.107	113.25224
1026.471	89.20613
1026.835	117.28637
1027.199	60.1441
1027.562	87.20069
1027.926	71.17288
1028.29	67.16897
1028.654	96.21876
1029.017	107.26015
1029.381	50.1194
1029.744	78.19787
1030.107	113.26399
1030.471	90.21376
1030.834	123.27558
1031.197	120.28513
1031.56	104.24273
1031.923	74.19045
1032.286	92.21421
1032.648	121.28534
1033.011	48.11018
1033.374	102.23722
1033.736	57.14962
1034.099	106.25554
1034.461	17.04318
1034.823	97.23936
1035.185	67.16806
1035.548	112.26929
1035.91	70.16697
1036.272	92.20753
1036.634	109.26362
1036.995	49.11515
1037.357	47.11436
1037.719	75.18146
1038.08	122.28552
1038.442	42.0998
1038.803	86.20497
1039.165	88.22046
1039.526	85.20395
1039.887	83.19725
1040.248	58.14262
1040.609	117.28542
1040.97	67.16314
1041.331	83.20879
1041.692	53.12358
1042.053	79.17875
1042.413	110.25319
1042.774	119.28552
1043.134	109.25645
1043.495	101.25143
1043.855	82.19761
1044.215	50.12404
1044.576	47.11238
1044.936	88.20013
1045.296	84.20823
1045.656	71.17346
1046.016	145.34353
1046.375	108.25898
1046.735	12.0274
1047.095	64.14931
1047.454	133.27657
1047.814	90.21459
1048.173	144.33767
1048.533	58.1326
1048.892	28.06745
1049.251	103.25594
1049.61	47.11572
1049.969	72.1689
1050.328	95.20389
1050.687	61.14803
1051.046	129.30928
1051.405	100.24635
1051.763	54.124
1052.122	75.18609
1052.48	77.18777
1052.839	106.24652
1053.197	69.16171
1053.555	104.2344
1053.914	83.20165
1054.272	81.19457
1054.63	62.15116
1054.988	36.0857
1055.345	58.12462
1055.703	76.1819
1056.061	63.1616
1056.419	64.16517
1056.776	113.27061
1057.134	76.17494
1057.491	99.24555
1057.848	95.23442
1058.206	92.21447
1058.563	63.13842
1058.92	127.28806
1059.277	75.18405
1059.634	77.1801
1059.991	55.13156
1060.348	64.14413
1060.704	75.17776
1061.061	183.41372
1061.418	71.17139
1061.774	84.20595
1062.131	52.13735
1062.487	71.16522
1062.843	87.21532
1063.199	60.14885
1063.555	62.14322
1063.911	87.21815
1064.267	109.22424
1064.623	61.14775
1064.979	133.30986
1065.335	112.26438
1065.691	38.09123
1066.046	58.12725
1066.402	27.06159
1066.757	81.20318
1067.112	118.28576
1067.468	5.0119
1067.823	106.25196
1068.178	65.15667
1068.533	123.29388
1068.888	77.18292
1069.243	74.1817
1069.598	63.1526
1069.952	33.07452
1070.307	49.12123
1070.662	22.05248
1071.016	63.14069
1071.371	89.20072
1071.725	120.28304
1072.079	40.09632
1072.434	71.17172
1072.788	72.17062
1073.142	96.23397
1073.496	56.1326
1073.85	106.24291
1074.203	72.17384
1074.557	54.1434
1074.911	113.26627
1075.265	97.22323
1075.618	84.20365
1075.971	94.22154
1076.325	61.15461
1076.678	45.10294
1077.031	29.06586
1077.385	93.20287
1077.738	67.15061
1078.091	38.08656
1078.444	82.18905
1078.796	62.15167
1079.149	80.19774
1079.502	54.12737
1079.855	62.14413
1080.207	96.23432
1080.56	46.11888
1080.912	65.15768
1081.264	99.236
1081.617	47.11453
1081.969	62.15594
1082.321	67.16296
1082.673	68.15452
1083.025	103.24167
1083.377	-114.25316
1083.728	119.27364
1084.08	82.20335
1084.432	72.17279
1084.783	143.32869
1085.135	53.13266
1085.486	23.05287
1085.838	78.19095
1086.189	52.12607
1086.54	104.24559
1086.891	35.08868
1087.242	43.10474
1087.593	139.33249
1087.944	44.09962
1088.295	131.29266
1088.646	73.17602
1088.996	61.14653
1089.347	61.14925
1089.698	29.06876
1090.048	109.27998
1090.398	51.11816
1090.749	131.30832
1091.099	54.13557
1091.449	88.21751
1091.799	65.16216
1092.149	51.12423
1092.499	91.22009
1092.849	97.24427
1093.199	109.27006
1093.548	47.1129
1093.898	71.17681
1094.248	108.27446
1094.597	-32.08279
1094.947	66.17544
1095.296	81.1987
1095.645	91.23481
1095.994	94.22369
1096.343	89.2222
1096.692	59.15461
1097.041	16.04352
1097.39	89.22147
1097.739	66.17092
1098.088	110.29153
1098.437	10.02642
1098.785	112.29861
1099.134	67.17724
1099.482	61.16733
1099.83	106.27564
1100.179	52.13546
1100.527	90.23732
1100.875	60.15822
1101.223	84.22158
1101.571	77.21169
1101.919	3.00789
1102.267	36.10148
1102.615	1.00322
1102.962	25.08035
1103.31	12.03853
1103.658	26.0836
