Data from N2 R15 sample 11_Subt2__5__15-19-12-015.txt Node

Date: Tue Sep 02 15:19:12 PDT 2025
User: uwsun
Spectrometer: HDX01956
Trigger mode: 0
Integration Time (sec): 5.000000E-1
Scans to average: 1
Nonlinearity correction enabled: true
Boxcar width: 0
Storing dark spectrum: false
XAxis mode: Wavelengths
Number of Pixels in Spectrum: 2068
>>>>>Begin Spectral Data<<<<<
194.03	239.6459
194.578	260.79537
195.127	236.713
195.676	249.75337
196.225	304.76505
196.773	306.79752
197.321	397.99488
197.87	511.14268
198.418	479.06264
198.966	427.96562
199.513	374.81111
200.061	409.89664
200.609	465.06952
201.156	398.74224
201.704	380.8329
202.251	402.92887
202.798	413.93245
203.345	494.04201
203.892	438.95069
204.438	459.93956
204.985	459.9183
205.532	415.94841
206.078	500.03945
206.624	457.95705
207.17	477.93973
207.716	439.91123
208.262	488.80049
208.808	411.86644
209.354	415.86795
209.899	530.13911
210.445	433.92122
210.99	443.90968
211.535	470.94139
212.08	462.91552
212.625	475.01655
213.17	510.09888
213.715	400.7556
214.259	491.96913
214.804	508.06691
215.348	466.90705
215.892	527.0633
216.436	525.02432
216.98	523.97131
217.524	469.94352
218.068	438.95514
218.612	528.12897
219.155	412.83744
219.698	449.91868
220.242	430.93373
220.785	475.94811
221.328	440.95056
221.871	474.03865
222.414	492.05186
222.956	395.82539
223.499	430.83219
224.041	491.97913
224.583	484.89148
225.126	482.90116
225.668	423.89056
226.21	461.99911
226.751	405.75999
227.293	400.79525
227.835	397.84391
228.376	450.89633
228.918	466.0168
229.459	376.81823
230	439.90025
230.541	454.89799
231.082	430.90071
231.622	476.93665
232.163	489.00637
232.704	435.93071
233.244	398.85984
233.784	485.01963
234.324	375.7075
234.864	441.85532
235.404	440.90332
235.944	482.97614
236.484	505.07528
237.023	447.90382
237.563	441.87043
238.102	498.99701
238.641	421.92411
239.18	395.79502
239.719	465.00068
240.258	422.81475
240.797	444.90824
241.335	441.93049
241.874	490.77737
242.412	483.98421
242.95	460.93202
243.488	431.84151
244.026	454.88747
244.564	495.84763
245.102	488.91915
245.64	481.9886
246.177	451.85801
246.715	458.9407
247.252	457.89355
247.789	475.74684
248.326	420.86032
248.863	440.81448
249.4	471.90435
249.936	464.79686
250.473	462.90996
251.009	431.83712
251.546	492.90394
252.082	478.87689
252.618	494.91584
253.154	455.92547
253.69	476.89919
254.226	433.87992
254.761	450.85215
255.297	440.81001
255.832	461.92059
256.367	480.95075
256.903	445.82065
257.438	530.03483
257.972	437.82126
258.507	451.86511
259.042	445.81078
259.576	426.76534
260.111	470.9144
260.645	468.846
261.179	457.89482
261.713	478.88351
262.247	468.90574
262.781	444.77271
263.315	453.93525
263.849	458.96741
264.382	470.90613
264.915	497.96394
265.449	423.86548
265.982	546.01822
266.515	480.97965
267.048	499.86366
267.58	520.9362
268.113	478.84953
268.646	471.97372
269.178	456.84411
269.71	493.88734
270.243	519.97635
270.775	507.07393
271.307	478.96539
271.838	536.05301
272.37	527.06963
272.902	514.96195
273.433	461.83313
273.965	506.01875
274.496	502.04037
275.027	500.0279
275.558	431.87825
276.089	411.84626
276.62	540.13772
277.15	511.0456
277.681	487.86935
278.211	528.06752
278.741	468.84298
279.272	479.8971
279.802	522.07466
280.332	425.83531
280.861	531.04341
281.391	524.9613
281.921	531.04734
282.45	523.07648
282.98	468.01988
283.509	465.85797
284.038	495.91929
284.567	510.97617
285.096	511.00923
285.625	493.9092
286.153	491.9373
286.682	506.93575
287.21	504.98755
287.739	506.97086
288.267	495.97565
288.795	556.1956
289.323	446.85076
289.851	516.97668
290.378	550.9811
290.906	466.91741
291.433	530.06863
291.961	484.88074
292.488	520.04747
293.015	499.94241
293.542	488.00183
294.069	487.9689
294.596	548.08929
295.122	541.02661
295.649	538.93689
296.175	580.11443
296.702	567.09228
297.228	555.07527
297.754	511.90844
298.28	571.00682
298.806	514.98335
299.332	488.84977
299.857	505.89823
300.383	543.09966
300.908	517.98742
301.433	556.0559
301.958	567.02375
302.483	553.0811
303.008	626.20067
303.533	559.15794
304.058	611.11182
304.582	552.00703
305.107	539.10748
305.631	584.02577
306.155	531.95625
306.679	525.94835
307.203	590.03958
307.727	601.08639
308.251	582.10914
308.775	531.96507
309.298	533.97806
309.822	606.1712
310.345	593.06261
310.868	605.08806
311.391	619.15494
311.914	604.1439
312.437	632.07142
312.96	596.04689
313.482	556.99386
314.005	558.06589
314.527	548.10195
315.049	648.225
315.571	549.89386
316.093	720.28709
316.615	649.13693
317.137	651.00433
317.659	696.22426
318.18	655.15108
318.702	662.09698
319.223	649.92284
319.744	694.07938
320.265	636.09863
320.786	610.08164
321.307	683.20228
321.828	685.06814
322.348	686.11681
322.869	634.03829
323.389	412.46222
323.909	669.05344
324.43	758.25168
324.95	699.07103
325.47	697.16182
325.989	729.13631
326.509	690.98344
327.029	740.0664
327.548	708.02074
328.067	739.15262
328.587	819.31802
329.106	735.05949
329.625	846.46708
330.144	708.03664
330.662	749.07841
331.181	754.10087
331.7	692.02496
332.218	784.00399
332.736	863.19937
333.255	767.07766
333.773	829.16519
334.291	839.27805
334.808	816.03804
335.326	857.09315
335.844	800.05493
336.361	852.2446
336.879	886.12689
337.396	873.16681
337.913	886.09044
338.43	896.05456
338.947	867.11666
339.464	867.93345
339.981	884.098
340.497	944.23439
341.014	874.12612
341.53	828.94758
342.046	905.14368
342.562	945.21948
343.078	967.10758
343.594	985.14282
344.11	976.11841
344.626	988.22304
345.141	1021.04414
345.657	1025.05087
346.172	991.11492
346.687	952.98664
347.202	983.95438
347.717	1035.09357
348.232	1008.15978
348.747	989.9743
349.261	915.80755
349.776	1042.02445
350.29	1006.05703
350.805	1174.20156
351.319	1132.0292
351.833	1011.88442
352.347	1074.98839
352.861	1121.97689
353.374	1113.97251
353.888	1092.03446
354.401	1129.93467
354.915	1105.83597
355.428	1154.06664
355.941	1125.90602
356.454	1262.91203
356.967	1159.95819
357.48	1199.90988
357.993	1176.02777
358.505	1150.9733
359.018	1257.01071
359.53	1303.95845
360.042	1269.79664
360.554	1174.93748
361.066	1179.92232
361.578	1218.71703
362.09	1267.89455
362.602	1245.70802
363.113	1309.80695
363.625	1234.7176
364.136	1353.68699
364.647	1246.69705
365.158	1376.7583
365.669	1363.81307
366.18	1403.76938
366.691	1299.61768
367.201	1337.75892
367.712	1274.62483
368.222	1297.62133
368.733	1358.47986
369.243	1324.49395
369.753	1542.57012
370.263	1476.62275
370.773	1358.67247
371.282	1430.54114
371.792	1359.37355
372.301	1465.47174
372.811	1545.62828
373.32	1488.12911
373.829	1559.25165
374.338	1628.07946
374.847	1651.06657
375.356	1671.05734
375.865	1677.76558
376.373	1873.72384
376.882	1897.93386
377.39	1943.74083
377.898	1800.68561
378.407	1968.3954
378.915	2147.2059
379.423	2228.19141
379.93	2268.06511
380.438	2219.05235
380.946	2419.87028
381.453	2428.83187
381.96	2513.76993
382.468	2599.78988
382.975	2882.76332
383.482	3128.97428
383.989	2851.82626
384.495	3056.19507
385.002	3062.845
385.509	3230.01354
386.015	3441.53946
386.521	3615.86703
387.028	3732.9624
387.534	3837.14614
388.04	4157.84605
388.546	3967.35507
389.051	3861.83062
389.557	4320.6327
390.063	5255.9355
390.568	5449.77532
391.073	5202.59697
391.578	5426.5656
392.084	5432.92492
392.589	5302.97612
393.093	5458.05824
393.598	6077.27017
394.103	6848.72155
394.607	7739.49674
395.112	8283.15915
395.616	8968.92047
396.12	8988.98751
396.624	9813.55653
397.128	10953.4881
397.632	12670.77961
398.136	13323.67777
398.639	12836.47705
399.143	13074.88097
399.646	15579.39282
400.15	16753.19959
400.653	17591.33736
401.156	12986.51152
401.659	5135.08762
402.162	1054.15589
402.664	0
403.167	0
403.67	0
404.172	0
404.674	0
405.176	0
405.678	0
406.18	0
406.682	0
407.184	0
407.686	0
408.187	0
408.688	0
409.19	0
409.691	0
410.192	0
410.693	0
411.194	435.30976
411.694	4082.94878
412.195	8864.71461
412.696	12089.80453
413.196	12760.96929
413.696	12863.67595
414.196	13703.56671
414.696	17261.84252
415.196	21764.24417
415.696	29583.19008
416.196	34883.6446
416.695	24500.06546
417.195	18918.3558
417.694	17605.43403
418.194	17279.34368
418.693	15453.42633
419.192	14788.11611
419.691	14452.2136
420.19	14531.28885
420.688	14454.2566
421.187	14174.76706
421.685	13485.16086
422.184	12571.05445
422.682	11213.57544
423.18	8955.14973
423.678	7632.68688
424.176	7077.09542
424.674	6582.91329
425.172	6517.55394
425.669	6181.10365
426.167	6000.98958
426.664	5340.45006
427.161	4829.64228
427.659	4457.86905
428.156	4053.23689
428.652	3831.55957
429.149	3670.32037
429.646	3696.28926
430.143	3474.76776
430.639	3218.6583
431.135	3037.6227
431.632	2824.68036
432.128	2667.80073
432.624	2348.06201
433.12	2237.99794
433.616	2208.03426
434.111	1964.26246
434.607	1975.35905
435.103	2032.28736
435.598	2113.27359
436.093	1892.67335
436.588	1843.73024
437.083	1781.85194
437.578	1733.97698
438.073	1355.22998
438.568	1552.30626
439.062	1507.08434
439.557	1436.36257
440.051	1356.309
440.546	1169.35479
441.04	1233.47405
441.534	1226.62587
442.028	1161.56128
442.522	1184.56482
443.015	1140.43409
443.509	1120.65143
444.002	1137.65869
444.496	1065.48233
444.989	1089.68668
445.482	1024.70325
445.975	997.53294
446.468	1034.48813
446.961	976.4888
447.454	974.58687
447.947	975.6444
448.439	905.70146
448.931	824.54576
449.424	911.7891
449.916	889.71874
450.408	789.56182
450.9	812.67836
451.392	814.75263
451.884	807.64196
452.375	695.66171
452.867	862.67833
453.358	771.60993
453.849	747.53918
454.341	741.611
454.832	698.54133
455.323	678.67577
455.814	714.64887
456.304	734.67081
456.795	736.66901
457.285	706.64621
457.776	778.73583
458.266	726.72695
458.756	607.67094
459.247	592.63581
459.737	575.62756
460.226	593.59191
460.716	596.66872
461.206	573.66635
461.695	571.72539
462.185	565.65555
462.674	526.60586
463.163	565.60743
463.653	533.53585
464.142	502.63248
464.63	554.71817
465.119	534.63502
465.608	449.55318
466.096	472.54557
466.585	490.62208
467.073	413.57096
467.561	479.65547
468.05	502.65508
468.538	450.65145
469.026	424.59891
469.513	389.46556
470.001	416.54935
470.489	365.52158
470.976	478.64835
471.463	416.64587
471.951	372.59583
472.438	374.5464
472.925	289.43092
473.412	408.64682
473.899	356.52523
474.385	360.5822
474.872	334.50636
475.359	285.46909
475.845	338.44597
476.331	347.49709
476.817	311.52131
477.303	334.52367
477.789	268.45107
478.275	273.47569
478.761	345.57642
479.247	323.50039
479.732	267.47311
480.218	323.6037
480.703	299.53368
481.188	193.29773
481.673	292.47594
482.158	162.24732
482.643	232.44446
483.128	192.3219
483.612	214.37179
484.097	242.44636
484.581	231.40313
485.066	147.27433
485.55	150.24832
486.034	169.27536
486.518	167.29883
487.002	152.28711
487.486	176.33228
487.969	114.21893
488.453	163.32535
488.936	133.23431
489.42	147.25491
489.903	184.36855
490.386	-235.33236
490.869	176.30139
491.352	155.30665
491.835	190.30705
492.318	141.25309
492.8	155.25311
493.283	108.22383
493.765	167.33039
494.247	115.2209
494.73	110.1975
495.212	182.35863
495.694	52.10034
496.175	55.10723
496.657	127.24796
497.139	150.20991
497.62	-2.00398
498.102	66.13673
498.583	81.17054
499.064	55.10177
499.545	83.15774
500.026	43.0808
500.507	103.19909
500.988	116.24128
501.469	20.04262
501.949	94.19639
502.43	54.10781
502.91	40.06938
503.39	97.20621
503.87	108.21171
504.35	112.22329
504.83	84.15415
505.31	11.02289
505.79	57.11573
506.269	104.20561
506.749	64.12368
507.228	54.10776
507.707	82.15344
508.187	147.29628
508.666	62.12988
509.145	108.21251
509.623	103.20473
510.102	110.22655
510.581	190.38532
511.059	137.28959
511.538	129.28545
512.016	211.41979
512.494	188.38371
512.972	189.3776
513.45	146.282
513.928	178.36181
514.406	166.3328
514.884	245.52445
515.361	278.54677
515.839	216.40781
516.316	273.54086
516.793	320.66794
517.27	319.63614
517.747	303.6413
518.224	366.68391
518.701	359.64279
519.178	319.6456
519.654	427.81551
520.131	291.59568
520.607	426.85326
521.083	356.65732
521.56	376.71827
522.036	352.62554
522.512	366.74123
522.987	329.63595
523.463	340.66083
523.939	343.69322
524.414	330.62703
524.89	270.53454
525.365	262.4932
525.84	193.38595
526.315	199.40625
526.79	223.42298
527.265	207.39897
527.74	224.46155
528.215	204.40804
528.689	199.37211
529.164	170.31529
529.638	200.44135
530.112	119.24216
530.587	93.17123
531.061	159.32857
531.534	140.29457
532.008	109.22757
532.482	161.31837
532.956	93.20691
533.429	130.27377
533.903	85.16493
534.376	93.17942
534.849	99.20073
535.322	139.28454
535.795	116.24783
536.268	85.17928
536.741	111.2335
537.213	72.14682
537.686	46.09905
538.158	30.05934
538.631	71.15304
539.103	54.10646
539.575	76.13947
540.047	82.15839
540.519	69.14617
540.991	84.18195
541.463	63.13521
541.934	34.0692
542.406	11.0234
542.877	52.10391
543.348	51.10965
543.82	83.18021
544.291	111.22774
544.762	61.12758
545.233	78.1722
545.703	47.09168
546.174	80.16358
546.645	103.21333
547.115	101.21237
547.585	96.19291
548.056	57.12001
548.526	110.22308
548.996	163.33669
549.466	172.36142
549.935	165.33118
550.405	164.3037
550.875	162.32598
551.344	143.29392
551.814	191.37061
552.283	225.40949
552.752	209.40534
553.221	187.33791
553.69	243.4454
554.159	210.42978
554.628	223.41059
555.096	230.48606
555.565	311.56315
556.033	314.60972
556.502	279.56413
556.97	282.51989
557.438	294.58342
557.906	406.791
558.374	355.67535
558.842	362.71903
559.31	426.77911
559.777	402.80035
560.245	520.98665
560.712	496.93147
561.18	562.97922
561.647	568.00334
562.114	608.08479
562.581	710.36077
563.048	782.36514
563.514	766.43509
563.981	864.46436
564.448	977.56442
564.914	1134.82884
565.381	1137.78276
565.847	1285.0037
566.313	1391.08675
566.779	1479.06766
567.245	1543.22664
567.711	1651.38173
568.176	1779.23364
568.642	1867.69198
569.108	2051.71591
569.573	2207.61772
570.038	2325.17036
570.504	2467.41251
570.969	2665.98668
571.434	2805.29157
571.899	3008.68166
572.363	3184.41234
572.828	3422.38136
573.293	3527.33389
573.757	3805.21702
574.222	3989.93413
574.686	4046.92189
575.15	4205.19589
575.614	4480.83357
576.078	4600.89692
576.542	4825.60924
577.006	4883.5088
577.469	5105.00589
577.933	5178.29316
578.396	5381.57996
578.86	5341.5439
579.323	5301.60932
579.786	5536.97049
580.249	5418.28903
580.712	5444.73242
581.175	5516.74102
581.637	5452.3911
582.1	5434.13681
582.563	5412.04148
583.025	5255.76314
583.487	5283.76769
583.95	5143.11812
584.412	5090.07104
584.874	5033.90522
585.336	4859.85086
585.797	4813.35433
586.259	4692.95087
586.721	4513.9869
587.182	4490.03583
587.643	4224.98199
588.105	4152.26191
588.566	4184.59986
589.027	3957.4389
589.488	3846.20253
589.949	3756.60536
590.41	3554.52883
590.87	3585.34803
591.331	3439.11183
591.791	3314.46955
592.252	3213.43735
592.712	3130.75958
593.172	2956.44258
593.632	3060.31523
594.092	2943.4067
594.552	2753.27331
595.011	2758.54573
595.471	2661.45476
595.931	2554.43563
596.39	2493.7472
596.849	2418.6168
597.308	2475.33539
597.768	2281.98298
598.227	2256.74031
598.685	2283.55852
599.144	2171.58066
599.603	2136.6273
600.062	2118.14321
600.52	2058.34663
600.978	2092.61244
601.437	2101.48187
601.895	1974.1495
602.353	2082.35582
602.811	2006.32237
603.269	1968.59041
603.727	2017.61216
604.184	1971.34817
604.642	1930.65674
605.099	1903.43771
605.557	1943.65044
606.014	1928.17198
606.471	1926.70504
606.928	1908.13099
607.385	1956.60136
607.842	2029.42479
608.299	2159.55671
608.755	2095.6585
609.212	2046.31692
609.668	2124.30766
610.125	2187.71934
610.581	2251.71016
611.037	2182.52888
611.493	2137.64953
611.949	2138.69743
612.405	2176.01419
612.861	2192.66887
613.316	2173.69204
613.772	2142.53307
614.227	2159.64281
614.683	2208.30285
615.138	2130.60333
615.593	2137.58401
616.048	2174.55772
616.503	2171.86448
616.958	2166.92974
617.412	2107.66517
617.867	1989.34497
618.321	2005.15368
618.776	2034.39902
619.23	1961.58691
619.684	1923.44409
620.138	1975.58361
620.592	1839.66551
621.046	1883.57999
621.5	1775.63094
621.954	1856.42825
622.407	1784.34905
622.861	1701.58933
623.314	1664.35443
623.768	1600.37606
624.221	1620.90141
624.674	1562.31896
625.127	1464.28721
625.58	1510.26917
626.033	1527.19242
626.485	1399.29645
626.938	1466.36027
627.39	1425.25459
627.843	1410.23003
628.295	1329.15076
628.747	1306.20502
629.199	1252.03159
629.651	1185.95829
630.103	1236.03795
630.555	1193.81301
631.006	1178.04149
631.458	1130.99843
631.909	1169.9977
632.361	1148.00289
632.812	1070.88124
633.263	1134.81137
633.714	1089.75248
634.165	1038.96389
634.616	1007.8769
635.067	1056.80056
635.518	1044.9436
635.968	1085.63036
636.419	1034.73367
636.869	1017.90585
637.319	940.73406
637.769	939.66796
638.219	990.88567
638.669	869.69449
639.119	928.83834
639.569	962.86413
640.019	930.73525
640.468	909.63791
640.918	943.84247
641.367	928.67521
641.816	853.56502
642.265	960.78339
642.714	835.60039
643.163	859.62667
643.612	822.64177
644.061	863.48201
644.51	899.66779
644.958	886.58376
645.406	886.74525
645.855	929.86815
646.303	924.76486
646.751	938.72433
647.199	871.63098
647.647	861.63681
648.095	929.73039
648.543	896.48685
648.99	893.76029
649.438	938.80374
649.885	951.93258
650.333	945.45049
650.78	864.7401
651.227	845.724
651.674	869.63844
652.121	894.80717
652.568	799.64553
653.015	902.90727
653.461	820.64306
653.908	877.69799
654.354	859.71932
654.801	739.48637
655.247	831.52534
655.693	809.80758
656.139	781.59906
656.585	776.59275
657.031	700.41203
657.477	739.36092
657.922	733.45128
658.368	748.59798
658.813	792.57301
659.259	673.41558
659.704	707.42976
660.149	689.4003
660.594	654.36802
661.039	685.36117
661.484	620.3197
661.929	697.42431
662.373	638.43029
662.818	630.39149
663.262	599.28903
663.707	560.28452
664.151	631.37367
664.595	561.2211
665.039	594.33046
665.483	540.25144
665.927	593.25422
666.371	515.08282
666.814	565.22097
667.258	521.12094
667.701	582.12903
668.145	552.25097
668.588	497.12137
669.031	517.10803
669.474	496.09791
669.917	527.06428
670.36	510.16127
670.803	484.07887
671.245	444.86998
671.688	488.09946
672.13	393.82813
672.573	488.14727
673.015	482.06953
673.457	436.88541
673.899	450.01535
674.341	420.95115
674.783	400.90255
675.225	413.95447
675.666	397.89779
676.108	432.87769
676.549	414.92307
676.991	440.90617
677.432	403.75399
677.873	330.73125
678.314	373.84525
678.755	388.89297
679.196	348.75988
679.637	411.94758
680.078	353.78888
680.518	426.93449
680.959	338.7745
681.399	331.78593
681.839	288.6774
682.28	312.73954
682.72	268.59536
683.16	307.73541
683.6	304.66971
684.039	268.54375
684.479	281.66698
684.919	236.53059
685.358	303.74156
685.798	284.71934
686.237	318.74037
686.676	302.67785
687.115	346.77786
687.554	285.6553
687.993	258.55693
688.432	248.55345
688.871	262.5784
689.309	216.50629
689.748	291.59055
690.186	278.64496
690.625	281.63835
691.063	268.62447
691.501	251.60495
691.939	237.57704
692.377	243.57857
692.815	180.42537
693.253	267.62495
693.69	241.51879
694.128	227.5382
694.565	213.49955
695.003	211.52561
695.44	207.47883
695.877	213.48879
696.314	273.57225
696.751	243.5433
697.188	206.46619
697.625	250.56207
698.061	182.4316
698.498	241.57073
698.934	251.59004
699.371	211.48827
699.807	183.42836
700.243	196.46498
700.679	237.52639
701.115	235.54294
701.551	223.51604
701.987	233.51471
702.422	212.49497
702.858	220.51465
703.294	155.35028
703.729	179.43339
704.164	141.33831
704.599	200.44024
705.035	177.39281
705.47	163.39302
705.904	140.32546
706.339	204.4688
706.774	167.3883
707.209	139.32001
707.643	198.469
708.078	166.40078
708.512	101.25289
708.946	173.41129
709.38	137.3242
709.814	204.46035
710.248	177.4271
710.682	160.37797
711.116	151.35774
711.549	169.43151
711.983	170.38989
712.416	154.36267
712.85	154.38133
713.283	197.46004
713.716	173.43049
714.149	220.51566
714.582	138.31002
715.015	193.47693
715.448	170.42434
715.881	189.41035
716.313	152.35461
716.746	137.32182
717.178	109.26272
717.61	166.41705
718.043	162.40055
718.475	148.35706
718.907	202.50384
719.339	99.22583
719.77	105.24963
720.202	139.34979
720.634	95.23201
721.065	182.42677
721.497	158.38449
721.928	91.22439
722.359	80.1941
722.79	121.28955
723.221	141.35329
723.652	212.53757
724.083	135.30433
724.514	163.37226
724.945	103.24318
725.375	82.19176
725.806	188.46347
726.236	144.36684
726.666	127.30065
727.096	179.43437
727.526	121.30657
727.956	134.30424
728.386	139.34098
728.816	101.2558
729.246	92.22447
729.675	110.27079
730.105	127.31212
730.534	115.26972
730.964	152.38174
731.393	138.34184
731.822	143.36307
732.251	109.27665
732.68	148.34759
733.109	125.30743
733.537	100.24226
733.966	117.2903
734.395	123.2843
734.823	169.3788
735.251	87.21081
735.68	174.43133
736.108	99.25101
736.536	128.30179
736.964	78.18269
737.392	107.26801
737.82	142.33947
738.247	113.27113
738.675	119.28476
739.102	112.27957
739.53	94.23972
739.957	112.28764
740.384	141.34652
740.811	138.34808
741.238	116.28303
741.665	89.20768
742.092	180.42521
742.519	53.13247
742.945	110.26448
743.372	107.2651
743.798	109.27998
744.225	116.27594
744.651	101.2538
745.077	123.30597
745.503	158.38248
745.929	93.22416
746.355	114.28374
746.781	117.28967
747.207	90.21212
747.632	56.13781
748.058	107.26714
748.483	172.39226
748.908	89.22196
749.334	142.34685
749.759	116.2736
750.184	95.22707
750.609	120.29453
751.033	150.35283
751.458	123.27638
751.883	175.42864
752.307	61.14514
752.732	62.15594
753.156	95.2352
753.58	135.31972
754.005	121.30635
754.429	64.15195
754.853	111.27471
755.277	90.21409
755.7	123.3043
756.124	108.26782
756.548	90.21426
756.971	158.38248
757.394	128.32815
757.818	105.2699
758.241	118.29849
758.664	131.32907
759.087	71.15999
759.51	112.27845
759.933	59.14329
760.356	155.39354
760.778	127.31108
761.201	139.33642
761.623	148.35679
762.046	119.28237
762.468	146.34877
762.89	138.33884
763.312	118.28769
763.734	102.2459
764.156	95.23503
764.578	125.28732
765	159.38425
765.421	99.25118
765.843	140.36418
766.264	152.36449
766.686	118.29561
767.107	105.25452
767.528	75.18995
767.949	90.2292
768.37	100.24563
768.791	114.27555
769.212	38.0964
769.632	85.19889
770.053	112.29384
770.473	100.24345
770.894	94.23574
771.314	103.24648
771.734	88.20595
772.154	115.29426
772.575	137.31603
772.994	51.11723
773.414	101.24289
773.834	78.19569
774.254	75.18446
774.673	96.23415
775.093	59.14698
775.512	71.17572
775.931	103.26068
776.351	98.2432
776.77	86.21062
777.189	112.26591
777.607	94.23989
778.026	98.24391
778.445	37.09345
778.864	95.24351
779.282	100.24053
779.701	91.22941
780.119	75.18995
780.537	96.23928
780.955	117.29633
781.373	83.20564
781.791	84.1894
782.209	126.28909
782.627	111.29097
783.045	126.28828
783.462	89.22725
783.88	76.19682
784.297	88.22133
784.715	65.16737
785.132	86.20842
785.549	93.23235
785.966	82.20639
786.383	75.18494
786.8	128.29545
787.217	107.25292
787.633	58.14541
788.05	149.35041
788.466	146.34102
788.883	71.18136
789.299	87.20962
789.715	89.2163
790.131	86.21381
790.547	88.21966
790.963	96.23781
791.379	113.28406
791.795	138.31218
792.21	109.25395
792.626	129.30373
793.041	71.17565
793.457	107.26336
793.872	85.19998
794.287	14.03385
794.702	128.31289
795.117	62.15454
795.532	78.19548
795.947	101.24252
796.362	163.38378
796.776	168.38777
797.191	94.22961
797.605	80.18789
798.02	98.23777
798.434	89.19834
798.848	86.21155
799.262	81.20083
799.676	119.28845
800.09	77.18959
800.504	75.18228
800.918	68.15808
801.331	133.34532
801.745	67.1545
802.158	112.27825
802.572	128.30788
802.985	137.32783
803.398	145.34167
803.811	137.34858
804.224	95.2358
804.637	89.21167
805.05	78.18104
805.462	116.28313
805.875	59.15324
806.288	80.19286
806.7	106.26498
807.112	111.25595
807.525	100.24581
807.937	46.11433
808.349	123.30552
808.761	72.17731
809.173	51.12423
809.584	118.28952
809.996	91.22216
810.408	74.19084
810.819	107.25027
811.231	86.22156
811.642	102.24189
812.053	165.38562
812.464	223.51522
812.875	160.40256
813.286	177.44716
813.697	207.47217
814.108	88.21455
814.519	125.27614
814.929	133.33565
815.34	97.23433
815.75	98.24781
816.16	114.28208
816.571	101.26097
816.981	117.27419
817.391	116.27795
817.801	59.14687
818.211	136.32053
818.62	71.171
819.03	146.35303
819.44	139.35878
819.849	150.37265
820.259	117.29706
820.668	85.20851
821.077	62.1542
821.486	104.24911
821.895	166.4032
822.304	103.27128
822.713	132.30856
823.122	75.18704
823.531	79.1871
823.939	110.26609
824.348	99.23952
824.756	113.28089
825.164	140.34794
825.573	67.16818
825.981	129.31656
826.389	116.28903
826.797	126.31235
827.205	64.14714
827.612	140.34108
828.02	50.11789
828.428	94.23829
828.835	115.30012
829.243	119.28106
829.65	50.12472
830.057	87.21049
830.464	119.28726
830.871	128.3032
831.278	137.32696
831.685	83.18489
832.092	109.26491
832.499	119.25782
832.905	130.32544
833.312	119.26892
833.718	102.25258
834.124	118.26715
834.531	112.28008
834.937	76.19471
835.343	131.3124
835.749	130.30018
836.155	110.28575
836.561	105.25643
836.966	89.21679
837.372	111.28023
837.777	86.21343
838.183	120.26415
838.588	100.24672
838.993	111.26805
839.399	109.26431
839.804	67.1632
840.209	58.14776
840.613	44.0984
841.018	88.22189
841.423	104.26485
841.828	108.27095
842.232	107.26306
842.637	100.2344
843.041	50.12841
843.445	115.28576
843.849	98.24107
844.253	62.14749
844.657	97.2427
845.061	108.24302
845.465	54.13068
845.869	103.2376
846.272	68.16542
846.676	107.25673
847.079	107.26984
847.483	75.1867
847.886	146.34984
848.289	67.17855
848.692	89.22429
849.095	93.22212
849.498	154.38398
849.901	133.30093
850.304	106.25128
850.707	145.36423
851.109	158.39296
851.512	102.24878
851.914	16.04063
852.316	52.13173
852.718	10.02603
853.121	91.22174
853.523	71.16568
853.925	59.15387
854.326	56.14009
854.728	107.27283
855.13	46.11888
855.531	100.23715
855.933	91.21726
856.334	60.14955
856.736	63.14109
857.137	91.21034
857.538	76.19047
857.939	59.14575
858.34	118.28447
858.741	89.2314
859.142	64.15365
859.542	51.13469
859.943	120.29486
860.343	48.11908
860.744	113.27298
861.144	101.24445
861.544	35.08449
861.945	79.20058
862.345	113.2736
862.745	104.2563
863.145	107.2535
863.544	108.27046
863.944	91.21368
864.344	131.32112
864.743	123.30162
865.143	96.24491
865.542	55.12768
865.941	66.16313
866.34	70.16735
866.74	59.15827
867.139	47.11277
867.537	104.26279
867.936	73.17522
868.335	106.26737
868.734	81.2061
869.132	133.30448
869.531	112.26817
869.929	83.18826
870.327	61.14614
870.726	109.26927
871.124	98.22728
871.522	55.14014
871.92	78.19166
872.318	125.30174
872.715	182.44024
873.113	101.24409
873.511	97.23989
873.908	43.10879
874.306	116.28535
874.703	105.26043
875.1	100.25386
875.497	86.20505
875.894	67.16381
876.291	87.21231
876.688	64.16483
877.085	106.25196
877.482	84.20922
877.878	75.17988
878.275	61.15483
878.671	106.23373
879.068	112.26755
879.464	48.1162
879.86	118.27573
880.256	110.26879
880.652	97.24489
881.048	96.23615
881.444	151.3529
881.84	90.22734
882.236	118.29337
882.631	80.19549
883.027	117.28008
883.422	111.28103
883.817	7.01774
884.213	91.23203
884.608	77.18805
885.003	85.20379
885.398	83.20669
885.793	67.16782
886.188	35.08732
886.582	138.34883
886.977	106.24914
887.371	105.26319
887.766	29.07246
888.16	78.19385
888.554	113.27648
888.949	102.25396
889.343	78.18975
889.737	20.05359
890.131	82.20469
890.525	84.21369
890.918	68.17072
891.312	76.18114
891.706	74.19349
892.099	115.2895
892.492	80.17173
892.886	71.1732
893.279	34.08692
893.672	71.18021
894.065	87.21658
894.458	92.22981
894.851	98.23822
895.244	32.08204
895.637	78.18704
896.029	63.1538
896.422	86.20889
896.814	55.13672
897.206	58.13802
897.599	90.22115
897.991	89.21379
898.383	68.16027
898.775	80.17965
899.167	65.15126
899.559	132.32949
899.951	67.15757
900.342	120.3016
900.734	39.09702
901.125	107.2782
901.517	51.12525
901.908	110.26096
902.299	46.11261
902.69	91.21318
903.082	80.19279
903.473	68.16238
903.863	95.24061
904.254	87.20061
904.645	122.29966
905.036	24.05843
905.426	110.24904
905.817	37.09107
906.207	67.15923
906.597	61.14245
906.987	74.19111
907.378	32.08124
907.768	73.19234
908.158	77.18693
908.547	52.13434
908.937	68.17403
909.327	132.31581
909.717	78.19717
910.106	59.14156
910.495	103.25482
910.885	79.19916
911.274	114.28177
911.663	102.25664
912.052	121.29484
912.441	92.23231
912.83	109.24743
913.219	85.22123
913.608	82.19978
913.997	38.09551
914.385	115.27151
914.774	109.26262
915.162	103.24308
915.55	130.30996
915.939	62.15622
916.327	117.2886
916.715	65.16527
917.103	146.35317
917.491	120.29323
917.878	65.15945
918.266	73.18863
918.654	80.20337
919.041	63.16414
919.429	73.17162
919.816	111.27843
920.203	85.20488
920.591	55.13632
920.978	98.23795
921.365	57.14942
921.752	85.20138
922.139	104.22335
922.525	68.16282
922.912	71.17256
923.299	72.17829
923.685	69.17946
924.072	131.29737
924.458	110.26959
924.844	60.14825
925.231	78.18061
925.617	27.06897
926.003	99.25092
926.389	40.10111
926.774	81.2042
927.16	103.25342
927.546	30.07686
927.931	105.25948
928.317	90.20575
928.702	94.2206
929.088	54.12767
929.473	76.19252
929.858	60.14481
930.243	100.23779
930.628	68.16493
931.013	91.22389
931.398	105.23893
931.783	120.31226
932.167	81.19693
932.552	101.25079
932.937	150.36557
933.321	56.14039
933.705	73.18331
934.09	104.26035
934.474	88.20756
934.858	73.18863
935.242	58.13425
935.626	58.14828
936.009	73.19344
936.393	97.2448
936.777	108.27378
937.16	76.19689
937.544	73.17128
937.927	40.10169
938.311	131.31503
938.694	108.28287
939.077	89.21151
939.46	112.27195
939.843	100.20642
940.226	65.16632
940.609	75.17136
940.991	66.16755
941.374	69.16807
941.757	75.18426
942.139	79.17642
942.522	116.27073
942.904	82.19596
943.286	126.31588
943.668	86.22141
944.05	69.16939
944.432	79.19394
944.814	78.19117
945.196	0
945.578	31.07396
945.959	67.15653
946.341	113.27422
946.722	86.20048
947.104	71.16906
947.485	75.1737
947.866	43.10848
948.247	89.223
948.628	76.18454
949.009	91.23138
949.39	88.21759
949.771	106.24389
950.152	67.16393
950.532	25.06178
950.913	146.34583
951.293	60.16182
951.674	65.15679
952.054	61.15086
952.434	94.23149
952.814	109.25645
953.194	103.26715
953.574	100.24408
953.954	63.14926
954.334	74.18365
954.714	48.11703
955.093	133.32202
955.473	74.18425
955.853	90.23138
956.232	105.28526
956.611	139.32779
956.99	65.16293
957.37	71.18027
957.749	62.1476
958.128	89.22268
958.506	67.1733
958.885	66.16612
959.264	60.14678
959.643	89.20097
960.021	66.16307
960.4	106.23754
960.778	85.20805
961.156	61.15263
961.535	127.29156
961.913	92.21354
962.291	61.1562
962.669	74.18666
963.047	57.14529
963.424	43.10988
963.802	48.11808
964.18	136.33886
964.557	113.25703
964.935	121.28279
965.312	75.19446
965.69	99.24573
966.067	107.25781
966.444	98.23938
966.821	101.25808
967.198	111.26623
967.575	90.21968
967.952	138.31967
968.329	90.21738
968.705	105.22253
969.082	78.19906
969.458	39.09375
969.835	90.21746
970.211	78.1992
970.587	81.20054
970.963	79.20165
971.339	62.16156
971.715	91.22554
972.091	113.27504
972.467	94.2326
972.843	74.18284
973.219	137.32357
973.594	47.123
973.97	136.31841
974.345	82.19506
974.721	106.25399
975.096	56.13536
975.471	97.22804
975.846	99.23564
976.221	41.10429
976.596	109.25834
976.971	97.23742
977.346	127.29121
977.72	63.16013
978.095	71.18282
978.469	115.27109
978.844	115.28576
979.218	36.08653
979.593	110.26056
979.967	64.15552
980.341	71.16281
980.715	90.22514
981.089	86.21389
981.463	102.23178
981.837	64.15598
982.21	117.26871
982.584	75.1803
982.957	67.16679
983.331	70.16485
983.704	96.23388
984.078	27.06682
984.451	148.36312
984.824	73.17702
985.197	120.28765
985.57	72.17986
985.943	114.27825
986.316	125.30288
986.688	91.21776
987.061	99.22983
987.434	87.22527
987.806	139.33148
988.179	69.16221
988.551	141.35189
988.923	84.20557
989.295	123.30329
989.667	73.17362
990.039	76.18689
990.411	52.11964
990.783	100.22797
991.155	34.08194
991.527	177.42565
991.898	40.09985
992.27	90.22098
992.641	153.37671
993.012	131.3034
993.384	84.19905
993.755	37.09454
994.126	86.20544
994.497	63.15426
994.868	105.23854
995.239	54.13077
995.61	65.1631
995.98	38.09251
996.351	55.13607
996.722	93.21385
997.092	96.22529
997.462	83.19261
997.833	137.3193
998.203	70.16907
998.573	80.1981
998.943	70.1635
999.313	128.30214
999.683	93.22136
1000.053	61.14004
1000.423	58.14072
1000.792	53.13728
1001.162	100.24381
1001.531	90.22025
1001.901	92.22756
1002.27	88.19518
1002.639	78.19829
1003.009	84.19844
1003.378	91.23097
1003.747	73.17168
1004.116	83.19733
1004.485	98.23205
1004.853	124.30997
1005.222	82.20558
1005.591	103.24205
1005.959	83.18573
1006.328	55.12363
1006.696	61.14681
1007.064	94.23455
1007.433	85.21106
1007.801	137.33083
1008.169	99.24779
1008.537	122.26607
1008.905	68.15783
1009.273	93.22789
1009.64	32.07659
1010.008	105.24761
1010.375	155.36892
1010.743	161.36354
1011.11	79.18587
1011.478	81.19929
1011.845	139.32116
1012.212	64.14443
1012.579	89.21687
1012.946	115.27025
1013.313	119.27943
1013.68	99.22026
1014.047	83.19649
1014.414	68.16002
1014.78	103.25342
1015.147	106.25361
1015.513	85.2034
1015.88	131.33013
1016.246	131.31849
1016.612	124.2796
1016.978	89.21647
1017.344	122.29745
1017.71	120.28874
1018.076	121.28135
1018.442	82.20971
1018.808	70.17429
1019.174	63.15763
1019.539	184.41216
1019.905	55.12955
1020.27	62.15263
1020.636	82.19536
1021.001	110.26026
1021.366	40.09621
1021.731	72.1844
1022.096	21.05323
1022.461	79.18587
1022.826	102.23993
1023.191	103.26771
1023.556	93.21607
1023.92	74.18109
1024.285	79.19171
1024.649	59.14431
1025.014	136.33145
1025.378	68.17036
1025.742	96.23633
1026.107	118.26313
1026.471	106.24467
1026.835	105.25758
1027.199	72.17253
1027.562	61.14145
1027.926	128.30834
1028.29	63.15899
1028.654	93.21205
1029.017	73.17861
1029.381	55.13121
1029.744	61.15521
1030.107	113.26399
1030.471	101.23938
1030.834	99.22291
1031.197	83.19862
1031.56	66.15519
1031.923	78.2006
1032.286	88.20506
1032.648	109.25764
1033.011	68.15546
1033.374	127.2939
1033.736	55.14442
1034.099	97.23424
1034.461	40.10118
1034.823	44.10963
1035.185	79.19773
1035.548	93.22441
1035.91	55.13156
1036.272	87.19645
1036.634	144.34596
1036.995	70.16382
1037.357	68.1648
1037.719	74.17907
1038.08	111.26034
1038.442	79.18637
1038.803	116.27488
1039.165	129.32078
1039.526	83.19922
1039.887	85.20193
1040.248	60.14749
1040.609	99.24232
1040.97	88.21343
1041.331	45.11397
1041.692	49.11434
1042.053	99.22309
1042.413	96.22159
1042.774	93.22424
1043.134	95.22412
1043.495	121.30012
1043.855	67.16192
1044.215	104.25545
1044.576	82.19476
1044.936	73.16652
1045.296	129.31715
1045.656	117.28339
1046.016	100.23898
1046.375	83.19998
1046.735	47.10656
1047.095	69.16082
1047.454	136.28262
1047.814	110.26127
1048.173	107.25272
1048.533	72.16414
1048.892	-6.01455
1049.251	111.27542
1049.61	61.14981
1049.969	81.18968
1050.328	54.11692
1050.687	94.2267
1051.046	83.20074
1051.405	103.2536
1051.763	74.16924
1052.122	59.14682
1052.48	73.17815
1052.839	63.14776
1053.197	101.23522
1053.555	98.22115
1053.914	112.27062
1054.272	101.24169
1054.63	61.14875
1054.988	51.12106
1055.345	109.23162
1055.703	113.26855
1056.061	86.21971
1056.419	76.19573
1056.776	97.233
1057.134	70.16132
1057.491	27.06785
1057.848	60.14901
1058.206	107.2487
1058.563	90.19662
1058.92	106.24145
1059.277	89.21784
1059.634	112.26016
1059.991	154.3614
1060.348	70.15745
1060.704	87.20572
1061.061	130.29708
1061.418	41.09953
1061.774	79.19387
1062.131	71.18694
1062.487	84.19497
1062.843	94.23234
1063.199	76.18799
1063.555	55.12723
1063.911	70.17606
1064.267	134.27412
1064.623	78.18833
1064.979	128.2985
1065.335	133.31266
1065.691	65.15525
1066.046	59.12941
1066.402	66.14937
1066.757	79.19823
1067.112	101.24537
1067.468	20.04747
1067.823	97.23097
1068.178	92.22062
1068.533	85.20457
1068.888	147.3445
1069.243	62.15257
1069.598	105.25232
1069.952	37.08348
1070.307	62.15302
1070.662	55.13036
1071.016	51.11417
1071.371	54.12266
1071.725	100.23678
1072.079	102.24273
1072.434	44.10696
1072.788	88.20789
1073.142	117.28403
1073.496	90.2117
1073.85	121.27645
1074.203	121.28944
1074.557	59.15655
1074.911	127.29844
1075.265	72.16652
1075.618	111.26775
1075.971	97.22848
1076.325	51.12949
1076.678	49.112
1077.031	61.13763
1077.385	83.18144
1077.738	92.20575
1078.091	46.10461
1078.444	104.23871
1078.796	76.18544
1079.149	105.25834
1079.502	93.21769
1079.855	72.16705
1080.207	111.27017
1080.56	37.09577
1080.912	108.25987
1081.264	128.30343
1081.617	82.19851
1081.969	45.11353
1082.321	83.20127
1082.673	46.10499
1083.025	122.28518
1083.377	125.26376
1083.728	109.25114
1084.08	104.25687
1084.432	86.20584
1084.783	133.30632
1085.135	82.20417
1085.486	50.11431
1085.838	48.11816
1086.189	63.15243
1086.54	115.27098
1086.891	96.24059
1087.242	67.16247
1087.593	105.2528
1087.944	99.22163
1088.295	104.23364
1088.646	82.19738
1088.996	46.11081
1089.347	99.24052
1089.698	32.07583
1090.048	78.20144
1090.398	85.19561
1090.749	102.24142
1091.099	78.19498
1091.449	107.26355
1091.799	114.28188
1092.149	56.13628
1092.499	42.10252
1092.849	49.12446
1093.199	124.30638
1093.548	71.16977
1093.898	40.10017
1094.248	66.16897
1094.597	25.06404
1094.947	63.16755
1095.296	89.218
1095.645	82.21192
1095.994	67.16027
1096.343	76.19019
1096.692	72.18826
1097.041	35.09491
1097.39	86.21413
1097.739	69.1786
1098.088	119.3149
1098.437	27.07114
1098.785	78.20913
1099.134	86.22678
1099.482	106.28868
1099.83	107.2782
1100.179	44.11477
1100.527	81.21392
1100.875	42.11109
1101.223	95.25013
1101.571	53.14626
1101.919	17.04462
1102.267	88.24608
1102.615	5.01607
1102.962	28.08996
1103.31	10.03211
1103.658	24.07718
