Data from N2 R15 sample 5_Subt2__2__15-23-22-509.txt Node

Date: Tue Sep 02 15:23:22 PDT 2025
User: uwsun
Spectrometer: HDX01956
Trigger mode: 0
Integration Time (sec): 5.000000E-1
Scans to average: 1
Nonlinearity correction enabled: true
Boxcar width: 0
Storing dark spectrum: false
XAxis mode: Wavelengths
Number of Pixels in Spectrum: 2068
>>>>>Begin Spectral Data<<<<<
194.03	99.27363
194.578	83.25979
195.127	91.28029
195.676	90.27811
196.225	163.42058
196.773	152.40659
197.321	184.47879
197.87	277.65039
198.418	230.53762
198.966	188.44583
199.513	168.38035
200.061	193.44237
200.609	256.61455
201.156	195.38199
201.704	190.43313
202.251	202.4853
202.798	203.47796
203.345	254.56497
203.892	208.47359
204.438	249.53393
204.985	198.42009
205.532	209.49744
206.078	272.5952
206.624	217.47857
207.17	299.61372
207.716	201.43938
208.262	229.40281
208.808	166.36878
209.354	198.43401
209.899	298.67354
210.445	239.52995
210.99	213.46009
211.535	256.53816
212.08	263.54544
212.625	244.54925
213.17	272.61703
213.715	192.38119
214.259	216.45387
214.804	291.64148
215.348	264.53858
215.892	240.51697
216.436	236.49283
216.98	265.52378
217.524	211.44972
218.068	249.56475
218.612	262.59339
219.155	228.48289
219.698	263.56079
220.242	236.53364
220.785	235.49521
221.328	225.50846
221.871	263.60303
222.414	223.50537
222.956	168.36872
223.499	226.45875
224.041	273.57199
224.583	288.55656
225.126	197.39431
225.668	211.46494
226.21	214.48823
226.751	199.39241
227.293	246.50665
227.835	189.41996
228.376	302.62226
228.918	236.54102
229.459	192.43415
230	231.49598
230.541	236.49065
231.082	255.55482
231.622	244.50637
232.163	185.40748
232.704	214.47975
233.244	252.56145
233.784	256.56634
234.324	124.24837
234.864	169.34908
235.404	235.50479
235.944	228.48859
236.484	263.59044
237.023	221.47001
237.563	199.41511
238.102	217.46271
238.641	202.46383
239.18	227.47457
239.719	240.54246
240.258	295.58691
240.797	237.50755
241.335	257.56416
241.874	281.47256
242.412	210.45449
242.95	182.39221
243.488	229.46856
244.026	243.49878
244.564	231.42362
245.102	215.43213
245.64	245.53035
246.177	240.48004
246.715	274.58614
247.252	272.55515
247.789	332.54359
248.326	202.43418
248.863	225.43888
249.4	300.59978
249.936	266.48104
250.473	231.47972
251.009	201.41182
251.546	258.50193
252.082	327.62269
252.618	260.51016
253.154	226.48368
253.69	243.48526
254.226	223.47488
254.761	292.57431
255.297	238.46037
255.832	273.56896
256.367	265.5513
256.903	255.49267
257.438	240.50163
257.972	229.45241
258.507	205.4166
259.042	246.47083
259.576	223.42154
260.111	249.50994
260.645	267.50744
261.179	267.54631
261.713	236.46263
262.247	226.46273
262.781	234.42987
263.315	249.53762
263.849	250.55215
264.382	258.52275
264.915	259.5309
265.449	209.44836
265.982	270.5388
266.515	269.57532
267.048	250.46135
267.58	291.55467
268.113	181.3465
268.646	227.49495
269.178	258.50121
269.71	262.49951
270.243	298.59108
270.775	276.61517
271.307	283.59714
271.838	304.63089
272.37	246.53217
272.902	300.59115
273.433	251.47796
273.965	260.55403
274.496	282.61421
275.027	291.62749
275.558	276.58224
276.089	202.43549
276.62	271.60565
277.15	280.6039
277.681	301.56314
278.211	279.59723
278.741	231.44137
279.272	266.5244
279.802	274.59654
280.332	226.46504
280.861	326.67261
281.391	245.48107
281.921	257.54038
282.45	290.62922
282.98	312.70374
283.509	252.48979
284.038	291.56789
284.567	350.69585
285.096	302.62674
285.625	270.52578
286.153	269.54117
286.682	265.5196
287.21	291.59892
287.739	242.49392
288.267	257.5349
288.795	294.66883
289.323	228.45794
289.851	294.58669
290.378	286.54501
290.906	255.52695
291.433	326.68922
291.961	280.53591
292.488	272.5801
293.015	274.54602
293.542	266.57445
294.069	281.58589
294.596	317.66506
295.122	286.57736
295.649	310.57237
296.175	293.60276
296.702	265.54836
297.228	296.60989
297.754	279.52585
298.28	305.57599
298.806	272.55086
299.332	305.55679
299.857	294.55154
300.383	391.82066
300.908	287.57871
301.433	248.50709
301.958	319.61336
302.483	236.49677
303.008	323.66567
303.533	299.65635
304.058	354.68706
304.582	271.53036
305.107	271.59138
305.631	367.68222
306.155	307.5846
306.679	300.57308
307.203	327.61663
307.727	294.57388
308.251	282.57739
308.775	280.54136
309.298	269.52645
309.822	300.62314
310.345	315.60567
310.868	293.56989
311.391	353.70296
311.914	288.58834
312.437	377.68408
312.96	332.62437
313.482	320.60684
314.005	315.63809
314.527	320.67832
315.049	342.69579
315.571	285.49844
316.093	318.6281
316.615	287.5513
317.137	306.52066
317.659	355.68094
318.18	453.83918
318.702	346.62414
319.223	396.60796
319.744	344.5904
320.265	315.59137
320.786	350.66341
321.307	360.68803
321.828	384.65201
322.348	328.58833
322.869	350.6194
323.389	340.39193
323.909	420.70969
324.43	426.76888
324.95	356.60151
325.47	374.67949
325.989	391.67019
326.509	351.5537
327.029	412.65505
327.548	401.63407
328.067	353.61316
328.587	452.80372
329.106	433.68352
329.625	471.89868
330.144	437.69382
330.662	375.60355
331.181	424.68265
331.7	381.61844
332.218	411.59439
332.736	502.77905
333.255	429.66822
333.773	471.73797
334.291	492.82735
334.808	462.66011
335.326	468.67754
335.844	398.59624
336.361	453.74367
336.879	467.6805
337.396	445.67981
337.913	469.66318
338.43	518.69484
338.947	508.73506
339.464	474.58965
339.981	517.72558
340.497	521.77904
341.014	506.73444
341.53	483.62448
342.046	452.66168
342.562	556.81312
343.078	546.72471
343.594	494.67845
344.11	543.72385
344.626	540.77462
345.141	565.68652
345.657	536.66035
346.172	533.70482
346.687	504.61775
347.202	600.67788
347.717	550.69454
348.232	583.7778
348.747	603.69091
349.261	494.521
349.776	558.66169
350.29	614.74703
350.805	688.8446
351.319	601.67772
351.833	547.58196
352.347	591.66132
352.861	657.69612
353.374	657.69556
353.888	624.71209
354.401	619.6394
354.915	660.61476
355.428	668.75098
355.941	634.63489
356.454	757.69543
356.967	700.70724
357.48	687.65977
357.993	675.72736
358.505	650.68121
359.018	708.72433
359.53	712.68839
360.042	718.60029
360.554	767.73587
361.066	709.68636
361.578	705.54991
362.09	740.67328
362.602	757.56679
363.113	703.59421
363.625	749.57024
364.136	838.58051
364.647	685.52543
365.158	796.60802
365.669	830.65948
366.18	797.61418
366.691	778.51426
367.201	702.56414
367.712	795.52596
368.222	791.52145
368.733	778.42754
369.243	780.43564
369.753	771.48912
370.263	848.543
370.773	813.56136
371.282	869.49449
371.792	743.35368
372.301	893.4562
372.811	889.5626
373.32	861.23005
373.829	835.31901
374.338	932.22603
374.847	903.22413
375.356	1013.21619
375.865	987.01861
376.373	1075.03503
376.882	1112.18326
377.39	1067.07318
377.898	966.00996
378.407	1165.79876
378.915	1307.66232
379.423	1292.69642
379.93	1393.55263
380.438	1231.59938
380.946	1413.41875
381.453	1407.37482
381.96	1257.39155
382.468	1461.21887
382.975	1664.11536
383.482	1656.12207
383.989	1704.09378
384.495	1633.16981
385.002	1699.33729
385.509	1913.33677
386.015	2068.89956
386.521	2013.86252
387.028	2082.25111
387.534	2239.81429
388.04	2388.86203
388.546	2138.47257
389.051	2153.37875
389.557	2512.09817
390.063	2997.04377
390.568	2939.0383
391.073	3038.4543
391.578	3116.47523
392.084	2991.10182
392.589	2764.48277
393.093	2879.25304
393.598	3296.2737
394.103	3775.15555
394.607	4389.21464
395.112	4808.54341
395.616	4972.25944
396.12	5022.93136
396.624	5760.27585
397.128	6187.66156
397.632	7436.04221
398.136	7725.23888
398.639	6731.11723
399.143	6778.55508
399.646	8143.16591
400.15	8310.06579
400.653	9111.18788
401.156	9089.34509
401.659	4058.70836
402.162	1041.8479
402.664	0
403.167	0
403.67	0
404.172	0
404.674	0
405.176	0
405.678	0
406.18	0
406.682	0
407.184	0
407.686	0
408.187	0
408.688	0
409.19	0
409.691	0
410.192	0
410.693	0
411.194	435.30976
411.694	4082.94878
412.195	8864.71461
412.696	12089.80453
413.196	12760.96929
413.696	12863.67595
414.196	13703.56671
414.696	17261.84252
415.196	21764.24417
415.696	28672.8524
416.196	24308.4823
416.695	16223.32532
417.195	12221.97454
417.694	11265.19719
418.194	11296.0336
418.693	9626.39269
419.192	9307.41668
419.691	9025.96983
420.19	9400.56117
420.688	9293.93358
421.187	9128.19405
421.685	8773.02282
422.184	8306.81517
422.682	7168.66861
423.18	5758.2417
423.678	4646.94958
424.176	4359.43047
424.674	4170.59117
425.172	4193.24108
425.669	4071.80165
426.167	3980.76848
426.664	3495.29531
427.161	3074.6289
427.659	2932.65629
428.156	2569.52324
428.652	2365.96326
429.149	2309.94087
429.646	2308.92681
430.143	2222.87428
430.639	2025.96531
431.135	1859.11781
431.632	1789.15919
432.128	1659.33963
432.624	1419.57784
433.12	1302.5193
433.616	1310.53516
434.111	1177.68437
434.607	1086.80598
435.103	1263.69711
435.598	1242.73358
436.093	1131.99014
436.588	1102.02198
437.083	1033.10293
437.578	1020.17692
438.073	811.27209
438.568	891.35798
439.062	858.20478
439.557	837.37177
440.051	736.31306
440.546	610.29898
441.04	683.39219
441.534	638.46256
442.028	736.46746
442.522	658.43814
443.015	631.35111
443.509	662.49791
444.002	578.45597
444.496	565.3568
444.989	599.48926
445.482	492.43979
445.975	505.3618
446.468	562.36071
446.961	494.33437
447.454	509.39617
447.947	439.38128
448.439	431.41568
448.931	405.33387
449.424	488.50678
449.916	484.46998
450.408	485.4028
450.9	359.36605
451.392	415.45222
451.884	372.36101
452.375	308.34303
452.867	434.41586
453.358	305.29859
453.849	348.30593
454.341	365.3565
454.832	292.27401
455.323	370.41663
455.814	307.33072
456.304	325.35208
456.795	389.40923
457.285	363.38369
457.776	394.43556
458.266	264.31597
458.756	275.34323
459.247	280.33806
459.737	250.30773
460.226	245.28054
460.716	228.29208
461.206	270.3495
461.695	248.35042
462.185	270.34782
462.674	235.30033
463.163	274.32866
463.653	254.28526
464.142	169.23779
464.63	288.40722
465.119	172.23178
465.608	227.30177
466.096	233.29346
466.585	241.33243
467.073	220.32313
467.561	216.32097
468.05	208.29856
468.538	204.31795
469.026	175.26678
469.513	138.18031
470.001	124.17988
470.489	150.22887
470.976	195.28914
471.463	167.27822
471.951	177.29927
472.438	148.23134
472.925	85.1346
473.412	199.33446
473.899	123.19444
474.385	155.26521
474.872	117.18891
475.359	125.21491
475.845	120.16997
476.331	128.19599
476.817	98.17387
477.303	80.13471
477.789	97.17088
478.275	49.09044
478.761	119.21118
479.247	91.1506
479.732	87.16139
480.218	106.20877
480.703	86.16197
481.188	84.13375
481.673	80.13817
482.158	5.00799
482.643	91.18029
483.128	33.05774
483.612	36.0655
484.097	75.14413
484.581	113.20335
485.066	59.11251
485.55	55.09345
486.034	29.04911
486.518	8.0149
487.002	-21.04135
487.486	19.03725
487.969	21.04123
488.453	36.07398
488.936	29.05248
489.42	79.13947
489.903	55.11345
490.386	-432.64956
490.869	52.09202
491.352	88.17683
491.835	59.09889
492.318	26.04805
492.8	37.06242
493.283	5.0106
493.765	-33.06835
494.247	60.11678
494.73	28.05133
495.212	82.16538
495.694	8.0156
496.175	20.03932
496.657	78.15406
497.139	72.10327
497.62	2.00397
498.102	27.05642
498.583	54.11437
499.064	-14.02635
499.545	124.2333
500.026	60.11228
500.507	111.21414
500.988	55.11595
501.469	59.12466
501.949	121.25128
502.43	89.17624
502.91	152.25581
503.39	158.33142
503.87	125.24405
504.35	173.34001
504.83	189.33768
505.31	196.39113
505.79	254.4925
506.269	277.52542
506.749	282.5165
507.228	303.56969
507.707	422.72354
508.187	435.81871
508.666	426.8205
509.145	523.92882
509.623	588.03551
510.102	676.21387
510.581	750.32568
511.059	775.40809
511.538	944.73191
512.016	1018.64745
512.494	1141.82933
512.972	1183.82541
513.45	1226.76632
513.928	1387.05466
514.406	1479.08466
514.884	1665.4879
515.361	1746.28583
515.839	1791.1322
516.316	2025.44053
516.793	2183.74774
517.27	2223.57191
517.747	2362.84866
518.224	2385.38846
518.701	2441.22088
519.178	2441.68047
519.654	2572.55135
520.131	2510.71227
520.607	2531.75621
521.083	2522.33813
521.56	2524.49802
522.036	2501.1853
522.512	2528.74337
522.987	2320.47797
523.463	2289.50463
523.939	2212.6454
524.414	2271.40309
524.89	2106.46395
525.365	1981.23472
525.84	1816.31338
526.315	1804.38223
526.79	1807.15949
527.265	1684.13431
527.74	1579.28207
528.215	1577.17602
528.689	1471.91222
529.164	1385.81344
529.638	1324.23558
530.112	1237.88478
530.587	1148.56633
531.061	1085.77951
531.534	1065.78633
532.008	1044.72957
532.482	1051.64915
532.956	869.62003
533.429	887.55666
533.903	927.44034
534.376	884.38407
534.849	835.40858
535.322	767.34629
535.795	772.41364
536.268	689.25914
536.741	708.29231
537.213	708.23437
537.686	611.15408
538.158	599.02605
538.631	619.1755
539.103	567.98351
539.575	575.92363
540.047	531.91565
540.519	507.97113
540.991	456.90913
541.463	495.96327
541.934	470.86177
542.406	402.78246
542.877	397.72991
543.348	427.84359
543.82	412.83171
544.291	406.77746
544.762	365.71197
545.233	397.8178
545.703	404.72133
546.174	349.67008
546.645	293.58103
547.115	349.6937
547.585	349.66038
548.056	308.61263
548.526	333.6409
548.996	344.68168
549.466	441.87166
549.935	315.61034
550.405	373.65478
550.875	415.78644
551.344	365.71264
551.814	348.64995
552.283	464.79345
552.752	371.69171
553.221	423.71845
553.69	434.7573
554.159	509.9712
554.628	454.78762
555.096	453.91049
555.565	484.8379
556.033	486.90504
556.502	530.00838
556.97	574.98115
557.438	580.07267
557.906	602.11677
558.374	635.12461
558.842	672.23699
559.31	679.16158
559.777	666.24312
560.245	805.42054
560.712	808.40027
561.18	855.3746
561.647	960.5262
562.114	1009.6177
562.581	1135.95595
563.048	1203.87273
563.514	1272.09074
563.981	1398.03684
564.448	1487.04748
564.914	1580.23807
565.381	1702.2508
565.847	1827.42201
566.313	1978.47427
566.779	2085.39005
567.245	2283.59475
567.711	2397.72098
568.176	2504.42828
568.642	2706.98127
569.108	2906.87694
569.573	2991.66571
570.038	3223.02499
570.504	3474.21663
570.969	3696.81374
571.434	3904.89219
571.899	4162.24852
572.363	4422.84249
572.828	4640.76939
573.293	4856.6396
573.757	5128.49715
574.222	5350.19714
574.686	5630.09483
575.15	5909.32895
575.614	6041.10106
576.078	6220.17571
576.542	6429.01495
577.006	6658.96492
577.469	7035.47832
577.933	7032.00414
578.396	7171.31437
578.86	7320.33812
579.323	7360.3859
579.786	7410.10358
580.249	7441.27291
580.712	7597.63553
581.175	7424.56902
581.637	7575.42799
582.1	7592.30351
582.563	7644.29751
583.025	7438.50612
583.487	7391.93524
583.95	7131.92391
584.412	7285.96731
584.874	7047.37867
585.336	6875.23609
585.797	6787.84467
586.259	6743.2262
586.721	6556.17144
587.182	6360.21727
587.643	6192.07269
588.105	6155.29202
588.566	5911.78154
589.027	5694.52098
589.488	5528.3082
589.949	5443.7111
590.41	5298.61123
590.87	5100.54619
591.331	4903.34072
591.791	4756.75989
592.252	4601.7782
592.712	4553.14893
593.172	4360.85099
593.632	4270.7812
594.092	4079.96108
594.552	3995.8141
595.011	3810.2327
595.471	3806.11919
595.931	3582.1965
596.39	3473.6262
596.849	3427.49359
597.308	3313.18386
597.768	3134.07132
598.227	3105.78115
598.685	3036.56026
599.144	2862.64997
599.603	2885.72022
600.062	2823.13651
600.52	2718.41949
600.978	2662.72971
601.437	2647.56921
601.895	2503.22272
602.353	2535.42717
602.811	2429.41192
603.269	2385.7365
603.727	2277.70813
604.184	2201.42008
604.642	2297.81455
605.099	2273.57144
605.557	2213.77172
606.014	2124.22835
606.471	2059.77675
606.928	2093.18474
607.385	2117.6746
607.842	2058.43533
608.299	2083.53059
608.755	2067.64674
609.212	1942.28031
609.668	1949.25328
610.125	1954.61731
610.581	2007.61618
611.037	1975.45431
611.493	1902.54274
611.949	1825.54049
612.405	1847.94403
612.861	1783.47313
613.316	1746.47388
613.772	1780.37003
614.227	1827.48734
614.683	1724.13252
615.138	1714.39158
615.593	1694.36023
616.048	1734.35455
616.503	1688.57306
616.958	1575.52948
617.412	1621.38242
617.867	1582.13228
618.321	1605.98486
618.776	1531.12647
619.23	1517.28861
619.684	1480.15897
620.138	1475.24438
620.592	1439.33658
621.046	1440.24809
621.5	1341.24315
621.954	1380.08677
622.407	1329.00957
622.861	1239.13923
623.314	1241.98605
623.768	1234.03128
624.221	1226.64233
624.674	1090.8468
625.127	1108.90775
625.58	1135.89491
626.033	1119.80809
626.485	1027.85861
626.938	1122.98013
627.39	1029.8113
627.843	1003.77
628.295	1002.76961
628.747	959.77051
629.199	913.62167
629.651	876.56987
630.103	935.66942
630.555	916.50512
631.006	933.72155
631.458	816.55977
631.909	883.62343
632.361	776.48606
632.812	768.45584
633.263	806.40641
633.714	840.44587
634.165	725.47557
634.616	676.3623
635.067	781.42907
635.518	738.4772
635.968	782.28072
636.419	694.27054
636.869	672.3654
637.319	702.37134
637.769	622.19471
638.219	708.43995
638.669	553.15826
639.119	598.27501
639.569	597.25663
640.019	632.26533
640.468	604.17235
640.918	650.35725
641.367	607.18463
641.816	587.14824
642.265	595.2046
642.714	523.07697
643.163	543.10668
643.612	528.12556
644.061	491.92776
644.51	534.07967
644.958	532.03677
645.406	484.04232
645.855	501.10554
646.303	509.06877
646.751	481.98637
647.199	502.0246
647.647	426.89628
648.095	506.04026
648.543	503.92578
648.99	501.07738
649.438	513.08619
649.885	516.15127
650.333	482.84154
650.78	451.99535
651.227	442.98507
651.674	464.96247
652.121	425.95209
652.568	404.90674
653.015	463.07169
653.461	424.92815
653.908	458.97631
654.354	439.96482
654.801	373.81429
655.247	441.88964
655.693	420.01238
656.139	344.77464
656.585	386.86279
657.031	368.7998
657.477	394.78917
657.922	410.87401
658.368	396.91137
658.813	416.89949
659.259	411.91543
659.704	313.69084
660.149	372.81159
660.594	353.78855
661.039	364.77832
661.484	400.89334
661.929	333.73743
662.373	327.78092
662.818	327.76896
663.262	298.68368
663.707	322.775
664.151	319.74138
664.595	316.72468
665.039	351.82666
665.483	303.73632
665.927	262.59508
666.371	269.59721
666.814	301.68821
667.258	257.58526
667.701	367.74955
668.145	310.73821
668.588	275.64972
669.031	257.58266
669.474	247.57611
669.917	276.59042
670.36	309.73342
670.803	286.66483
671.245	289.58703
671.688	264.62313
672.13	239.52067
672.573	292.71398
673.015	295.68128
673.457	253.53525
673.899	277.64836
674.341	281.65437
674.783	230.53699
675.225	255.60784
675.666	201.4727
676.108	246.52101
676.549	259.59601
676.991	232.50017
677.432	268.51816
677.873	220.49868
678.314	197.46239
678.755	210.50049
679.196	216.48483
679.637	254.60395
680.078	257.58573
680.518	247.56226
680.959	192.45285
681.399	168.41142
681.839	229.54482
682.28	189.45864
682.72	226.50644
683.16	190.4653
683.6	233.52095
684.039	281.56844
684.479	198.4775
684.919	140.32096
685.358	219.54435
685.798	162.41923
686.237	190.45352
686.676	216.49339
687.115	215.49635
687.554	193.45194
687.993	237.51391
688.432	173.39207
688.871	171.3847
689.309	185.43626
689.748	185.38453
690.186	215.50503
690.625	177.41058
691.063	161.38305
691.501	164.40178
691.939	161.39757
692.377	156.37764
692.815	190.44813
693.253	199.472
693.69	161.35254
694.128	119.28802
694.565	175.41348
695.003	145.36554
695.44	148.34637
695.877	128.29874
696.314	144.31045
696.751	177.40113
697.188	168.38314
697.625	223.50414
698.061	107.25742
698.498	175.41972
698.934	109.26332
699.371	124.29191
699.807	154.36252
700.243	160.38221
700.679	155.35013
701.115	154.36154
701.551	164.38396
701.987	190.4235
702.422	118.28059
702.858	149.35341
703.294	131.29749
703.729	172.41699
704.164	145.34764
704.599	121.27077
705.035	105.23651
705.47	124.30119
705.904	121.28235
706.339	176.40672
706.774	121.2839
707.209	102.23656
707.643	137.32833
708.078	116.28271
708.512	72.18122
708.946	163.38826
709.38	141.33341
709.814	135.30894
710.248	116.28313
710.682	124.29497
711.116	72.17318
711.549	128.32919
711.983	81.18909
712.416	143.33748
712.85	131.32575
713.283	122.2891
713.716	174.4329
714.149	160.37943
714.582	167.37293
715.015	144.35905
715.448	135.33911
715.881	178.38738
716.313	130.3046
716.746	105.24819
717.178	121.29098
717.61	141.35584
718.043	138.34272
718.475	101.24583
718.907	156.39235
719.339	92.21015
719.77	69.16518
720.202	115.29064
720.634	96.23441
721.065	132.31255
721.497	109.26768
721.928	62.1537
722.359	98.23697
722.79	123.29422
723.221	112.2821
723.652	137.35202
724.083	130.29336
724.514	113.26067
724.945	70.16633
725.375	53.12465
725.806	137.34092
726.236	154.39162
726.666	169.39683
727.096	108.26557
727.526	75.19157
727.956	81.18589
728.386	130.31943
728.816	89.22589
729.246	80.19563
729.675	101.24905
730.105	87.21539
730.534	117.2743
730.964	120.30311
731.393	130.3225
731.822	109.27842
732.251	93.23671
732.68	153.35898
733.109	95.23494
733.537	87.21128
733.966	119.29516
734.395	108.25038
734.823	108.24511
735.251	64.15575
735.68	130.32485
736.108	111.28083
736.536	91.2161
736.964	104.24235
737.392	104.26063
737.82	105.2528
738.247	109.26173
738.675	168.39825
739.102	62.15616
739.53	60.15393
739.957	111.28512
740.384	161.39421
740.811	96.24396
741.238	85.20859
741.665	98.22827
742.092	141.3356
742.519	80.19897
742.945	96.23143
743.372	77.19182
743.798	90.23195
744.225	70.16799
744.651	73.18436
745.077	72.18077
745.503	109.2663
745.929	111.26663
746.355	179.44023
746.781	96.23859
747.207	32.07627
747.632	73.17908
748.058	73.18338
748.483	116.26754
748.908	93.23176
749.334	69.17083
749.759	94.22266
750.184	91.21768
750.609	99.24394
751.033	135.31848
751.458	135.30259
751.883	116.28724
752.307	73.17329
752.732	64.16091
753.156	103.25463
753.58	121.28734
754.005	98.24913
754.429	82.19401
754.853	74.18438
755.277	102.24208
755.7	106.26306
756.124	75.18711
756.548	61.14603
756.971	110.26869
757.394	112.28794
757.818	58.15031
758.241	74.18865
758.664	68.17275
759.087	54.12211
759.51	99.24672
759.933	62.15049
760.356	108.27649
760.778	84.2074
761.201	115.2796
761.623	90.21935
762.046	99.23582
762.468	133.31851
762.89	96.23755
763.312	85.20851
763.734	92.22221
764.156	96.23746
764.578	98.22647
765	54.13308
765.421	47.12035
765.843	69.18167
766.264	117.28243
766.686	149.37118
767.107	55.13457
767.528	33.0842
767.949	77.19654
768.37	51.12641
768.791	110.26609
769.212	52.13159
769.632	60.14108
770.053	55.14569
770.473	111.26967
770.894	115.28732
771.314	142.33727
771.734	58.13654
772.154	93.23889
772.575	107.2483
772.994	81.18507
773.414	130.31091
773.834	49.12357
774.254	72.17718
774.673	96.23415
775.093	79.19609
775.512	65.16105
775.931	100.25323
776.351	70.17461
776.77	51.12571
777.189	109.25894
777.607	115.2924
778.026	93.23168
778.445	70.17574
778.864	60.15474
779.282	57.13822
779.701	91.22941
780.119	56.14231
780.537	34.0857
780.955	100.25404
781.373	59.14682
781.791	68.15383
782.209	117.26893
782.627	83.21861
783.045	74.17108
783.462	49.126
783.88	48.12491
784.297	83.20894
784.715	38.09831
785.132	58.14131
785.549	67.16818
785.966	99.24842
786.383	70.17277
786.8	93.21616
787.217	42.10053
787.633	62.15532
788.05	154.36182
788.466	134.31373
788.883	49.12565
789.299	58.14051
789.715	93.22585
790.131	110.27229
790.547	104.25885
790.963	118.29112
791.379	93.23462
791.795	99.22573
792.21	116.26988
792.626	51.1219
793.041	70.17321
793.457	81.20032
793.872	93.21846
794.287	48.11532
794.702	99.24331
795.117	61.15207
795.532	22.05569
795.947	113.27071
796.362	160.37694
796.776	153.35421
797.191	107.26073
797.605	14.0333
798.02	76.18516
798.434	120.2657
798.848	93.22848
799.262	40.09992
799.676	120.29082
800.09	42.10408
800.504	108.26086
800.918	59.1374
801.331	83.21735
801.745	85.1953
802.158	101.25143
802.572	97.23469
802.985	130.3115
803.398	49.11761
803.811	104.26616
804.224	109.26986
804.637	31.07455
805.05	59.13746
805.462	99.24241
805.875	67.17378
806.288	72.17384
806.7	69.17364
807.112	77.17876
807.525	91.22406
807.937	78.19272
808.349	100.24944
808.761	92.22573
809.173	42.10248
809.584	122.29911
809.996	59.1449
810.408	78.20102
810.819	81.19042
811.231	45.11676
811.642	76.18114
812.053	143.33565
812.464	155.36296
812.875	178.44639
813.286	123.31373
813.697	168.38623
814.108	104.25281
814.519	126.27829
814.929	116.29364
815.34	90.21771
815.75	78.19794
816.16	132.32554
816.571	81.21002
816.981	110.25814
817.391	82.19776
817.801	62.15426
818.211	112.2652
818.62	93.22306
819.03	91.22232
819.44	123.31837
819.849	94.23591
820.259	91.23212
820.668	73.17948
821.077	68.16894
821.486	120.28655
821.895	111.27239
822.304	97.25574
822.713	101.23753
823.122	119.2944
823.531	87.20572
823.939	79.19222
824.348	113.27267
824.756	142.35111
825.164	97.24296
825.573	85.21267
825.981	78.19322
826.389	132.32794
826.797	108.26861
827.205	66.15167
827.612	110.26949
828.02	81.18983
828.428	67.17066
828.835	78.20485
829.243	96.22775
829.65	64.15923
830.057	105.25318
830.464	79.19214
830.871	99.23582
831.278	104.24977
831.685	148.32524
832.092	92.22431
832.499	58.1273
832.905	94.23685
833.312	108.24461
833.718	107.26471
834.124	78.17803
834.531	84.21112
834.937	132.33485
835.343	65.15697
835.749	105.24366
836.155	88.22947
836.561	67.16479
836.966	72.17594
837.372	90.22807
837.777	64.15947
838.183	129.28343
838.588	56.13928
838.993	90.2182
839.399	38.09337
839.804	36.0882
840.209	59.15028
840.613	87.19284
841.018	105.26395
841.423	69.17681
841.828	55.1393
842.232	130.31825
842.637	93.21829
843.041	55.14113
843.445	70.17537
843.849	51.12654
844.253	87.20596
844.657	50.12616
845.061	77.17437
845.465	47.11389
845.869	84.19451
846.272	94.22756
846.676	103.24732
847.079	70.1777
847.483	118.29145
847.886	146.34984
848.289	42.11239
848.692	82.20691
849.095	91.21743
849.498	108.27154
849.901	110.25006
850.304	60.1435
850.707	79.2008
851.109	98.24639
851.512	33.08152
851.914	42.10617
852.316	76.1917
852.718	10.02603
853.121	57.13978
853.523	90.20923
853.925	44.11505
854.326	63.1574
854.728	83.21253
855.13	87.22324
855.531	42.10072
855.933	59.14173
856.334	48.1199
856.736	49.11006
857.137	97.22394
857.538	63.15826
857.939	19.04728
858.34	96.2324
858.741	104.2697
859.142	52.12512
859.542	92.24129
859.943	96.23694
860.343	5.0125
860.744	130.31304
861.144	109.26342
861.544	13.03151
861.945	54.13772
862.345	85.20689
862.745	95.23451
863.145	132.31122
863.544	59.14906
863.944	103.24129
864.344	121.29715
864.743	115.28242
865.143	70.1794
865.542	43.10006
865.941	86.21179
866.34	126.298
866.74	91.24282
867.139	73.17429
867.537	113.28508
867.936	109.25984
868.335	88.22268
868.734	47.12031
869.132	32.07474
869.531	84.2022
869.929	58.13222
870.327	67.16033
870.726	104.25715
871.124	96.22273
871.522	88.22292
871.92	126.30685
872.318	95.23063
872.715	119.29127
873.113	27.06616
873.511	89.22043
873.908	29.07355
874.306	100.24672
874.703	78.19442
875.1	113.2862
875.497	89.21208
875.894	58.14204
876.291	91.22191
876.688	96.24586
877.085	110.26127
877.482	75.18711
877.878	42.10137
878.275	90.22726
878.671	81.17954
879.068	101.24178
879.464	60.14492
879.86	70.16511
880.256	76.18689
880.652	37.09441
881.048	78.19251
881.444	93.21983
881.84	36.09181
882.236	77.19287
882.631	98.23867
883.027	101.24252
883.422	105.26612
883.817	44.11079
884.213	69.17662
884.608	76.18564
885.003	66.15881
885.398	45.11284
885.793	74.18512
886.188	60.14901
886.582	122.30926
886.977	89.20988
887.371	86.2163
887.766	61.15152
888.16	118.29112
888.554	100.24526
888.949	132.32686
889.343	122.29433
889.737	21.05626
890.131	82.20469
890.525	90.22871
890.918	60.15086
891.312	99.23491
891.706	68.17798
892.099	119.29935
892.492	85.18227
892.886	77.18763
893.279	46.11735
893.672	73.18522
894.065	67.1674
894.458	99.24699
894.851	137.33058
895.244	74.18832
895.637	117.27848
896.029	94.22816
896.422	86.20889
896.814	94.232
897.206	86.20356
897.599	89.21873
897.991	53.12818
898.383	91.21351
898.775	40.09056
899.167	27.0633
899.559	82.20654
899.951	97.22679
900.342	76.19252
900.734	61.15114
901.125	95.24751
901.517	68.16647
901.908	112.26561
902.299	57.13926
902.69	62.14607
903.082	88.21175
903.473	39.09365
903.863	73.18561
904.254	109.25024
904.645	131.32123
905.036	88.21167
905.426	117.26451
905.817	76.18571
906.207	56.13337
906.597	73.17008
906.987	100.25709
907.378	48.12151
907.768	70.18452
908.158	90.21795
908.547	29.07522
908.937	85.21689
909.327	75.18139
909.717	110.27647
910.106	88.20998
910.495	81.2012
910.885	84.21158
911.274	77.19161
911.663	87.21948
912.052	103.25183
912.441	56.14231
912.83	65.14887
913.219	91.2366
913.608	93.22611
913.997	38.09551
914.385	88.20885
914.774	94.22713
915.162	47.11213
915.55	80.19257
915.939	45.11373
916.327	98.24258
916.715	59.15018
917.103	125.30357
917.491	86.21148
917.878	159.38323
918.266	89.22933
918.654	121.30537
919.041	46.1202
919.429	54.12742
919.816	85.21421
920.203	67.16204
920.591	92.22648
920.978	72.17568
921.365	55.14423
921.752	87.20604
922.139	52.11293
922.525	73.17462
922.912	91.22033
923.299	101.24877
923.685	60.15629
924.072	67.15407
924.458	100.24554
924.844	73.17994
925.231	84.19428
925.617	38.09688
926.003	77.19592
926.389	76.19088
926.774	89.22405
927.16	83.20496
927.546	83.21066
927.931	86.21327
928.317	74.16972
928.702	112.26191
929.088	83.19512
929.473	86.21747
929.858	35.08487
930.243	54.12954
930.628	33.08056
931.013	51.12641
931.398	102.23225
931.783	82.21477
932.167	42.10286
932.552	84.20922
932.937	89.21938
933.321	55.13791
933.705	39.09853
934.09	116.28976
934.474	74.17502
934.858	71.18352
935.242	72.16619
935.626	58.14828
936.009	36.09598
936.393	95.23984
936.777	69.17612
937.16	81.20966
937.544	111.2585
937.927	64.16201
938.311	99.23952
938.694	98.25711
939.077	98.2325
939.46	126.30513
939.843	109.22454
940.226	68.17391
940.609	81.18484
940.991	55.13989
941.374	86.20882
941.757	92.22531
942.139	60.13451
942.522	63.14857
942.904	63.1511
943.286	61.15472
943.668	90.23154
944.05	44.10852
944.432	76.18668
944.814	109.2656
945.196	34.08311
945.578	88.20764
945.959	81.18871
946.341	108.26233
946.722	104.24158
947.104	112.26458
947.485	89.20555
947.866	62.15588
948.247	75.1884
948.628	90.21795
949.009	66.16856
949.39	72.17855
949.771	129.29544
950.152	90.21927
950.532	29.07161
950.913	108.2577
951.293	56.15113
951.674	118.28178
952.054	67.16551
952.434	77.19022
952.814	99.23337
953.194	100.25951
953.574	138.33444
953.954	104.24444
954.334	41.10236
954.714	8.01965
955.093	109.26511
955.473	89.22099
955.853	77.19841
956.232	93.25315
956.611	99.23528
956.99	59.14805
957.37	90.22774
957.749	109.25714
958.128	64.16085
958.506	58.15026
958.885	103.25752
959.264	71.17333
959.643	102.22971
960.021	97.2383
960.4	48.10885
960.778	93.22729
961.156	59.14767
961.535	59.1373
961.913	92.21354
962.291	44.113
962.669	51.12917
963.047	60.15286
963.424	51.13013
963.802	56.13755
964.18	120.29986
964.557	95.21688
964.935	108.25305
965.312	81.2098
965.69	100.24817
966.067	93.22467
966.444	103.25136
966.821	99.25305
967.198	110.26388
967.575	104.25318
967.952	94.21965
968.329	113.27175
968.705	118.24937
969.082	84.21415
969.458	63.15076
969.835	66.16019
970.211	62.15879
970.587	84.20785
970.963	109.27675
971.339	50.13056
971.715	67.16679
972.091	81.19833
972.467	95.23503
972.843	39.09698
973.219	100.23788
973.594	64.167
973.97	81.19168
974.345	58.13861
974.721	105.25165
975.096	81.19487
975.471	120.28084
975.846	68.16282
976.221	40.10176
976.596	60.14355
976.971	107.26141
977.346	85.19655
977.72	101.25499
978.095	83.21327
978.469	77.18285
978.844	101.25161
979.218	69.1648
979.593	100.23733
979.967	92.22238
980.341	68.15602
980.715	91.2276
981.089	60.14993
981.463	81.18484
981.837	67.1632
982.21	126.28886
982.584	58.13988
982.957	61.15202
983.331	95.22264
983.704	37.09114
984.078	60.1476
984.451	108.26694
984.824	54.13141
985.197	93.22407
985.57	71.17739
985.943	134.32585
986.316	89.21711
986.688	74.17766
987.061	105.24347
987.434	79.20484
987.806	94.2261
988.179	48.11331
988.551	73.18443
988.923	103.25117
989.295	109.26946
989.667	28.06717
990.039	39.09656
990.411	52.11964
990.783	87.19885
991.155	39.0939
991.527	113.27504
991.898	80.19825
992.27	90.22098
992.641	122.3021
993.012	90.21014
993.384	60.14284
993.755	49.12494
994.126	84.20074
994.497	65.1591
994.868	113.2563
995.239	94.22593
995.61	76.19033
995.98	51.12386
996.351	84.20671
996.722	51.11826
997.092	75.17673
997.462	36.08432
997.833	107.25086
998.203	120.2871
998.573	45.11215
998.943	96.22309
999.313	83.19763
999.683	56.13424
1000.053	103.23448
1000.423	67.16229
1000.792	113.28965
1001.162	99.24142
1001.531	49.12083
1001.901	116.28566
1002.27	94.20822
1002.639	61.15554
1003.009	92.217
1003.378	70.17833
1003.747	59.13914
1004.116	78.18562
1004.485	78.18541
1004.853	87.21894
1005.222	74.18579
1005.591	105.24665
1005.959	30.06787
1006.328	45.10136
1006.696	25.06058
1007.064	75.18779
1007.433	72.1792
1007.801	101.24556
1008.169	98.24533
1008.537	93.20407
1008.905	31.07248
1009.273	72.17711
1009.64	43.1027
1010.008	47.11208
1010.375	127.30391
1010.743	116.26434
1011.11	67.158
1011.478	80.19687
1011.845	99.23056
1012.212	77.1733
1012.579	84.20488
1012.946	123.28859
1013.313	141.32966
1013.68	66.14784
1014.047	48.1144
1014.414	35.08289
1014.78	61.15125
1015.147	90.21598
1015.513	42.10133
1015.88	107.27081
1016.246	85.20844
1016.612	94.21325
1016.978	94.22841
1017.344	72.17718
1017.71	123.29579
1018.076	123.28589
1018.442	83.21223
1018.808	93.23059
1019.174	53.13285
1019.539	159.358
1019.905	63.14816
1020.27	50.12336
1020.636	91.21643
1021.001	87.20676
1021.366	58.13903
1021.731	65.16667
1022.096	80.20063
1022.461	43.10188
1022.826	66.15634
1023.191	52.13634
1023.556	129.29758
1023.92	105.25547
1024.285	71.17256
1024.649	85.20689
1025.014	92.22606
1025.378	90.22457
1025.742	94.23149
1026.107	96.21505
1026.471	63.14666
1026.835	58.14352
1027.199	48.11554
1027.562	79.18253
1027.926	68.16567
1028.29	71.17893
1028.654	93.21205
1029.017	90.21951
1029.381	53.12649
1029.744	89.22533
1030.107	100.23422
1030.471	47.11256
1030.834	84.18971
1031.197	101.24086
1031.56	75.17604
1031.923	62.1599
1032.286	127.29367
1032.648	118.27843
1033.011	36.08283
1033.374	117.2713
1033.736	51.13401
1034.099	63.15311
1034.461	54.13626
1034.823	79.19559
1035.185	102.25424
1035.548	56.13608
1035.91	73.17402
1036.272	69.15638
1036.634	102.24701
1036.995	85.19834
1037.357	55.13362
1037.719	61.14798
1038.08	95.22351
1038.442	77.18172
1038.803	82.19559
1039.165	82.20565
1039.526	83.19922
1039.887	49.11721
1040.248	63.15478
1040.609	67.16497
1040.97	71.17275
1041.331	78.19639
1041.692	60.13971
1042.053	105.23632
1042.413	120.27566
1042.774	87.21002
1043.134	86.20324
1043.495	97.24165
1043.855	53.12842
1044.215	49.12158
1044.576	103.24365
1044.936	112.25347
1045.296	93.23016
1045.656	98.23822
1046.016	102.24366
1046.375	112.26837
1046.735	58.13121
1047.095	104.24072
1047.454	117.24417
1047.814	79.18876
1048.173	105.24809
1048.533	83.18879
1048.892	80.19082
1049.251	85.21191
1049.61	70.17162
1049.969	67.15733
1050.328	103.22068
1050.687	65.15762
1051.046	97.23398
1051.405	111.2729
1051.763	61.13988
1052.122	50.12463
1052.48	102.24757
1052.839	43.10125
1053.197	67.15708
1053.555	124.27834
1053.914	96.23266
1054.272	98.23465
1054.63	21.05159
1054.988	44.10459
1055.345	53.114
1055.703	101.24058
1056.061	85.21719
1056.419	44.11395
1056.776	90.21648
1057.134	66.15222
1057.491	84.20892
1057.848	93.22957
1058.206	89.2076
1058.563	96.20946
1058.92	103.23476
1059.277	84.20579
1059.634	95.22142
1059.991	88.20917
1060.348	85.1906
1060.704	84.19874
1061.061	141.3215
1061.418	70.16901
1061.774	79.19387
1062.131	49.12949
1062.487	67.15604
1062.843	87.21532
1063.199	89.21962
1063.555	77.17734
1063.911	88.22062
1064.267	146.29785
1064.623	40.09727
1064.979	103.24139
1065.335	91.21568
1065.691	66.15761
1066.046	99.21532
1066.402	35.07971
1066.757	58.14609
1067.112	91.2215
1067.468	70.16453
1067.823	114.27056
1068.178	112.26755
1068.533	84.2022
1068.888	127.29879
1069.243	78.19138
1069.598	98.23581
1069.952	60.13474
1070.307	36.08928
1070.662	96.22573
1071.016	-3.00679
1071.371	50.11366
1071.725	124.29225
1072.079	43.10349
1072.434	60.14541
1072.788	63.14955
1073.142	68.1666
1073.496	83.1955
1073.85	73.1684
1074.203	120.2871
1074.557	77.20369
1074.911	116.27318
1075.265	95.21871
1075.618	57.1389
1075.971	106.24924
1076.325	27.06885
1076.678	75.17053
1077.031	59.13317
1077.385	72.15776
1077.738	97.2167
1078.091	51.11587
1078.444	50.11601
1078.796	49.12016
1079.149	91.22447
1079.502	80.18774
1079.855	60.13954
1080.207	107.26063
1080.56	60.15469
1080.912	95.22915
1081.264	91.21726
1081.617	64.15546
1081.969	46.11603
1082.321	107.25829
1082.673	33.07552
1083.025	63.14897
1083.377	112.237
1083.728	85.19678
1084.08	96.23746
1084.432	75.17988
1084.783	134.30856
1085.135	88.21887
1085.486	19.04371
1085.838	63.15466
1086.189	94.2261
1086.54	122.28709
1086.891	66.1663
1087.242	58.14088
1087.593	85.20542
1087.944	64.14431
1088.295	67.15166
1088.646	104.2493
1088.996	46.11081
1089.347	77.18784
1089.698	43.10168
1090.048	73.18869
1090.398	69.1593
1090.749	96.22749
1091.099	42.10567
1091.449	49.12198
1091.799	56.13994
1092.149	28.0685
1092.499	73.17715
1092.849	41.10429
1093.199	99.24573
1093.548	87.20739
1093.898	54.13489
1094.248	65.16644
1094.597	42.10726
1094.947	68.1807
1095.296	71.17449
1095.645	116.29801
1095.994	69.16499
1096.343	74.18525
1096.692	33.08686
1097.041	86.23127
1097.39	86.21413
1097.739	77.19903
1098.088	101.26808
1098.437	30.079
1098.785	88.23556
1099.134	105.27599
1099.482	67.18361
1099.83	73.19091
1100.179	91.23546
1100.527	93.24511
1100.875	50.13207
1101.223	81.21377
1101.571	48.13257
1101.919	22.0577
1102.267	34.09587
1102.615	5.01607
1102.962	19.06111
1103.31	5.01607
1103.658	23.07398
