Data from N2 R15 sample 3_Subt2__0__15-34-34-493.txt Node

Date: Tue Sep 02 15:34:34 PDT 2025
User: uwsun
Spectrometer: HDX01956
Trigger mode: 0
Integration Time (sec): 5.000000E-1
Scans to average: 1
Nonlinearity correction enabled: true
Boxcar width: 0
Storing dark spectrum: false
XAxis mode: Wavelengths
Number of Pixels in Spectrum: 2068
>>>>>Begin Spectral Data<<<<<
194.03	108.29808
194.578	84.26288
195.127	85.26201
195.676	89.27505
196.225	156.40301
196.773	173.46115
197.321	203.5265
197.87	278.65261
198.418	279.64587
198.966	248.58128
199.513	239.53326
200.061	188.43134
200.609	265.63506
201.156	176.34632
201.704	213.4833
202.251	208.49914
202.798	228.5342
203.345	258.57339
203.892	255.57507
204.438	270.57634
204.985	254.5323
205.532	243.57457
206.078	300.65258
206.624	245.53714
207.17	280.57719
207.716	213.46443
208.262	275.4779
208.808	197.43482
209.354	227.49453
209.899	267.60729
210.445	244.54047
210.99	245.52558
211.535	289.60311
212.08	303.62277
212.625	280.62563
213.17	282.63842
213.715	211.41705
214.259	281.58198
214.804	304.66831
215.348	281.57104
215.892	278.59393
216.436	298.61374
216.98	320.62433
217.524	232.49222
218.068	303.67967
218.612	315.70571
219.155	248.52295
219.698	245.52445
220.242	313.69661
220.785	278.58028
221.328	249.55993
221.871	295.67205
222.414	273.61239
222.956	197.42973
223.499	232.47028
224.041	264.55424
224.583	285.55116
225.126	261.51466
225.668	254.55464
226.21	208.47512
226.751	163.32414
227.293	281.57417
227.835	171.38139
228.376	308.63376
228.918	299.67676
229.459	238.53311
230	256.54669
230.541	249.51617
231.082	263.57125
231.622	287.58989
232.163	256.55546
232.704	266.58994
233.244	238.5318
233.784	275.60596
234.324	217.42528
234.864	202.41415
235.404	278.59161
235.944	228.48859
236.484	276.61797
237.023	245.51832
237.563	263.5408
238.102	237.50316
238.641	268.60722
239.18	257.53371
239.719	263.59165
240.258	282.56274
240.797	226.48514
241.335	252.55377
241.874	228.38897
242.412	253.54251
242.95	214.458
243.488	279.56439
244.026	211.43623
244.564	311.55884
245.102	242.48337
245.64	252.54468
246.177	293.57885
246.715	280.5982
247.252	246.50505
247.789	284.47122
248.326	210.4506
248.863	259.50111
249.4	257.51893
249.936	266.48104
250.473	268.55195
251.009	214.43717
251.546	251.48913
252.082	251.4868
252.618	242.47686
253.154	251.53427
253.69	333.65109
254.226	222.47285
254.761	198.39806
255.297	221.42923
255.832	262.54737
256.367	251.52381
256.903	263.50715
257.438	247.51546
257.972	219.43367
258.507	233.47047
259.042	307.57891
259.576	203.38561
260.111	243.49833
260.645	244.46632
261.179	221.4569
261.713	268.52139
262.247	282.57007
262.781	294.53195
263.315	298.63665
263.849	232.51432
264.382	273.55124
264.915	228.47063
265.449	219.4688
265.982	275.54814
266.515	239.51448
267.048	246.45443
267.58	296.56352
268.113	225.42615
268.646	233.50739
269.178	252.49026
269.71	293.55441
270.243	287.57073
270.775	299.66325
271.307	302.63457
271.838	300.62314
272.37	283.60736
272.902	311.61124
273.433	259.49223
273.965	291.61591
274.496	238.52323
275.027	269.58279
275.558	250.53041
276.089	172.37321
276.62	256.5739
277.15	304.65228
277.681	312.58213
278.211	294.62729
278.741	272.51455
279.272	232.46103
279.802	245.53669
280.332	251.51357
280.861	278.57977
281.391	285.55433
281.921	283.59163
282.45	254.55535
282.98	243.55584
283.509	242.47148
284.038	244.48148
284.567	319.6388
285.096	299.62093
285.625	253.49467
286.153	268.53928
286.682	255.50118
287.21	306.62766
287.739	247.50355
288.267	259.53882
288.795	300.68165
289.323	288.57044
289.851	271.54368
290.378	244.46972
290.906	221.46018
291.433	248.53328
291.961	277.53055
292.488	314.66357
293.015	279.55533
293.542	288.61902
294.069	287.5976
294.596	328.68646
295.122	272.55086
295.649	319.58767
296.175	293.60276
296.702	301.61782
297.228	330.67475
297.754	300.56252
298.28	312.5882
298.806	280.56602
299.332	329.59696
299.857	297.55675
300.383	330.70196
300.908	240.48917
301.433	279.56646
301.958	321.61691
302.483	258.54045
303.008	322.66376
303.533	307.67277
304.058	322.62973
304.582	310.60109
305.107	248.54383
305.631	354.66018
306.155	343.64744
306.679	342.64666
307.203	324.61142
307.727	316.6136
308.251	290.59269
308.775	270.52327
309.298	281.54837
309.822	348.7151
310.345	310.59678
310.868	332.63975
311.391	383.75737
311.914	344.6938
312.437	401.72319
312.96	374.69609
313.482	309.58755
314.005	351.70516
314.527	383.80068
315.049	361.73127
315.571	334.57661
316.093	368.71833
316.615	346.65519
317.137	313.53157
317.659	416.78621
318.18	372.70305
318.702	365.65522
319.223	365.56549
319.744	358.61213
320.265	354.65821
320.786	356.67379
321.307	354.67755
321.828	388.65809
322.348	377.66772
322.869	481.82231
323.389	252.30006
323.909	393.66892
324.43	479.85285
324.95	369.62128
325.47	416.74775
325.989	405.69159
326.509	371.58188
327.029	417.66205
327.548	340.54705
328.067	402.68924
328.587	482.85042
329.106	394.62893
329.625	460.88003
330.144	372.60161
330.662	383.61504
331.181	467.74277
331.7	488.76841
332.218	486.68659
332.736	484.75506
333.255	439.68181
333.773	469.73526
334.291	501.84042
334.808	480.68198
335.326	507.72517
335.844	428.63541
336.361	486.79054
336.879	506.72852
337.396	474.71792
337.913	519.72235
338.43	506.68142
338.947	539.77246
339.464	525.64148
339.981	490.69357
340.497	552.81772
341.014	469.6885
341.53	574.71936
342.046	445.65283
342.562	560.81797
343.078	538.71598
343.594	563.75607
344.11	566.7488
344.626	580.82168
345.141	596.71623
345.657	601.72356
346.172	577.75188
346.687	584.69566
347.202	626.70035
347.717	601.74564
348.232	619.81606
348.747	640.72324
349.261	569.58226
349.776	640.73649
350.29	620.75273
350.805	678.83525
351.319	678.74249
351.833	601.62582
352.347	619.68531
352.861	682.71549
353.374	715.73969
353.888	724.79559
354.401	703.70172
354.915	559.54377
355.428	717.79124
355.941	681.66878
356.454	759.69666
356.967	774.75847
357.48	768.71229
357.993	691.73997
358.505	728.73939
359.018	710.72579
359.53	740.70701
360.042	731.60741
360.554	791.75118
361.066	742.70831
361.578	762.57752
362.09	724.6634
362.602	707.54302
363.113	729.60868
363.625	746.56882
364.136	774.55495
364.647	767.56405
365.158	802.61074
365.669	883.68346
366.18	907.6607
366.691	805.52399
367.201	838.62921
367.712	817.53381
368.222	801.52505
368.733	749.41944
369.243	793.43919
369.753	987.54865
370.263	860.54687
370.773	925.60001
371.282	933.50953
371.792	846.37256
372.301	857.4487
372.811	960.58259
373.32	924.22877
373.829	872.32243
374.338	1019.22019
374.847	1058.21294
375.356	1033.21427
375.865	993.01718
376.373	1072.03577
376.882	1161.17506
377.39	1155.05223
377.898	1051.98776
378.407	1164.79917
378.915	1322.65502
379.423	1237.72188
379.93	1405.54631
380.438	1363.53038
380.946	1511.36361
381.453	1464.34251
381.96	1475.26805
382.468	1499.1989
382.975	1839.03287
383.482	1814.05939
383.989	1806.04938
384.495	1779.12444
385.002	1854.33254
385.509	2007.34411
386.015	2101.91925
386.521	2238.00242
387.028	2252.40636
387.534	2282.86866
388.04	2473.97622
388.546	2306.76203
389.051	2301.71226
389.557	2368.68014
390.063	3354.46686
390.568	3361.91763
391.073	3270.66309
391.578	3307.52751
392.084	3202.40896
392.589	3013.20688
393.093	2901.43001
393.598	3647.70933
394.103	3921.7971
394.607	4537.11739
395.112	4971.77798
395.616	5124.42408
396.12	5437.96745
396.624	6105.08178
397.128	6785.39279
397.632	7867.69155
398.136	8146.08304
398.639	6922.71202
399.143	6914.66554
399.646	8323.19427
400.15	9258.34425
400.653	9286.05656
401.156	9417.56637
401.659	4167.81007
402.162	1054.15589
402.664	0
403.167	0
403.67	0
404.172	0
404.674	0
405.176	0
405.678	0
406.18	0
406.682	0
407.184	0
407.686	0
408.187	0
408.688	0
409.19	0
409.691	0
410.192	0
410.693	0
411.194	435.30976
411.694	4082.94878
412.195	8864.71461
412.696	12089.80453
413.196	12760.96929
413.696	12863.67595
414.196	13703.56671
414.696	17261.84252
415.196	21764.24417
415.696	29583.19008
416.196	25605.94148
416.695	17459.81228
417.195	12961.99677
417.694	12097.53807
418.194	11864.59137
418.693	10508.44623
419.192	10077.78203
419.691	9848.26389
420.19	9945.55584
420.688	9862.54859
421.187	9584.48786
421.685	9405.14409
422.184	8839.50831
422.682	7753.43359
423.18	6099.91949
423.678	5048.2993
424.176	4725.04284
424.674	4422.13005
425.172	4559.15877
425.669	4279.64814
426.167	4181.44426
426.664	3751.90168
427.161	3251.88142
427.659	3111.80119
428.156	2809.66703
428.652	2629.96234
429.149	2449.92604
429.646	2470.90717
430.143	2299.84664
430.639	2215.88063
431.135	1943.072
431.632	1903.09626
432.128	1735.29656
432.624	1454.55962
433.12	1331.50363
433.616	1377.49914
434.111	1238.65506
434.607	1181.76637
435.103	1263.69711
435.598	1331.69247
436.093	1280.94242
436.588	1215.98927
437.083	1043.10105
437.578	1114.16305
438.073	855.27464
438.568	945.36267
439.062	918.20224
439.557	889.3791
440.051	839.32761
440.546	642.30741
441.04	697.39668
441.534	711.49565
442.028	718.46084
442.522	661.4394
443.015	684.3675
443.509	668.50087
444.002	623.48049
444.496	631.38297
444.989	636.5102
445.482	574.49412
445.975	479.34799
446.468	527.3452
446.961	522.34776
447.454	562.42577
447.947	463.39765
448.439	532.49106
448.931	437.35467
449.424	511.52575
449.916	544.51482
450.408	443.37536
450.9	400.401
451.392	428.46403
451.884	486.44885
452.375	384.41527
452.867	445.42439
453.358	428.39727
453.849	410.35016
454.341	377.36634
454.832	361.32853
455.323	319.36618
455.814	378.39587
456.304	376.39921
456.795	426.44153
457.285	411.42613
457.776	404.44489
458.266	312.36693
458.756	337.41151
459.247	279.33698
459.737	262.32113
460.226	287.32346
460.716	256.32481
461.206	317.40379
461.695	333.45791
462.185	312.39618
462.674	279.35118
463.163	256.30907
463.653	252.28323
464.142	238.32754
464.63	268.38134
465.119	239.31497
465.608	188.25318
466.096	215.27248
466.585	215.29905
467.073	245.3571
467.561	289.41995
468.05	268.37749
468.538	247.38015
469.026	277.40951
469.513	220.2795
470.001	157.22542
470.489	179.27076
470.976	169.25257
471.463	229.37502
471.951	192.32331
472.438	95.15079
472.925	136.21221
473.412	204.3424
473.899	161.25173
474.385	131.22559
474.872	72.11774
475.359	147.25125
475.845	98.13978
476.331	181.2728
476.817	164.28597
477.303	179.29329
477.789	141.24554
478.275	87.15906
478.761	100.17834
479.247	140.22855
479.732	62.11573
480.218	112.22028
480.703	81.15274
481.188	128.20124
481.673	85.14661
482.158	45.0711
482.643	101.19963
483.128	33.05774
483.612	33.06009
484.097	150.28306
484.581	52.09504
485.066	51.09744
485.55	63.10681
486.034	6.01022
486.518	51.09399
487.002	22.04288
487.486	36.0703
487.969	20.03928
488.453	67.13672
488.936	21.03808
489.42	30.05364
489.903	45.09304
490.386	-447.67517
490.869	61.10769
491.352	101.20235
491.835	61.10218
492.318	14.02595
492.8	47.07908
493.283	17.03595
493.765	17.03482
494.247	64.12445
494.73	38.06949
495.212	42.08549
495.694	43.08316
496.175	-39.07774
496.657	109.21372
497.139	104.14768
497.62	-33.06608
498.102	26.05434
498.583	25.05329
499.064	33.0614
499.545	76.14468
500.026	61.11412
500.507	61.1191
500.988	84.17596
501.469	51.10795
501.949	115.23914
502.43	47.09399
502.91	85.14567
503.39	87.18535
503.87	91.1791
504.35	181.35506
504.83	163.29318
505.31	187.37395
505.79	179.3533
506.269	245.46835
506.749	230.42678
507.228	252.47975
507.707	380.65885
508.187	328.63356
508.666	392.76118
509.145	376.69321
509.623	459.83672
510.102	541.00463
510.581	627.14331
511.059	643.20693
511.538	725.40262
512.016	829.41208
512.494	915.55985
512.972	954.56952
513.45	934.46607
513.928	1131.804
514.406	1188.82621
514.884	1334.18726
515.361	1414.05158
515.839	1538.99332
516.316	1612.22009
516.793	1760.52664
517.27	1829.4104
517.747	1827.60756
518.224	2001.30369
518.701	2035.16527
519.178	2008.5526
519.654	2157.48509
520.131	2099.6098
520.607	2208.68535
521.083	2190.30476
521.56	2169.44305
522.036	2180.16479
522.512	2141.65101
522.987	2056.41023
523.463	1952.39897
523.939	1945.53832
524.414	1831.25958
524.89	1803.33311
525.365	1775.15062
525.84	1512.12042
526.315	1574.23223
526.79	1535.00814
527.265	1414.95457
527.74	1328.06469
528.215	1338.98528
528.689	1234.72961
529.164	1226.68893
529.638	1174.06131
530.112	1001.63029
530.587	1027.4553
531.061	934.59533
531.534	965.66212
532.008	859.4948
532.482	854.41538
532.956	728.40406
533.429	842.49488
533.903	757.23379
534.376	678.12418
534.849	734.27173
535.322	699.24851
535.795	658.23908
536.268	615.14463
536.741	605.13267
537.213	541.98575
537.686	508.98504
538.158	473.83868
538.631	532.03137
539.103	480.85176
539.575	543.88011
540.047	475.83128
540.519	412.80727
540.991	441.88229
541.463	427.84438
541.934	391.73118
542.406	364.71491
542.877	408.74807
543.348	357.71688
543.82	351.7185
544.291	342.66504
544.762	328.64542
545.233	291.61375
545.703	234.43616
546.174	318.61513
546.645	248.49697
547.115	279.56361
547.585	333.63257
548.056	309.61447
548.526	287.55848
548.996	341.67621
549.466	354.71397
549.935	291.56708
550.405	362.6373
550.875	348.67026
551.344	357.69835
551.814	372.69065
552.283	454.77843
552.752	391.72539
553.221	409.69729
553.69	457.79261
554.159	405.79224
554.628	476.82098
555.096	466.93381
555.565	515.88426
556.033	562.02532
556.502	537.01999
556.97	587.99988
557.438	572.05995
557.906	637.17156
558.374	688.20194
558.842	686.25839
559.31	758.26968
559.777	719.32468
560.245	845.47579
560.712	970.61008
561.18	961.49949
561.647	1037.61301
562.114	1133.75394
562.581	1217.05121
563.048	1343.00688
563.514	1380.20212
563.981	1528.14046
564.448	1624.14153
564.914	1829.39769
565.381	1963.38352
565.847	2014.51375
566.313	2195.5529
566.779	2321.44563
567.245	2479.6288
567.711	2687.75198
568.176	2819.41315
568.642	3138.95989
569.108	3298.81252
569.573	3589.49648
570.038	3809.76488
570.504	3953.99388
570.969	4276.54462
571.434	4490.56914
571.899	4715.94055
572.363	5003.51654
572.828	5402.36288
573.293	5663.24178
573.757	5834.18384
574.222	6129.93356
574.686	6470.91519
575.15	6705.20291
575.614	6976.09183
576.078	7356.32434
576.542	7509.32458
577.006	7603.35842
577.469	7909.91514
577.933	8017.73654
578.396	8286.1965
578.86	8437.38679
579.323	8473.4514
579.786	8413.2487
580.249	8518.46309
580.712	8478.51351
581.175	8600.70431
581.637	8585.59397
582.1	8595.573
582.563	8460.32884
583.025	8392.37469
583.487	8291.01228
583.95	8182.89434
584.412	8179.87417
584.874	8004.93495
585.336	7891.75905
585.797	7674.32983
586.259	7450.43772
586.721	7157.26414
587.182	7223.31191
587.643	6991.09961
588.105	6723.2335
588.566	6493.72501
589.027	6344.32259
589.488	6180.09554
589.949	5918.50646
590.41	5778.45716
590.87	5669.27694
591.331	5439.07587
591.791	5249.49243
592.252	5049.52857
592.712	4948.92482
593.172	4765.62175
593.632	4694.54138
594.092	4526.71233
594.552	4359.61273
595.011	4238.01194
595.471	4075.98139
595.931	3967.01284
596.39	3874.46227
596.849	3728.37374
597.308	3668.03645
597.768	3522.98336
598.227	3523.66759
598.685	3450.44305
599.144	3192.5915
599.603	3261.65128
600.062	3084.07102
600.52	3080.35836
600.978	3038.70253
601.437	2954.54278
601.895	2840.18669
602.353	2874.40302
602.811	2778.40511
603.269	2708.77197
603.727	2674.76899
604.184	2571.46453
604.642	2515.86459
605.099	2543.61201
605.557	2523.8491
606.014	2559.26707
606.471	2488.92237
606.928	2447.2268
607.385	2464.77152
607.842	2471.52486
608.299	2443.62033
608.755	2439.75906
609.212	2382.38622
609.668	2330.34593
610.125	2387.77685
610.581	2490.76325
611.037	2407.5774
611.493	2380.71954
611.949	2299.75096
612.405	2307.02353
612.861	2363.71592
613.316	2231.71158
613.772	2297.57499
614.227	2201.6569
614.683	2298.31733
615.138	2184.6217
615.593	2212.60802
616.048	2211.56859
616.503	2123.84333
616.958	2130.91297
617.412	2024.62934
617.867	2092.37991
618.321	2089.17518
618.776	2029.39722
619.23	1881.54435
619.684	1966.46389
620.138	1991.59133
620.592	1805.64253
621.046	1839.5539
621.5	1821.66311
621.954	1777.38378
622.407	1751.32987
622.861	1672.56628
623.314	1709.38524
623.768	1590.36811
624.221	1568.87402
624.674	1511.27676
625.127	1445.2696
625.58	1478.24172
626.033	1482.15665
626.485	1392.28929
626.938	1397.29189
627.39	1314.14355
627.843	1312.13196
628.295	1283.10254
628.747	1296.19393
629.199	1238.01658
629.651	1172.94363
630.103	1182.97856
630.555	1154.77363
631.006	1094.93858
631.458	1122.98834
631.909	1139.96183
632.361	1095.93785
632.812	1008.80056
633.263	1044.70962
633.714	1058.71726
634.165	1007.91949
634.616	962.81277
635.067	968.68901
635.518	979.85162
635.968	956.49122
636.419	918.58724
636.869	921.76634
637.319	874.63862
637.769	817.49659
638.219	867.70018
638.669	783.55764
639.119	820.665
639.569	763.54808
640.019	811.55731
640.468	818.50783
640.918	760.54865
641.367	757.42553
641.816	726.37408
642.265	744.45557
642.714	759.48111
643.163	768.4863
643.612	709.45279
644.061	661.1957
644.51	682.33284
644.958	664.25408
645.406	635.32383
645.855	713.50441
646.303	718.4391
646.751	625.2383
647.199	712.38499
647.647	680.34902
648.095	664.31723
648.543	697.2193
648.99	582.23011
649.438	634.3074
649.885	657.42368
650.333	600.01374
650.78	602.28467
651.227	595.28205
651.674	645.28216
652.121	595.28424
652.568	621.32956
653.015	697.5393
653.461	591.24616
653.908	619.27157
654.354	585.24429
654.801	549.1519
655.247	567.10905
655.693	556.30634
656.139	530.14596
656.585	564.21231
657.031	495.04481
657.477	523.01461
657.922	507.05614
658.368	568.26015
658.813	529.11426
659.259	551.18966
659.704	486.03184
660.149	528.11191
660.594	485.05185
661.039	450.94427
661.484	491.07394
661.929	450.97216
662.373	409.96135
662.818	409.94635
663.262	407.91328
663.707	412.97461
664.151	459.03506
664.595	415.93276
665.039	445.02669
665.483	402.95868
665.927	437.9572
666.371	355.77401
666.814	413.92293
667.258	380.84377
667.701	453.90713
668.145	418.97464
668.588	377.87302
669.031	365.80929
669.474	388.87977
669.917	394.8213
670.36	304.72225
670.803	380.86688
671.245	319.64353
671.688	356.82522
672.13	326.69707
672.573	356.86005
673.015	298.68779
673.457	277.58294
673.899	313.72743
674.341	317.73295
674.783	297.68426
675.225	302.71336
675.666	275.63737
676.108	285.59846
676.549	332.75282
676.991	302.64128
677.432	257.4982
677.873	250.56322
678.314	307.70503
678.755	264.62265
679.196	233.52116
679.637	268.63551
680.078	259.59005
680.518	289.65227
680.959	251.58521
681.399	265.63724
681.839	268.63282
682.28	246.59054
682.72	246.54899
683.16	273.65821
683.6	258.57386
684.039	261.5304
684.479	211.50759
684.919	186.42247
685.358	223.55389
685.798	217.5562
686.237	242.57188
686.676	231.52606
687.115	261.59701
687.554	232.5391
687.993	190.41613
688.432	240.53649
688.871	200.44726
689.309	218.51077
689.748	255.52175
690.186	238.55654
690.625	216.49716
691.063	208.4904
691.501	209.50773
691.939	196.48088
692.377	175.42211
692.815	196.46175
693.253	235.55351
693.69	183.39885
694.128	186.44449
694.565	189.44534
695.003	201.50161
695.44	191.44322
695.877	148.34406
696.314	224.47463
696.751	206.4641
697.188	147.33667
697.625	212.48035
698.061	148.35328
698.498	187.44747
698.934	149.35723
699.371	132.31025
699.807	155.36481
700.243	187.4444
700.679	222.49461
701.115	204.47423
701.551	201.46717
701.987	195.43419
702.422	165.3888
702.858	150.35572
703.294	164.36993
703.729	176.42637
704.164	175.41716
704.599	173.38297
705.035	121.27166
705.47	141.34139
705.904	113.26409
706.339	209.47981
706.774	152.35447
707.209	164.37567
707.643	145.34698
708.078	128.31126
708.512	143.35533
708.946	193.45706
709.38	147.34719
709.814	155.35328
710.248	137.33308
710.682	123.29265
711.116	83.19922
711.549	136.34927
711.983	153.3521
712.416	176.4127
712.85	137.3403
713.283	128.30296
713.716	167.41602
714.149	167.3955
714.582	150.33614
715.015	217.53387
715.448	135.33911
715.881	184.39992
716.313	120.28172
716.746	122.28742
717.178	114.27452
717.61	142.3583
718.043	126.3136
718.475	128.30998
718.907	176.44106
719.339	120.27257
719.77	101.24031
720.202	129.32521
720.634	122.29645
721.065	128.30331
721.497	147.35846
721.928	94.23166
722.359	57.1389
722.79	107.25673
723.221	92.23255
723.652	201.51068
724.083	92.20922
724.514	175.3987
724.945	88.20837
725.375	84.19636
725.806	135.33606
726.236	157.39904
726.666	134.3168
727.096	97.23901
727.526	118.29912
727.956	92.21066
728.386	112.27612
728.816	69.17575
729.246	88.21487
729.675	89.21994
730.105	104.25668
730.534	131.30628
730.964	125.31546
731.393	176.43293
731.822	107.27341
732.251	110.27914
732.68	133.31327
733.109	120.29541
733.537	111.26835
733.966	66.16529
734.395	118.27302
734.823	130.29372
735.251	76.18454
735.68	114.28569
736.108	73.18594
736.536	102.24171
736.964	108.25147
737.392	125.31207
737.82	110.26458
738.247	109.26173
738.675	138.32903
739.102	99.2477
739.53	100.25476
739.957	114.29267
740.384	131.32254
740.811	108.27387
741.238	98.23991
741.665	106.24652
742.092	151.35871
742.519	49.12256
742.945	76.18391
743.372	83.20654
743.798	100.25727
744.225	100.23861
744.651	98.24639
745.077	126.31326
745.503	98.23991
745.929	75.18139
746.355	147.36367
746.781	113.27997
747.207	73.17262
747.632	94.22969
748.058	133.33048
748.483	90.20865
748.908	61.1529
749.334	113.27751
749.759	99.23428
750.184	116.27615
750.609	123.30173
751.033	127.30007
751.458	142.31782
751.883	138.34034
752.307	70.16626
752.732	102.2547
753.156	123.30296
753.58	87.20795
754.005	75.19144
754.429	100.23578
754.853	115.2844
755.277	105.24905
755.7	126.31155
756.124	50.12531
756.548	62.14839
756.971	129.31398
757.394	96.2475
757.818	97.24968
758.241	103.26124
758.664	124.31187
759.087	39.08846
759.51	110.27358
759.933	87.21017
760.356	118.30156
760.778	138.33733
761.201	148.3576
761.623	92.22414
762.046	119.28237
762.468	154.36732
762.89	160.39125
763.312	107.26141
763.734	85.20558
764.156	142.34827
764.578	92.21286
765	141.34191
765.421	52.13304
765.843	93.24387
766.264	112.27062
766.686	115.28825
767.107	93.22594
767.528	86.21739
767.949	132.33366
768.37	101.24804
768.791	130.31328
769.212	83.20887
769.632	63.14805
770.053	96.25255
770.473	108.26253
770.894	89.22341
771.314	159.37641
771.734	90.21055
772.154	98.25151
772.575	111.25738
772.994	61.13993
773.414	129.30857
773.834	90.22531
774.254	84.20625
774.673	101.24611
775.093	77.19119
775.512	58.14389
775.931	89.22581
776.351	54.13509
776.77	54.13303
777.189	105.24963
777.607	110.27993
778.026	91.22678
778.445	37.09345
778.864	81.20814
779.282	74.17887
779.701	87.21948
780.119	66.16743
780.537	77.19259
780.955	114.28888
781.373	129.31692
781.791	149.3315
782.209	109.25094
782.627	52.13768
783.045	80.18473
783.462	63.1616
783.88	61.15838
784.297	101.25344
784.715	48.12396
785.132	71.17256
785.549	72.18057
785.966	81.20391
786.383	67.16545
786.8	136.31341
787.217	82.19476
787.633	67.1677
788.05	125.29535
788.466	130.3046
788.883	39.10018
789.299	111.26623
789.715	83.20195
790.131	103.25529
790.547	87.21721
790.963	87.21587
791.379	107.26926
791.795	84.19211
792.21	140.32417
792.626	103.24374
793.041	98.24125
793.457	103.2537
793.872	75.1768
794.287	65.15566
794.702	78.19244
795.117	97.24024
795.532	53.13342
795.947	119.28476
796.362	164.38606
796.776	174.40114
797.191	64.1572
797.605	69.1624
798.02	76.18516
798.434	93.20708
798.848	73.18001
799.262	19.04764
799.676	143.34506
800.09	105.25719
800.504	127.30564
800.918	54.12588
801.331	115.29951
801.745	80.18399
802.158	66.16534
802.572	123.29613
802.985	103.24807
803.398	126.298
803.811	113.28874
804.224	88.21871
804.637	93.22102
805.05	96.22203
805.462	121.29506
805.875	58.15067
806.288	83.19998
806.7	95.23795
807.112	110.2537
807.525	101.24822
807.937	60.14874
808.349	111.27632
808.761	124.30244
809.173	74.17948
809.584	75.18548
809.996	45.1108
810.408	36.09346
810.819	118.2754
811.231	65.16807
811.642	67.15996
812.053	129.30362
812.464	170.39691
812.875	138.34858
813.286	142.36098
813.697	191.43708
814.108	101.24565
814.519	73.16302
814.929	134.33811
815.34	54.13151
815.75	108.27261
816.16	101.25051
816.571	103.26605
816.981	96.2259
817.391	77.18588
817.801	76.18861
818.211	101.23966
818.62	123.29332
819.03	115.2797
819.44	91.23684
819.849	84.2112
820.259	113.28711
820.668	52.12834
821.077	75.18609
821.486	122.29122
821.895	123.30117
822.304	86.22716
822.713	98.23061
823.122	121.29924
823.531	102.24049
823.939	74.18022
824.348	86.20858
824.756	76.19019
825.164	119.29688
825.573	49.1234
825.981	97.23945
826.389	131.32551
826.797	91.22703
827.205	84.19234
827.612	115.28148
828.02	47.11088
828.428	117.29538
828.835	52.13717
829.243	136.32015
829.65	83.20579
830.057	72.17469
830.464	58.14162
830.871	127.30089
831.278	57.13812
831.685	91.20238
832.092	87.21231
832.499	77.16832
832.905	96.2418
833.312	95.21574
833.718	97.24042
834.124	93.21163
834.531	115.28742
834.937	106.27014
835.343	105.25165
835.749	133.30693
836.155	81.21147
836.561	102.24924
836.966	93.22636
837.372	75.19056
837.777	64.15947
838.183	115.25341
838.588	62.15403
838.993	149.35723
839.399	102.24766
839.804	1.00247
840.209	56.14272
840.613	60.13374
841.018	94.23676
841.423	105.26735
841.828	36.09149
842.232	92.22681
842.637	103.24129
843.041	54.13859
843.445	93.23202
843.849	68.1682
844.253	111.26156
844.657	31.07849
845.061	94.21213
845.465	85.20449
845.869	111.25565
846.272	42.10267
846.676	102.24497
847.079	99.25003
847.483	128.31556
847.886	125.30072
848.289	55.14686
848.692	64.16201
849.095	71.17029
849.498	184.45628
849.901	111.25228
850.304	143.33657
850.707	89.22581
851.109	124.31031
851.512	103.25117
851.914	43.10868
852.316	56.14176
852.718	33.08556
853.121	47.11547
853.523	64.14955
853.925	60.15646
854.326	55.13761
854.728	89.22765
855.13	35.09063
855.531	55.13156
855.933	75.17961
856.334	56.13969
856.736	47.10561
857.137	70.16248
857.538	58.14583
857.939	54.13352
858.34	75.18228
858.741	91.23652
859.142	82.19619
859.542	74.19467
859.943	98.24178
860.343	37.09197
860.744	126.30364
861.144	104.25157
861.544	52.12512
861.945	59.15033
862.345	105.25461
862.745	81.20047
863.145	118.27897
863.544	63.15905
863.944	75.17666
864.344	125.30675
864.743	96.23659
865.143	95.2424
865.542	88.20296
865.941	78.19237
866.34	157.36908
866.74	73.19537
867.139	52.12465
867.537	93.23546
867.936	119.28313
868.335	115.2896
868.734	65.16586
869.132	97.22367
869.531	113.27051
869.929	76.17263
870.327	103.24478
870.726	102.2523
871.124	107.24771
871.522	63.1603
871.92	99.24232
872.318	84.20434
872.715	117.28648
873.113	92.22271
873.511	75.18623
873.908	38.09623
874.306	61.15158
874.703	83.20669
875.1	121.30602
875.497	90.21442
875.894	8.01977
876.291	99.24106
876.688	116.29604
877.085	113.26824
877.482	95.23615
877.878	80.19169
878.275	101.25453
878.671	116.25524
879.068	122.29088
879.464	92.22087
879.86	72.16976
880.256	108.264
880.652	92.23247
881.048	113.2771
881.444	80.18957
881.84	48.12216
882.236	106.26411
882.631	105.25538
883.027	101.24252
883.422	96.2437
883.817	37.09328
884.213	97.24707
884.608	45.11055
885.003	90.21557
885.398	71.1772
885.793	64.16039
886.188	29.07243
886.582	118.29934
886.977	109.25605
887.371	97.24349
887.766	72.17849
888.16	104.25725
888.554	138.33608
888.949	129.31961
889.343	107.25888
889.737	28.07493
890.131	61.15285
890.525	91.23121
890.918	70.17568
891.312	111.26278
891.706	107.2782
892.099	116.29196
892.492	105.22419
892.886	106.25689
893.279	67.1703
893.672	92.23264
894.065	94.2337
894.458	86.21506
894.851	118.28576
895.244	50.12778
895.637	76.18232
896.029	73.17788
896.422	81.19693
896.814	47.117
897.206	63.14978
897.599	134.32658
897.991	90.21615
898.383	55.12995
898.775	104.23239
899.167	82.19018
899.559	119.29774
899.951	77.18074
900.342	85.21498
900.734	47.11675
901.125	150.38711
901.517	95.2314
901.908	102.24236
902.299	45.11019
902.69	88.20627
903.082	129.30798
903.473	56.13403
903.863	98.24807
904.254	108.24799
904.645	97.23936
905.036	41.0995
905.426	116.26231
905.817	72.17607
906.207	61.14514
906.597	79.18384
906.987	82.21148
907.378	98.24586
907.768	64.16888
908.158	73.17735
908.547	69.17773
908.937	97.24698
909.327	91.21942
909.717	150.37428
910.106	68.16288
910.495	105.25967
910.885	94.23634
911.274	62.15471
911.663	115.28867
912.052	104.25422
912.441	63.1599
912.83	61.13982
913.219	120.31044
913.608	92.22372
913.997	36.09051
914.385	97.22981
914.774	77.18665
915.162	77.18264
915.55	130.30996
915.939	73.18357
916.327	81.20113
916.715	67.1703
917.103	90.22
917.491	83.20421
917.878	117.28424
918.266	93.23947
918.654	70.17827
919.041	61.15898
919.429	65.15305
919.816	97.24392
920.203	90.21672
920.591	89.21922
920.978	133.32081
921.365	112.29085
921.752	74.17569
922.139	94.20231
922.525	45.10822
922.912	75.18214
923.299	104.25602
923.685	38.09936
924.072	65.14953
924.458	81.19958
924.844	64.15802
925.231	44.10257
925.617	32.08167
926.003	82.20846
926.389	61.15362
926.774	107.26849
927.16	75.18548
927.546	40.1023
927.931	121.29814
928.317	118.26824
928.702	103.24129
929.088	62.14635
929.473	95.23984
929.858	70.16863
930.243	94.22378
930.628	84.20312
931.013	102.25045
931.398	117.26559
931.783	97.25341
932.167	93.2256
932.552	94.2337
932.937	77.19022
933.321	41.10307
933.705	67.16842
934.09	105.26281
934.474	83.19596
934.858	81.20901
935.242	49.11362
935.626	87.22129
936.009	68.18034
936.393	69.17501
936.777	91.23138
937.16	70.18153
937.544	91.21276
937.927	40.10169
938.311	113.27267
938.694	118.30853
939.077	43.1031
939.46	120.29093
939.843	101.20844
940.226	73.18653
940.609	85.19381
940.991	66.16755
941.374	62.15122
941.757	60.14781
942.139	57.12787
942.522	104.2433
942.904	74.17711
943.286	80.20222
943.668	78.20109
944.05	93.22729
944.432	94.23012
944.814	64.15726
945.196	21.05146
945.578	41.09763
945.959	97.22528
946.341	127.30738
946.722	113.26202
947.104	52.12427
947.485	76.17598
947.866	95.23744
948.247	70.176
948.628	84.20365
949.009	69.17612
949.39	102.25156
949.771	112.25739
950.152	99.24079
950.532	26.06424
950.913	79.18955
951.293	67.1805
951.674	66.15917
952.054	74.18257
952.434	75.18535
952.814	85.20092
953.194	104.2697
953.574	137.33208
953.954	91.21443
954.334	119.29289
954.714	44.10736
955.093	133.32202
955.473	60.14977
955.853	113.28935
956.232	85.23167
956.611	144.33925
956.99	40.10071
957.37	60.15264
957.749	92.21776
958.128	69.17327
958.506	109.27989
958.885	119.29666
959.264	50.12254
959.643	94.21204
960.021	79.19473
960.4	99.22218
960.778	101.24648
961.156	55.13776
961.535	72.16712
961.913	77.17925
962.291	29.07467
962.669	70.17669
963.047	123.30986
963.424	88.22308
963.802	87.21247
964.18	105.26309
964.557	98.22359
964.935	72.16989
965.312	74.1919
965.69	108.26763
966.067	44.10728
966.444	85.20813
966.821	99.25305
967.198	63.15248
967.575	89.21727
967.952	110.25623
968.329	116.2788
968.705	106.2246
969.082	85.21666
969.458	37.08898
969.835	137.32808
970.211	64.16385
970.587	98.24187
970.963	85.21673
971.339	55.14349
971.715	111.27411
972.091	79.19351
972.467	109.26897
972.843	99.24349
973.219	161.37849
973.594	67.17474
973.97	96.22652
974.345	82.19506
974.721	102.2446
975.096	49.1186
975.471	136.31729
975.846	92.21927
976.221	69.17463
976.596	46.11035
976.971	117.28531
977.346	107.24634
977.72	63.16013
978.095	96.24612
978.469	107.25262
978.844	116.28819
979.218	60.14355
979.593	122.28831
979.967	57.13869
980.341	82.18761
980.715	83.2079
981.089	72.17953
981.463	41.09432
981.837	20.04914
982.21	142.3245
982.584	96.22986
982.957	67.16679
983.331	94.22034
983.704	81.19789
984.078	66.16218
984.451	150.36789
984.824	67.16265
985.197	116.27827
985.57	117.28988
985.943	71.17469
986.316	113.27442
986.688	106.25293
987.061	82.19101
987.434	73.18947
987.806	123.29422
988.179	66.15525
988.551	99.24895
988.923	89.2176
989.295	100.24762
989.667	26.0624
990.039	53.13088
990.411	52.11964
990.783	107.24358
991.155	30.07235
991.527	177.42565
991.898	88.21775
992.27	92.22581
992.641	109.27055
993.012	100.23302
993.384	77.18271
993.755	102.25765
994.126	69.16537
994.497	65.1591
994.868	108.24521
995.239	73.17615
995.61	77.1928
995.98	69.167
996.351	34.08444
996.722	78.1799
997.092	32.07603
997.462	50.11679
997.833	95.22325
998.203	105.25193
998.573	93.22974
998.943	72.16811
999.313	79.18825
999.683	56.13424
1000.053	104.2367
1000.423	105.25251
1000.792	57.14754
1001.162	79.19337
1001.531	101.24666
1001.901	112.27602
1002.27	81.17991
1002.639	53.13533
1003.009	66.15646
1003.378	93.23596
1003.747	82.19251
1004.116	60.14328
1004.485	104.24597
1004.853	68.17171
1005.222	67.16842
1005.591	107.25125
1005.959	99.22081
1006.328	6.01362
1006.696	73.17529
1007.064	98.24436
1007.433	59.14719
1007.801	90.21927
1008.169	70.17612
1008.537	115.25118
1008.905	22.05153
1009.273	82.20134
1009.64	35.08372
1010.008	60.14273
1010.375	116.27817
1010.743	115.26211
1011.11	52.12299
1011.478	89.21865
1011.845	80.18701
1012.212	90.20202
1012.579	88.21447
1012.946	123.28859
1013.313	108.25414
1013.68	124.27445
1014.047	33.07888
1014.414	39.09229
1014.78	86.21226
1015.147	101.24187
1015.513	44.10612
1015.88	85.21597
1016.246	150.36339
1016.612	96.2177
1016.978	96.23318
1017.344	99.24241
1017.71	120.28874
1018.076	90.21055
1018.442	107.27244
1018.808	60.14966
1019.174	66.16505
1019.539	171.38407
1019.905	85.19905
1020.27	21.05209
1020.636	97.23043
1021.001	102.24171
1021.366	93.22144
1021.731	82.20964
1022.096	63.15848
1022.461	97.22741
1022.826	94.22146
1023.191	75.19587
1023.556	69.16107
1023.92	69.16901
1024.285	102.24646
1024.649	101.2451
1025.014	106.25979
1025.378	101.25152
1025.742	88.21695
1026.107	109.24351
1026.471	125.28743
1026.835	86.21171
1027.199	33.07966
1027.562	118.27052
1027.926	101.24455
1028.29	77.19384
1028.654	120.27212
1029.017	78.19067
1029.381	84.19928
1029.744	29.07421
1030.107	137.31855
1030.471	103.24403
1030.834	112.25151
1031.197	137.32445
1031.56	75.17604
1031.923	62.1599
1032.286	165.37865
1032.648	113.26689
1033.011	96.21823
1033.374	94.21896
1033.736	100.26058
1034.099	104.25081
1034.461	72.18109
1034.823	40.09974
1035.185	96.23954
1035.548	70.16965
1035.91	66.15755
1036.272	78.17645
1036.634	100.24226
1036.995	65.15227
1037.357	54.13122
1037.719	87.21002
1038.08	106.24885
1038.442	92.21649
1038.803	78.18619
1039.165	96.24015
1039.526	97.23221
1039.887	65.15501
1040.248	57.14019
1040.609	81.19892
1040.97	78.18953
1041.331	95.23847
1041.692	80.18554
1042.053	123.27581
1042.413	80.18525
1042.774	72.1743
1043.134	125.29317
1043.495	120.29769
1043.855	78.18811
1044.215	110.26989
1044.576	65.15489
1044.936	123.27774
1045.296	86.21311
1045.656	97.23583
1046.016	119.28335
1046.375	94.22601
1046.735	78.17573
1047.095	101.23392
1047.454	91.19101
1047.814	62.14862
1048.173	118.27811
1048.533	66.15064
1048.892	65.15548
1049.251	134.33108
1049.61	107.26054
1049.969	73.17121
1050.328	97.20809
1050.687	40.09745
1051.046	83.20074
1051.405	52.12924
1051.763	41.09439
1052.122	60.14928
1052.48	90.21894
1052.839	53.12455
1053.197	76.17787
1053.555	108.24322
1053.914	110.26589
1054.272	106.25341
1054.63	80.19439
1054.988	57.13515
1055.345	129.27292
1055.703	98.23357
1056.061	58.14891
1056.419	92.23628
1056.776	104.24949
1057.134	74.1704
1057.491	115.2844
1057.848	76.1882
1058.206	74.17312
1058.563	96.20946
1058.92	106.24145
1059.277	35.08653
1059.634	94.21913
1059.991	121.28579
1060.348	102.22792
1060.704	49.11672
1061.061	129.29485
1061.418	91.21884
1061.774	63.15506
1062.131	38.10061
1062.487	75.17439
1062.843	64.15906
1063.199	64.15865
1063.555	88.20223
1063.911	104.25998
1064.267	96.19807
1064.623	49.11896
1064.979	150.34829
1065.335	113.26668
1065.691	100.23724
1066.046	118.2556
1066.402	84.1894
1066.757	98.24507
1067.112	48.11777
1067.468	29.06871
1067.823	110.26127
1068.178	73.17569
1068.533	81.19509
1068.888	101.23883
1069.243	89.21792
1069.598	52.12621
1069.952	66.14803
1070.307	77.18952
1070.662	81.19102
1071.016	23.05179
1071.371	62.1406
1071.725	110.25996
1072.079	56.13444
1072.434	45.10937
1072.788	93.21948
1073.142	118.28641
1073.496	70.1653
1073.85	98.22494
1074.203	66.15953
1074.557	124.32543
1074.911	143.33499
1075.265	109.25024
1075.618	84.20365
1075.971	113.26534
1076.325	44.11186
1076.678	36.0825
1077.031	77.17316
1077.385	80.17499
1077.738	74.16611
1078.091	48.10912
1078.444	128.29239
1078.796	85.20705
1079.149	101.24868
1079.502	62.14601
1079.855	74.17162
1080.207	143.34597
1080.56	77.19793
1080.912	97.23389
1081.264	94.2243
1081.617	84.20327
1081.969	29.07337
1082.321	96.23222
1082.673	52.11854
1083.025	62.14664
1083.377	132.2781
1083.728	127.29156
1084.08	76.18868
1084.432	88.21054
1084.783	97.22501
1085.135	86.21397
1085.486	63.14365
1085.838	88.21503
1086.189	42.10202
1086.54	132.31001
1086.891	64.16132
1087.242	64.15528
1087.593	108.25987
1087.944	83.18642
1088.295	132.29483
1088.646	69.1665
1088.996	40.09647
1089.347	62.15167
1089.698	35.08289
1090.048	91.23448
1090.398	108.2474
1090.749	77.18313
1091.099	46.11566
1091.449	62.15398
1091.799	95.23572
1092.149	39.09521
1092.499	73.17715
1092.849	92.23189
1093.199	61.15246
1093.548	70.16741
1093.898	50.12499
1094.248	83.21186
1094.597	36.09204
1094.947	77.20431
1095.296	91.22282
1095.645	117.30053
1095.994	83.19793
1096.343	70.17537
1096.692	44.1156
1097.041	40.10838
1097.39	83.20677
1097.739	75.19393
1098.088	107.28372
1098.437	37.09732
1098.785	98.26189
1099.134	85.22418
1099.482	97.26455
1099.83	73.19091
1100.179	47.12254
1100.527	111.29166
1100.875	52.13731
1101.223	51.13528
1101.571	68.18721
1101.919	34.08899
1102.267	41.11548
1102.615	3.00965
1102.962	17.05469
1103.31	10.03211
1103.658	16.0515
