Data from N2 R15 sample 12_Subt2__2__15-19-56-013.txt Node

Date: Tue Sep 02 15:19:56 PDT 2025
User: uwsun
Spectrometer: HDX01956
Trigger mode: 0
Integration Time (sec): 5.000000E-1
Scans to average: 1
Nonlinearity correction enabled: true
Boxcar width: 0
Storing dark spectrum: false
XAxis mode: Wavelengths
Number of Pixels in Spectrum: 2068
>>>>>Begin Spectral Data<<<<<
194.03	124.34137
194.578	109.34005
195.127	104.31979
195.676	124.38148
196.225	204.52261
196.773	190.50503
197.321	218.56393
197.87	325.75591
198.418	288.66551
198.966	289.67193
199.513	224.50134
200.061	252.57074
200.609	344.81191
201.156	257.49605
201.704	240.54158
202.251	287.67833
202.798	315.72543
203.345	297.6547
203.892	300.67031
204.438	360.75343
204.985	233.49056
205.532	313.73002
206.078	341.73529
206.624	269.58677
207.17	344.69891
207.716	306.65403
208.262	412.69011
208.808	296.63978
209.354	343.72881
209.899	362.80749
210.445	310.6772
210.99	353.7396
211.535	358.73565
212.08	376.76009
212.625	386.84355
213.17	406.89587
213.715	258.50432
214.259	378.76588
214.804	384.82995
215.348	377.74935
215.892	369.77278
216.436	377.76263
216.98	413.788
217.524	344.71198
218.068	345.76719
218.612	368.81544
219.155	316.65637
219.698	342.71671
220.242	362.79746
220.785	336.69231
221.328	268.60031
221.871	331.74857
222.414	334.7398
222.956	287.61408
223.499	291.58192
224.041	380.77733
224.583	423.79103
225.126	283.55516
225.668	305.6588
226.21	304.68093
226.751	297.57216
227.293	325.65744
227.835	289.62879
228.376	392.79134
228.918	313.70643
229.459	327.71901
230	287.60877
230.541	330.67169
231.082	326.69858
231.622	354.7166
232.163	322.68882
232.704	296.65236
233.244	310.68235
233.784	340.73895
234.324	299.57463
234.864	320.63857
235.404	343.7196
235.944	341.71288
236.484	339.74915
237.023	376.77263
237.563	311.63258
238.102	317.66124
238.641	269.60936
239.18	273.56491
239.719	290.64878
240.258	351.68921
240.797	287.60797
241.335	309.67087
241.874	317.52788
242.412	304.64469
242.95	275.58077
243.488	287.57951
244.026	301.60973
244.564	359.63715
245.102	342.66726
245.64	335.7112
246.177	312.61364
246.715	377.78848
247.252	354.70905
247.789	362.58775
248.326	336.70134
248.863	304.58184
249.4	367.72233
249.936	290.52123
250.473	304.62102
251.009	291.58408
251.546	345.65729
252.082	319.60863
252.618	310.60109
253.154	338.70583
253.69	284.56173
254.226	320.66705
254.761	379.73014
255.297	360.67603
255.832	298.61761
256.367	329.67468
256.903	309.58927
257.438	330.67597
257.972	377.71896
258.507	330.65149
259.042	333.62394
259.576	275.51322
260.111	329.66157
260.645	387.71403
261.179	330.66557
261.713	311.59885
262.247	341.68001
262.781	293.53028
263.315	288.61662
263.849	318.69232
264.382	349.6924
264.915	326.65811
265.449	282.59542
265.982	365.7123
266.515	392.81604
267.048	383.68329
267.58	330.62305
268.113	294.54745
268.646	347.73731
269.178	363.68755
269.71	354.65985
270.243	330.64966
270.775	368.80456
271.307	330.68912
271.838	391.79566
272.37	346.73247
272.902	354.6887
273.433	329.61461
273.965	341.71383
274.496	333.71743
275.027	321.68772
275.558	340.70717
276.089	301.63512
276.62	346.76126
277.15	371.78453
277.681	391.71527
278.211	376.78796
278.741	303.56884
279.272	320.62285
279.802	387.8223
280.332	388.76924
280.861	384.78195
281.391	378.71894
281.921	379.77546
282.45	350.74968
282.98	342.76667
283.509	386.72629
284.038	396.75354
284.567	397.78064
285.096	386.78602
285.625	371.70511
286.153	336.66552
286.682	365.69877
287.21	393.79026
287.739	372.73683
288.267	378.76553
288.795	396.88221
289.323	304.59988
289.851	406.78912
290.378	396.73448
290.906	284.58306
291.433	357.74963
291.961	385.71817
292.488	366.76463
293.015	407.78598
293.542	388.81598
294.069	366.74869
294.596	392.80878
295.122	411.80589
295.649	444.79236
296.175	386.77744
296.702	425.84791
297.228	461.91461
297.754	364.67176
298.28	428.78395
298.806	431.84111
299.332	368.66111
299.857	438.79256
300.383	427.88909
300.908	357.70827
301.433	391.77355
301.958	445.82971
302.483	423.85372
303.008	434.8721
303.533	446.94867
304.058	442.83986
304.582	384.73142
305.107	309.66887
305.631	479.86567
306.155	358.67327
306.679	409.76068
307.203	420.77396
307.727	423.80042
308.251	424.84022
308.775	405.75961
309.298	425.80106
309.822	436.87814
310.345	466.86348
310.868	421.79391
311.391	468.90704
311.914	429.84834
312.437	448.79826
312.96	397.73469
313.482	462.84582
314.005	399.79271
314.527	431.89143
315.049	476.93886
315.571	445.74562
316.093	477.90704
316.615	475.87116
317.137	482.78139
317.659	541.99125
318.18	531.96458
318.702	530.91125
319.223	497.74042
319.744	513.84083
320.265	491.88193
320.786	487.89228
321.307	528.96815
321.828	565.91271
322.348	532.90442
322.869	514.87097
323.389	299.34994
323.909	569.92281
324.43	572.99403
324.95	547.87661
325.47	537.93539
325.989	575.93728
326.509	509.76661
327.029	560.8529
327.548	578.86779
328.067	584.95277
328.587	576.99145
329.106	585.88334
329.625	605.11538
330.144	574.87581
330.662	594.89722
331.181	634.9606
331.7	640.96392
332.218	610.82828
332.736	743.07174
333.255	595.88233
333.773	670.98982
334.291	674.07635
334.808	637.86078
335.326	726.96818
335.844	608.8538
336.361	665.0266
336.879	691.93825
337.396	714.00385
337.913	724.94243
338.43	736.9173
338.947	742.99683
339.464	740.83614
339.981	692.91779
340.497	735.02791
341.014	715.97157
341.53	721.85792
342.046	708.95605
342.562	772.0541
343.078	716.8973
343.594	798.99003
344.11	808.98413
344.626	792.04712
345.141	749.8512
345.657	893.96471
346.172	822.98409
346.687	822.89623
347.202	825.8543
347.717	870.9795
348.232	850.03472
348.747	907.92388
349.261	806.7465
349.776	839.89523
350.29	793.90422
350.805	956.0641
351.319	977.9493
351.833	850.7982
352.347	932.91092
352.861	867.84352
353.374	984.91009
353.888	929.94182
354.401	976.86651
354.915	935.76851
355.428	987.97891
355.941	955.8324
356.454	1024.83259
356.967	974.87588
357.48	966.81974
357.993	995.94137
358.505	945.8763
359.018	1143.96956
359.53	1122.9022
360.042	1091.75592
360.554	1070.8974
361.066	1008.85513
361.578	1025.67507
362.09	1027.8182
362.602	992.65474
363.113	1079.75578
363.625	1083.68857
364.136	1115.65888
364.647	1029.65569
365.158	1125.72037
365.669	1181.7818
366.18	1157.73533
366.691	1119.60134
367.201	1145.72833
367.712	1135.61111
368.222	1136.60707
368.733	1128.48293
369.243	1154.49465
369.753	1242.58059
370.263	1274.62299
370.773	1238.66403
371.282	1243.54609
371.792	1301.3806
372.301	1283.48672
372.811	1259.63121
373.32	1274.18426
373.829	1336.30035
374.338	1484.12685
374.847	1391.14906
375.356	1440.13383
375.865	1477.85475
376.373	1575.86279
376.882	1709.01394
377.39	1665.8719
377.898	1516.8197
378.407	1771.50422
378.915	1900.34599
379.423	1939.35527
379.93	2057.18306
380.438	1992.17885
380.946	2007.08427
381.453	2059.01234
381.96	2194.89624
382.468	2167.90133
382.975	2682.77721
383.482	2719.89892
383.989	2575.83525
384.495	2746.08568
385.002	2642.54312
385.509	2726.59666
386.015	3024.85058
386.521	3260.20454
387.028	3424.23565
387.534	3331.78306
388.04	3811.78238
388.546	3517.78198
389.051	3583.69232
389.557	4031.13421
390.063	4792.92902
390.568	4832.34758
391.073	4571.80954
391.578	4849.8654
392.084	5118.04985
392.589	4871.73434
393.093	4932.34525
393.598	5612.53325
394.103	6417.87028
394.607	6897.3959
395.112	7719.96837
395.616	8211.08552
396.12	8553.1216
396.624	9102.14245
397.128	10289.80551
397.632	11640.25876
398.136	12710.74494
398.639	11741.80141
399.143	12080.02103
399.646	13847.23611
400.15	15207.27525
400.653	15899.38294
401.156	12783.53272
401.659	4843.10863
402.162	1054.15589
402.664	0
403.167	0
403.67	0
404.172	0
404.674	0
405.176	0
405.678	0
406.18	0
406.682	0
407.184	0
407.686	0
408.187	0
408.688	0
409.19	0
409.691	0
410.192	0
410.693	0
411.194	435.30976
411.694	4082.94878
412.195	8864.71461
412.696	12089.80453
413.196	12760.96929
413.696	12863.67595
414.196	13703.56671
414.696	17261.84252
415.196	21764.24417
415.696	29583.19008
416.196	33466.9116
416.695	23323.21784
417.195	17540.50658
417.694	16529.5133
418.194	15922.54954
418.693	14439.87057
419.192	14357.27424
419.691	14028.29322
420.19	13760.78131
420.688	13843.97081
421.187	13341.62808
421.685	12819.82301
422.184	11988.92944
422.682	10412.93946
423.18	8118.09765
423.678	6965.12599
424.176	6449.7894
424.674	6224.69836
425.172	6080.10561
425.669	5935.4735
426.167	5608.76904
426.664	4986.9355
427.161	4382.28169
427.659	4091.12054
428.156	3826.83789
428.652	3639.38759
429.149	3407.14404
429.646	3282.04109
430.143	3209.71835
430.639	2916.6765
431.135	2746.7051
431.632	2630.74823
432.128	2352.95456
432.624	2257.11244
433.12	2012.12131
433.616	2018.1392
434.111	1780.36663
434.607	1659.53323
435.103	1865.38175
435.598	1834.4308
436.093	1840.69979
436.588	1646.82365
437.083	1561.94591
437.578	1499.06484
438.073	1351.23083
438.568	1386.34005
439.062	1230.15939
439.557	1277.38387
440.051	1240.3255
440.546	1152.35576
441.04	1079.46973
441.534	1053.60139
442.028	1119.5571
442.522	1038.54754
443.015	1031.4297
443.509	1101.64785
444.002	993.62688
444.496	954.46842
444.989	916.63619
445.482	905.66206
445.975	849.49882
446.468	914.46956
446.961	895.4737
447.454	823.54159
447.947	842.59845
448.439	818.66165
448.931	726.50765
449.424	734.68781
449.916	807.67838
450.408	713.52844
450.9	770.65604
451.392	635.6335
451.884	701.58682
452.375	614.60497
452.867	719.60609
453.358	638.53812
453.849	703.51929
454.341	624.54353
454.832	564.46713
455.323	563.58802
455.814	650.60755
456.304	643.61139
456.795	624.59557
457.285	604.5779
457.776	683.67247
458.266	552.59271
458.756	589.65552
459.247	517.57162
459.737	493.5552
460.226	511.52748
460.716	462.54482
461.206	520.61653
461.695	431.57397
462.185	470.5645
462.674	484.56619
463.163	537.58367
463.653	453.47054
464.142	406.52858
464.63	431.58203
465.119	394.49242
465.608	423.52593
466.096	404.47878
466.585	418.54385
467.073	466.63329
467.561	449.62039
468.05	407.54813
468.538	367.54495
469.026	367.52774
469.513	382.45834
470.001	362.48667
470.489	405.5715
470.976	367.51587
471.463	386.60454
471.951	398.63278
472.438	250.3792
472.925	297.44177
473.412	339.54807
473.899	357.52655
474.385	301.49488
474.872	253.39284
475.359	280.4615
475.845	291.39
476.331	229.34019
476.817	279.47176
477.303	225.36393
477.789	198.33961
478.275	210.372
478.761	256.43816
479.247	238.3779
479.732	220.39459
480.218	203.39069
480.703	216.39381
481.188	209.32089
481.673	182.3058
482.158	160.24442
482.643	263.50008
483.128	164.27707
483.612	165.29038
484.097	190.35502
484.581	178.31498
485.066	154.2869
485.55	143.23719
486.034	172.28001
486.518	147.2644
487.002	86.16507
487.486	97.18668
487.969	108.2077
488.453	175.34833
488.936	86.15337
489.42	186.3192
489.903	98.2002
490.386	-341.49863
490.869	161.27681
491.352	160.31617
491.835	89.14794
492.318	81.14764
492.8	143.2343
493.283	112.23192
493.765	65.13167
494.247	118.2265
494.73	127.22702
495.212	147.29205
495.694	67.12882
496.175	24.04714
496.657	109.21372
497.139	157.21921
497.62	-2.00398
498.102	69.14285
498.583	29.06176
499.064	46.08531
499.545	34.06539
500.026	17.03215
500.507	36.0707
500.988	72.15123
501.469	28.05956
501.949	35.07408
502.43	11.02218
502.91	36.06251
503.39	-8.0174
503.87	-5.01006
504.35	89.17839
504.83	10.01869
505.31	43.08886
505.79	40.08153
506.269	171.33275
506.749	29.05651
507.228	52.10382
507.707	28.0531
508.187	114.23151
508.666	50.10502
509.145	43.08591
509.623	62.12441
510.102	85.17605
510.581	163.33261
511.059	89.19011
511.538	116.25738
512.016	157.31629
512.494	123.25475
512.972	114.23172
513.45	139.26893
513.928	180.36571
514.406	158.31735
514.884	204.44056
515.361	212.42345
515.839	256.47859
516.316	222.44507
516.793	218.46534
517.27	256.51798
517.747	242.51904
518.224	295.56093
518.701	287.5234
519.178	219.45338
519.654	291.57409
520.131	286.58611
520.607	295.60879
521.083	262.49514
521.56	293.57097
522.036	273.49509
522.512	268.55494
522.987	269.52745
523.463	268.52984
523.939	277.56831
524.414	245.47516
524.89	241.48037
525.365	203.38768
525.84	130.26376
526.315	190.38867
526.79	222.42119
527.265	129.2533
527.74	158.33039
528.215	155.31355
528.689	131.24908
529.164	209.38385
529.638	139.31066
530.112	131.26585
530.587	115.21057
531.061	55.11631
531.534	129.27208
532.008	74.1557
532.482	123.24539
532.956	58.12998
533.429	142.29825
533.903	133.25511
534.376	111.21322
534.849	88.17887
535.322	96.19843
535.795	81.17437
536.268	124.25929
536.741	75.15902
537.213	92.18675
537.686	72.15416
538.158	27.05344
538.631	101.2163
539.103	53.10451
539.575	152.27361
540.047	80.1546
540.519	127.26563
540.991	123.26421
541.463	119.25231
541.934	140.27808
542.406	79.1656
542.877	165.32108
543.348	116.2459
543.82	168.35815
544.291	171.34608
544.762	139.2857
545.233	148.32195
545.703	167.31645
546.174	228.45054
546.645	161.32912
547.115	234.47759
547.585	280.53876
548.056	191.39027
548.526	313.60531
548.996	339.67256
549.466	391.78189
549.935	280.54707
550.405	399.69566
550.875	419.79324
551.344	491.93003
551.814	504.90505
552.283	545.91179
552.752	572.012
553.221	608.98141
553.69	663.08622
554.159	715.29491
554.628	743.18993
555.096	814.49895
555.565	950.44319
556.033	996.62166
556.502	984.66931
556.97	1085.60404
557.438	1173.85542
557.906	1296.99921
558.374	1361.9693
558.842	1450.16255
559.31	1566.06648
559.777	1684.37871
560.245	1787.38032
560.712	2022.43937
561.18	2129.27353
561.647	2324.36796
562.114	2543.46199
562.581	2730.8804
563.048	3020.51479
563.514	3140.80113
563.981	3547.31584
564.448	3685.13827
564.914	4083.1748
565.381	4274.94386
565.847	4778.83116
566.313	5026.65527
566.779	5420.26786
567.245	5850.29922
567.711	6202.32452
568.176	6669.95617
568.642	7076.53415
569.108	7552.62695
569.573	8124.99357
570.038	8701.76173
570.504	9120.64122
570.969	9807.2922
571.434	10352.49314
571.899	11072.13681
572.363	11749.89873
572.828	12338.37802
573.293	13020.10041
573.757	13665.12932
574.222	14444.49653
574.686	15002.86378
575.15	15807.12666
575.614	16254.80963
576.078	16966.6982
576.542	17467.48851
577.006	18063.41864
577.469	18710.44954
577.933	19054.99503
578.396	19632.23775
578.86	19643.64567
579.323	19952.78451
579.786	20111.58394
580.249	20161.96731
580.712	20434.75636
581.175	20482.24084
581.637	20346.02958
582.1	20578.63809
582.563	20291.04681
583.025	20266.65255
583.487	20206.57661
583.95	20048.83821
584.412	19949.79912
584.874	19747.23094
585.336	19459.87354
585.797	19420.67783
586.259	19015.73902
586.721	18988.64566
587.182	18463.42689
587.643	18351.78297
588.105	17916.10319
588.566	17830.68965
589.027	17480.27417
589.488	17061.22695
589.949	16855.38429
590.41	16370.30111
590.87	16236.39521
591.331	15663.11112
591.791	15325.42682
592.252	15077.10577
592.712	14807.48987
593.172	14418.92317
593.632	13918.75149
594.092	13640.20235
594.552	13227.3325
595.011	12785.36194
595.471	12586.19945
595.931	12088.00931
596.39	11824.88761
596.849	11595.8312
597.308	11245.45936
597.768	10760.4614
598.227	10636.17417
598.685	10379.35282
599.144	10078.2498
599.603	9909.67731
600.062	9652.16052
600.52	9320.1231
600.978	9220.84421
601.437	8940.24291
601.895	8742.84227
602.353	8504.42855
602.811	8313.13142
603.269	8226.15029
603.727	7847.76136
604.184	7792.53484
604.642	7692.71792
605.099	7627.48921
605.557	7378.52834
606.014	7277.02276
606.471	7158.52397
606.928	7042.87465
607.385	7018.34835
607.842	7061.12978
608.299	6995.20086
608.755	6887.31772
609.212	6773.93807
609.668	6620.88354
610.125	6684.33464
610.581	6718.29999
611.037	6586.11295
611.493	6455.2838
611.949	6291.37074
612.405	6341.5434
612.861	6298.30698
613.316	6234.35856
613.772	6234.16608
614.227	6179.31291
614.683	6106.8827
615.138	6017.31709
615.593	5996.29378
616.048	5855.28751
616.503	5939.68545
616.958	5657.90356
617.412	5662.54781
617.867	5627.16192
618.321	5497.93163
618.776	5476.28048
619.23	5241.73222
619.684	5262.52272
620.138	5159.75934
620.592	4986.12328
621.046	4786.04187
621.5	4731.2849
621.954	4616.90679
622.407	4488.91189
622.861	4340.52762
623.314	4377.1209
623.768	4172.36297
624.221	4018.54586
624.674	3974.41181
625.127	3954.5267
625.58	3804.4784
626.033	3694.35263
626.485	3589.82928
626.938	3610.81653
627.39	3422.7472
627.843	3430.72434
628.295	3302.76402
628.747	3191.95315
629.199	3187.71116
629.651	3104.72623
630.103	3091.78125
630.555	2915.42964
631.006	2804.9558
631.458	2865.98745
631.909	2722.88236
632.361	2746.95001
632.812	2632.88769
633.263	2596.57707
633.714	2587.55804
634.165	2487.13978
634.616	2447.03319
635.067	2400.71957
635.518	2272.0085
635.968	2268.29451
636.419	2218.59481
636.869	2152.95694
637.319	2157.82872
637.769	2075.65729
638.219	2162.99923
638.669	1973.8755
639.119	2014.01119
639.569	1983.93927
640.019	1994.78165
640.468	1888.58616
640.918	1959.93769
641.367	1881.60351
641.816	1876.59235
642.265	1846.70109
642.714	1832.69484
643.163	1781.63839
643.612	1659.68504
644.061	1666.27082
644.51	1726.56418
644.958	1717.43591
645.406	1656.68534
645.855	1652.77997
646.303	1645.60753
646.751	1562.43339
647.199	1628.49507
647.647	1643.54548
648.095	1594.49232
648.543	1696.22054
648.99	1566.60875
649.438	1602.59989
649.885	1604.78273
650.333	1525.95692
650.78	1510.59681
651.227	1533.64702
651.674	1485.38642
652.121	1452.56509
652.568	1443.54714
653.015	1533.7988
653.461	1396.43013
653.908	1447.42685
654.354	1374.42666
654.801	1283.26115
655.247	1378.18896
655.693	1348.67737
656.139	1310.36452
656.585	1296.35099
657.031	1234.18738
657.477	1254.0167
657.922	1264.19584
658.368	1232.35741
658.813	1261.23372
659.259	1196.22807
659.704	1190.1428
660.149	1103.03157
660.594	1186.19092
661.039	1116.99811
661.484	1104.10381
661.929	1150.11052
662.373	978.03851
662.818	1001.03913
663.262	1004.97428
663.707	975.04972
664.151	941.91484
664.595	977.94047
665.039	954.97952
665.483	942.00838
665.927	864.72018
666.371	861.67411
666.814	864.74886
667.258	807.63076
667.701	888.59876
668.145	869.84346
668.588	778.65567
669.031	738.50717
669.474	754.58023
669.917	753.44298
670.36	753.6312
670.803	726.53823
671.245	763.38133
671.688	672.45776
672.13	669.32253
672.573	667.51402
673.015	683.45302
673.457	617.19962
673.899	669.44293
674.341	654.40843
674.783	619.33212
675.225	584.30159
675.666	559.22035
676.108	579.13524
676.549	602.288
676.991	600.18952
677.432	548.98865
677.873	511.08761
678.314	578.2531
678.755	512.14703
679.196	477.01115
679.637	535.20085
680.078	547.17142
680.518	535.1447
680.959	522.14979
681.399	448.03752
681.839	484.09265
682.28	443.02126
682.72	456.97331
683.16	464.07592
683.6	465.98972
684.039	440.85766
684.479	400.92755
684.919	404.87691
685.358	455.07973
685.798	385.95752
686.237	461.04085
686.676	412.90378
687.115	400.88928
687.554	391.87991
687.993	369.77756
688.432	374.81284
688.871	361.78042
689.309	381.86407
689.748	390.77356
690.186	358.81736
690.625	341.76521
691.063	360.82358
691.501	371.87375
691.939	329.78719
692.377	305.71751
692.815	326.74851
693.253	330.76285
693.69	283.60369
694.128	324.75374
694.565	302.69591
695.003	305.74673
695.44	259.59291
695.877	295.66581
696.314	297.61925
696.751	316.69585
697.188	262.58614
697.625	328.7256
698.061	281.65359
698.498	313.73088
698.934	294.68531
699.371	248.56967
699.807	264.60812
700.243	285.66446
700.679	330.71875
701.115	302.68842
701.551	255.58633
701.987	279.61039
702.422	202.47255
702.858	271.6276
703.294	237.52661
703.729	251.59945
704.164	249.58511
704.599	254.55276
705.035	238.52147
705.47	191.45809
705.904	225.51426
706.339	279.6315
706.774	217.49957
707.209	175.39998
707.643	218.51437
708.078	212.50739
708.512	168.41554
708.946	218.51377
709.38	201.46975
709.814	248.5546
710.248	226.54027
710.682	221.51588
711.116	179.42178
711.549	208.52743
711.983	182.4164
712.416	195.45555
712.85	220.53815
713.283	200.46677
713.716	203.50238
714.149	201.47288
714.582	183.4073
715.015	216.53151
715.448	200.4965
715.881	259.55394
716.313	225.51736
716.746	191.44393
717.178	158.37729
717.61	178.44623
718.043	176.43405
718.475	182.43626
718.907	204.50864
719.339	140.3167
719.77	141.33289
720.202	165.41327
720.634	134.32487
721.065	159.37451
721.497	197.47589
721.928	141.34447
722.359	104.25119
722.79	126.30122
723.221	161.40195
723.652	225.56922
724.083	134.30214
724.514	197.44682
724.945	149.34864
725.375	115.26719
725.806	177.43724
726.236	148.37677
726.666	167.39228
727.096	159.38729
727.526	122.30904
727.956	128.29097
728.386	167.40753
728.816	91.23089
729.246	125.30311
729.675	118.29005
730.105	140.34324
730.534	165.3832
730.964	145.36462
731.393	169.41625
731.822	165.41729
732.251	142.3583
732.68	157.36808
733.109	158.38622
733.537	155.37161
733.966	125.3097
734.395	158.36266
734.823	186.41544
735.251	104.25119
735.68	204.50291
736.108	142.35727
736.536	139.32702
736.964	112.26058
737.392	134.334
737.82	135.32317
738.247	152.36199
738.675	166.39366
739.102	142.35252
739.53	109.27724
739.957	117.30022
740.384	155.37994
740.811	135.3407
741.238	105.25672
741.665	119.27604
742.092	130.31007
742.519	109.26966
742.945	133.31838
743.372	112.27724
743.798	122.31266
744.225	112.26663
744.651	115.28825
745.077	84.21044
745.503	134.32585
745.929	102.24543
746.355	156.3853
746.781	137.33794
747.207	49.11641
747.632	78.19117
748.058	132.32806
748.483	163.37241
748.908	126.31212
749.334	135.33018
749.759	70.16658
750.184	115.27382
750.609	132.32327
751.033	132.31158
751.458	142.31782
751.883	158.38823
752.307	101.23846
752.732	51.12853
753.156	106.2619
753.58	118.28037
754.005	126.31872
754.429	129.30243
754.853	108.26743
755.277	102.24208
755.7	129.31879
756.124	80.1994
756.548	67.16021
756.971	144.34951
757.394	70.18128
757.818	105.2699
758.241	105.26622
758.664	119.29957
759.087	44.0997
759.51	114.28332
759.933	71.17204
760.356	63.16256
760.778	114.27991
761.201	108.26292
761.623	115.27897
762.046	151.35609
762.468	128.30682
762.89	154.377
763.312	127.30912
763.734	112.26949
764.156	71.17643
764.578	116.26711
765	94.22995
765.421	54.1381
765.843	106.27735
766.264	119.28715
766.686	120.30051
767.107	77.18763
767.528	92.23231
767.949	95.24172
768.37	120.29366
768.791	119.28737
769.212	61.15411
769.632	60.14108
770.053	63.16666
770.473	138.33356
770.894	117.29221
771.314	140.33265
771.734	55.12955
772.154	109.2792
772.575	121.28001
772.994	79.18057
773.414	121.28988
773.834	96.24007
774.254	67.16503
774.673	131.31742
775.093	62.15437
775.512	71.17572
775.931	105.26565
776.351	123.30385
776.77	54.13303
777.189	81.19346
777.607	90.22985
778.026	67.1677
778.445	30.07586
778.864	77.198
779.282	137.32721
779.701	92.23189
780.119	49.12468
780.537	86.21475
780.955	120.30376
781.373	75.18609
781.791	98.22034
782.209	146.33364
782.627	84.22121
783.045	103.23675
783.462	73.18692
783.88	104.26803
784.297	74.18659
784.715	58.14953
785.132	73.17735
785.549	65.16322
785.966	88.22125
786.383	74.1825
786.8	132.30444
787.217	70.16665
787.633	72.18005
788.05	208.48353
788.466	121.28401
788.883	125.31625
789.299	62.15009
789.715	176.42075
790.131	100.24799
790.547	90.22457
790.963	126.3104
791.379	79.1998
791.795	107.24358
792.21	146.33766
792.626	88.20885
793.041	99.24367
793.457	72.17836
793.872	94.22077
794.287	64.1533
794.702	69.17052
795.117	77.1914
795.532	82.20535
795.947	137.32671
796.362	138.3265
796.776	152.35196
797.191	75.18385
797.605	42.09937
798.02	85.20674
798.434	157.34494
798.848	78.19216
799.262	74.18371
799.676	87.21216
800.09	66.16283
800.504	76.18467
800.918	57.1328
801.331	113.2944
801.745	84.19304
802.158	119.29526
802.572	80.19418
802.985	119.28574
803.398	109.25864
803.811	133.33864
804.224	81.20157
804.637	81.19294
805.05	99.22883
805.462	126.30697
805.875	64.16609
806.288	28.06817
806.7	89.22316
807.112	103.23789
807.525	89.21922
807.937	74.18297
808.349	86.21506
808.761	91.22332
809.173	115.27677
809.584	92.22681
809.996	58.14247
810.408	53.13718
810.819	88.2066
811.231	49.12705
811.642	100.23724
812.053	141.33108
812.464	198.45974
812.875	160.40256
813.286	158.40052
813.697	190.43488
814.108	142.34271
814.519	74.16522
814.929	152.38229
815.34	123.29568
815.75	60.15275
816.16	93.23101
816.571	69.17928
816.981	116.2719
817.391	138.32928
817.801	95.23494
818.211	99.235
818.62	98.23482
819.03	106.25825
819.44	88.22915
819.849	101.25316
820.259	91.23212
820.668	99.24223
821.077	90.2227
821.486	80.1925
821.895	146.35596
822.304	92.24276
822.713	101.23753
823.122	128.31614
823.531	98.23124
823.939	67.16338
824.348	106.25612
824.756	80.20006
825.164	92.23065
825.573	67.16818
825.981	103.25398
826.389	120.29878
826.797	97.24173
827.205	52.11984
827.612	138.33633
828.02	67.15745
828.428	125.31512
828.835	96.25135
829.243	134.31557
829.65	51.12719
830.057	96.23187
830.464	102.24701
830.871	101.24049
831.278	77.18588
831.685	172.37607
832.092	71.17378
832.499	75.16402
832.905	121.3034
833.312	102.23131
833.718	101.25015
834.124	92.20939
834.531	127.31672
834.937	93.23755
835.343	125.29843
835.749	111.25728
836.155	79.20632
836.561	124.30176
836.966	97.23592
837.372	94.23803
837.777	90.22319
838.183	141.30901
838.588	53.13189
838.993	129.31046
839.399	87.21184
839.804	55.13427
840.209	91.23048
840.613	61.13594
841.018	86.21692
841.423	79.20207
841.828	84.21165
842.232	118.28952
842.637	127.29611
843.041	36.09268
843.445	95.23692
843.849	51.12654
844.253	110.25925
844.657	78.19583
845.061	72.16321
845.465	45.10908
845.869	111.25565
846.272	49.11962
846.676	110.26378
847.079	50.12738
847.483	115.28419
847.886	139.33351
848.289	53.14157
848.692	87.21933
849.095	86.20568
849.498	112.28139
849.901	92.2099
850.304	81.19294
850.707	76.19327
851.109	83.20924
851.512	108.26312
851.914	40.10115
852.316	76.1917
852.718	68.17525
853.121	82.20015
853.523	49.11483
853.925	55.14354
854.326	44.11031
854.728	67.17204
855.13	29.07517
855.531	41.09834
855.933	118.28027
856.334	62.15448
856.736	67.14993
857.137	68.1579
857.538	54.13587
857.939	58.14331
858.34	62.15105
858.741	97.25185
859.142	100.23843
859.542	70.18428
859.943	76.18826
860.343	50.12399
860.744	80.19447
861.144	76.18481
861.544	77.1844
861.945	68.17299
862.345	91.22125
862.745	62.15398
863.145	140.32957
863.544	75.18894
863.944	117.27334
864.344	91.22472
864.743	102.2511
865.143	114.28991
865.542	78.18026
865.941	57.14112
866.34	94.22369
866.74	89.23757
867.139	65.15543
867.537	77.19551
867.936	72.17285
868.335	96.24258
868.734	131.33037
869.132	97.22367
869.531	123.29388
869.929	61.13898
870.327	96.22845
870.726	108.26685
871.124	87.20221
871.522	104.2627
871.92	130.31636
872.318	74.18035
872.715	114.27929
873.113	65.15815
873.511	81.20091
873.908	19.04828
874.306	78.19322
874.703	71.1772
875.1	109.27626
875.497	82.19566
875.894	48.11777
876.291	62.15201
876.688	71.18263
877.085	86.20521
877.482	128.31626
877.878	61.1467
878.275	68.17238
878.671	130.2852
879.068	109.26053
879.464	40.09698
879.86	30.07131
880.256	101.24721
880.652	86.21754
881.048	73.18034
881.444	86.20356
881.84	61.15488
882.236	91.22736
882.631	94.2291
883.027	109.26133
883.422	95.24121
883.817	20.05057
884.213	83.21193
884.608	45.11055
885.003	44.10632
885.398	47.11781
885.793	61.15296
886.188	40.0997
886.582	136.34389
886.977	130.30412
887.371	76.19149
887.766	51.12691
888.16	111.27421
888.554	74.18237
888.949	84.20983
889.343	114.27545
889.737	22.05893
890.131	74.18498
890.525	98.24869
890.918	42.10594
891.312	68.16232
891.706	88.22954
892.099	90.22758
892.492	98.20956
892.886	79.19243
893.279	36.092
893.672	72.18271
894.065	69.17233
894.458	74.18545
894.851	95.23106
895.244	41.10495
895.637	86.20591
896.029	82.19948
896.422	68.16573
896.814	86.21257
897.206	35.08366
897.599	122.298
897.991	79.19013
898.383	53.12528
898.775	89.19949
899.167	2.00471
899.559	76.19163
899.951	91.21301
900.342	122.30651
900.734	0
901.125	100.26031
901.517	57.13983
901.908	101.24003
902.299	61.14892
902.69	102.23843
903.082	76.18329
903.473	60.1435
903.863	52.13271
904.254	36.08386
904.645	108.26596
905.036	10.02441
905.426	76.17326
905.817	95.23132
906.207	93.21991
906.597	41.09612
906.987	84.21656
907.378	98.24586
907.768	18.04786
908.158	79.19171
908.547	53.1369
908.937	64.16391
909.327	77.18616
909.717	103.2592
910.106	79.18883
910.495	86.21343
910.885	78.19667
911.274	80.19897
911.663	124.31075
912.052	113.27576
912.441	75.18995
912.83	71.16241
913.219	127.32815
913.608	97.23566
913.997	55.13781
914.385	98.23214
914.774	85.20573
915.162	85.2013
915.55	132.3146
915.939	75.18853
916.327	87.21579
916.715	37.09454
917.103	140.33904
917.491	92.22598
917.878	81.19811
918.266	93.23947
918.654	83.21089
919.041	72.1873
919.429	59.13908
919.816	64.16189
920.203	79.19063
920.591	93.2289
920.978	86.20929
921.365	82.21404
921.752	80.18972
922.139	77.16633
922.525	83.19816
922.912	104.25119
923.299	97.2391
923.685	61.15887
924.072	124.28188
924.458	67.16551
924.844	50.12377
925.231	78.18061
925.617	68.17244
926.003	90.22847
926.389	67.16855
926.774	97.24384
927.16	82.20253
927.546	55.14029
927.931	88.21815
928.317	77.17649
928.702	83.1952
929.088	63.14868
929.473	62.15745
929.858	49.11851
930.243	84.20036
930.628	71.1721
931.013	76.18751
931.398	98.22332
931.783	86.22509
932.167	76.18495
932.552	74.18465
932.937	87.21453
933.321	48.12051
933.705	89.22284
934.09	117.29221
934.474	103.24224
934.858	47.12199
935.242	40.09292
935.626	55.14069
936.009	63.16722
936.393	98.24728
936.777	101.25635
937.16	91.23513
937.544	66.15507
937.927	70.17701
938.311	90.21812
938.694	137.35705
939.077	59.14102
939.46	101.24574
939.843	66.13728
940.226	55.14098
940.609	53.12163
940.991	60.15248
941.374	53.12949
941.757	102.24934
942.139	70.15661
942.522	87.20421
942.904	103.24516
943.286	130.32567
943.668	62.16029
944.05	87.21287
944.432	59.14538
944.814	118.28705
945.196	56.13633
945.578	68.16108
945.959	82.19101
946.341	126.30502
946.722	82.19131
947.104	121.28534
947.485	103.23722
947.866	69.17327
948.247	63.1586
948.628	82.19888
949.009	87.22136
949.39	117.28776
949.771	107.24614
950.152	94.22884
950.532	26.06424
950.913	90.21549
951.293	30.08131
951.674	78.18769
952.054	39.09684
952.434	72.17803
952.814	48.11427
953.194	106.27479
953.574	71.17424
953.954	50.11876
954.334	66.16403
954.714	5.01229
955.093	86.21007
955.473	35.08776
955.853	88.22632
956.232	75.20475
956.611	109.25854
956.99	62.15549
957.37	63.16019
957.749	79.18746
958.128	57.14344
958.506	73.18863
958.885	49.12371
959.264	74.18056
959.643	54.12281
960.021	92.22623
960.4	65.14689
960.778	96.23449
961.156	53.1328
961.535	55.12809
961.913	97.22492
962.291	50.12828
962.669	67.16921
963.047	95.24052
963.424	73.18555
963.802	42.10343
964.18	101.25325
964.557	119.27035
964.935	63.14891
965.312	11.02884
965.69	100.24817
966.067	80.19374
966.444	84.20572
966.821	64.1646
967.198	105.25212
967.575	76.18599
967.952	92.21506
968.329	86.20788
968.705	75.15999
969.082	93.23671
969.458	38.09137
969.835	84.20319
970.211	64.16385
970.587	115.28294
970.963	59.15113
971.339	48.12538
971.715	51.12733
972.091	60.14749
972.467	120.29551
972.843	46.11424
973.219	171.40121
973.594	53.13856
973.97	125.29329
974.345	69.16455
974.721	102.2446
975.096	113.2702
975.471	97.22804
975.846	74.17698
976.221	58.14708
976.596	39.09368
976.971	105.25662
977.346	138.31574
977.72	93.23512
978.095	76.19553
978.469	85.20154
978.844	116.28819
979.218	28.0674
979.593	114.26983
979.967	77.18665
980.341	65.14923
980.715	98.2448
981.089	89.22123
981.463	73.16685
981.837	66.1608
982.21	139.31783
982.584	71.17081
982.957	39.09758
983.331	81.19035
983.704	92.22431
984.078	55.13542
984.451	105.25967
984.824	78.18897
985.197	98.2359
985.57	63.15763
985.943	73.17954
986.316	116.28155
986.688	123.29254
987.061	141.32461
987.434	79.20484
987.806	97.23318
988.179	76.17842
988.551	118.29572
988.923	83.20316
989.295	152.3728
989.667	56.13362
990.039	71.17475
990.411	93.21223
990.783	94.21455
991.155	54.12964
991.527	134.32487
991.898	69.17133
992.27	59.1457
992.641	92.22906
993.012	101.23531
993.384	82.19439
993.755	74.18786
994.126	68.163
994.497	22.05428
994.868	87.19837
995.239	76.18329
995.61	39.09832
995.98	86.20748
996.351	95.2333
996.722	73.16853
997.092	58.13712
997.462	-3.00708
997.833	97.22786
998.203	132.31509
998.573	69.17121
998.943	76.17731
999.313	67.16002
999.683	69.16499
1000.053	117.26559
1000.423	64.15511
1000.792	54.13985
1001.162	98.23902
1001.531	104.25385
1001.901	76.18854
1002.27	123.27081
1002.639	63.16058
1003.009	86.20308
1003.378	106.26832
1003.747	81.1902
1004.116	65.15507
1004.485	122.28753
1004.853	90.22636
1005.222	79.19816
1005.591	120.28106
1005.959	105.2339
1006.328	72.16128
1006.696	63.15156
1007.064	82.20506
1007.433	72.1792
1007.801	139.33554
1008.169	96.24041
1008.537	89.19546
1008.905	60.13949
1009.273	90.22066
1009.64	33.07897
1010.008	76.18023
1010.375	137.32721
1010.743	106.24204
1011.11	96.22511
1011.478	89.21865
1011.845	110.25562
1012.212	53.11987
1012.579	82.20007
1012.946	100.23568
1013.313	105.24723
1013.68	73.16329
1014.047	67.15911
1014.414	56.13209
1014.78	74.18304
1015.147	98.23482
1015.513	84.20105
1015.88	120.303
1016.246	120.29235
1016.612	111.25095
1016.978	66.16122
1017.344	78.19173
1017.71	136.32625
1018.076	126.29268
1018.442	104.26495
1018.808	86.2135
1019.174	72.17986
1019.539	168.37756
1019.905	38.0898
1020.27	60.14776
1020.636	125.29535
1021.001	92.21843
1021.366	72.17213
1021.731	97.24733
1022.096	58.14604
1022.461	59.13935
1022.826	89.20988
1023.191	56.14672
1023.556	121.27957
1023.92	86.20999
1024.285	104.25119
1024.649	115.27834
1025.014	96.23572
1025.378	76.19012
1025.742	51.12659
1026.107	117.26095
1026.471	107.24693
1026.835	74.18257
1027.199	70.1678
1027.562	96.22106
1027.926	89.21598
1028.29	83.20872
1028.654	74.16938
1029.017	88.21471
1029.381	55.13121
1029.744	101.25517
1030.107	141.32759
1030.471	112.26489
1030.834	115.25808
1031.197	115.27351
1031.56	67.15751
1031.923	61.15735
1032.286	120.27787
1032.648	133.31291
1033.011	61.13965
1033.374	151.34777
1033.736	42.11053
1034.099	74.17948
1034.461	44.11122
1034.823	90.22237
1035.185	105.26157
1035.548	84.20304
1035.91	114.26962
1036.272	84.18979
1036.634	112.27072
1036.995	118.27356
1037.357	65.15762
1037.719	87.21002
1038.08	98.23043
1038.442	54.12801
1038.803	98.23303
1039.165	75.18833
1039.526	38.09199
1039.887	93.22059
1040.248	40.09869
1040.609	115.28064
1040.97	32.07843
1041.331	68.17152
1041.692	40.0935
1042.053	75.16984
1042.413	77.1784
1042.774	88.21239
1043.134	114.26795
1043.495	99.24654
1043.855	72.17384
1044.215	63.15592
1044.576	56.13368
1044.936	99.22464
1045.296	125.30754
1045.656	76.1855
1046.016	86.20607
1046.375	39.09475
1046.735	34.07729
1047.095	89.20662
1047.454	104.21767
1047.814	58.13914
1048.173	109.25734
1048.533	85.19326
1048.892	16.03863
1049.251	89.22172
1049.61	55.13522
1049.969	94.21956
1050.328	89.19126
1050.687	45.10953
1051.046	71.1721
1051.405	71.17585
1051.763	38.08754
1052.122	55.13697
1052.48	78.19017
1052.839	52.12222
1053.197	56.13157
1053.555	135.30234
1053.914	70.17048
1054.272	61.14709
1054.63	89.2159
1054.988	63.1492
1055.345	72.15423
1055.703	89.21249
1056.061	65.16667
1056.419	84.21603
1056.776	97.233
1057.134	78.17947
1057.491	52.13008
1057.848	107.26345
1058.206	115.26687
1058.563	96.20946
1058.92	94.21464
1059.277	69.16952
1059.634	87.20309
1059.991	111.26268
1060.348	77.17295
1060.704	72.17075
1061.061	122.27924
1061.418	93.22357
1061.774	87.21318
1062.131	59.15566
1062.487	81.18812
1062.843	54.13445
1063.199	49.1218
1063.555	52.12036
1063.911	98.24524
1064.267	113.23226
1064.623	89.21444
1064.979	152.3528
1065.335	98.23196
1065.691	73.17409
1066.046	80.1747
1066.402	50.11352
1066.757	97.24261
1067.112	102.24776
1067.468	23.05456
1067.823	115.27288
1068.178	74.17806
1068.533	74.17847
1068.888	104.24578
1069.243	90.22033
1069.598	89.21452
1069.952	28.06329
1070.307	47.11632
1070.662	72.17009
1071.016	69.1539
1071.371	86.19407
1071.725	139.32664
1072.079	70.16761
1072.434	73.17649
1072.788	69.1636
1073.142	96.23397
1073.496	70.1653
1073.85	123.28091
1074.203	72.17384
1074.557	100.26352
1074.911	137.32131
1075.265	133.30387
1075.618	95.22985
1075.971	60.14235
1076.325	95.23932
1076.678	90.20401
1077.031	39.08839
1077.385	86.18788
1077.738	72.16168
1078.091	30.06845
1078.444	87.20037
1078.796	66.16134
1079.149	90.22205
1079.502	52.1227
1079.855	67.1556
1080.207	117.28446
1080.56	69.17761
1080.912	84.20304
1081.264	73.17489
1081.617	56.13623
1081.969	45.11353
1082.321	69.16776
1082.673	12.02758
1083.025	51.12088
1083.377	-179.40286
1083.728	117.26914
1084.08	79.19602
1084.432	58.13956
1084.783	123.28385
1085.135	60.14999
1085.486	72.16387
1085.838	46.11328
1086.189	67.16198
1086.54	66.157
1086.891	50.12634
1087.242	85.20542
1087.593	74.17921
1087.944	52.11754
1088.295	123.27524
1088.646	94.22576
1088.996	59.14178
1089.347	88.21423
1089.698	39.09229
1090.048	88.22687
1090.398	78.17975
1090.749	69.16436
1091.099	64.16039
1091.449	79.19559
1091.799	88.21863
1092.149	41.10006
1092.499	100.24144
1092.849	50.12697
1093.199	120.29671
1093.548	43.10337
1093.898	47.11755
1094.248	82.20934
1094.597	28.07168
1094.947	70.18595
1095.296	17.0422
1095.645	82.21192
1095.994	113.26793
1096.343	86.21483
1096.692	24.06327
1097.041	39.10568
1097.39	53.13275
1097.739	81.20922
1098.088	81.21571
1098.437	55.14423
1098.785	109.29076
1099.134	71.1877
1099.482	68.18632
1099.83	93.24238
1100.179	39.10182
1100.527	54.14326
1100.875	60.15822
1101.223	79.20856
1101.571	64.17631
1101.919	27.07075
1102.267	50.14064
1102.615	8.02571
1102.962	14.04506
1103.31	2.00643
1103.658	24.07718
