Data from N2 R15 sample 6_Subt2__5__15-23-47-008.txt Node

Date: Tue Sep 02 15:23:47 PDT 2025
User: uwsun
Spectrometer: HDX01956
Trigger mode: 0
Integration Time (sec): 5.000000E-1
Scans to average: 1
Nonlinearity correction enabled: true
Boxcar width: 0
Storing dark spectrum: false
XAxis mode: Wavelengths
Number of Pixels in Spectrum: 2068
>>>>>Begin Spectral Data<<<<<
194.03	161.44063
194.578	154.47768
195.127	159.48537
195.676	137.42075
196.225	223.56937
196.773	178.47409
197.321	282.72137
197.87	410.93756
198.418	382.86617
198.966	351.80606
199.513	311.68355
200.061	293.65805
200.609	413.96166
201.156	342.64666
201.704	308.68535
202.251	303.71392
202.798	339.77695
203.345	379.82108
203.892	409.89324
204.438	383.79748
204.985	309.63969
205.532	368.84898
206.078	432.9133
206.624	406.85984
207.17	431.85828
207.716	381.80108
208.262	445.73868
208.808	341.72993
209.354	373.78737
209.899	468.01902
210.445	379.81582
210.99	340.71441
211.535	476.95209
212.08	407.8169
212.625	406.8835
213.17	429.94206
213.715	304.58776
214.259	364.73988
214.804	423.9066
215.348	397.78543
215.892	433.89396
216.436	431.86108
216.98	440.83402
217.524	395.80819
218.068	440.9591
218.612	402.88445
219.155	371.76115
219.698	396.81996
220.242	362.79746
220.785	366.74903
221.328	390.85157
221.871	369.82803
222.414	389.85172
222.956	307.65403
223.499	360.70839
224.041	409.83115
224.583	404.75904
225.126	368.70742
225.668	344.73683
226.21	359.795
226.751	410.76842
227.293	335.67612
227.835	367.78524
228.376	400.80601
228.918	394.87449
229.459	347.75978
230	399.82562
230.541	380.76465
231.082	348.74218
231.622	407.81389
232.163	375.79298
232.704	356.77471
233.244	337.73757
233.784	364.78707
234.324	333.63473
234.864	328.65332
235.404	419.86429
235.944	365.75899
236.484	444.95961
237.023	358.73863
237.563	354.71299
238.102	389.79844
238.641	359.79831
239.18	343.69862
239.719	388.85043
240.258	403.78161
240.797	348.72735
241.335	449.9457
241.874	404.65672
242.412	338.71146
242.95	349.72508
243.488	391.77066
244.026	328.66032
244.564	370.6548
245.102	342.66726
245.64	381.80073
246.177	330.64629
246.715	422.8738
247.252	371.74018
247.789	513.79777
248.326	356.73978
248.863	355.67108
249.4	412.80231
249.936	368.64821
250.473	410.81742
251.009	391.76667
251.546	418.78226
252.082	391.73299
252.618	441.82837
253.154	329.68841
253.69	377.72943
254.226	358.73996
254.761	357.6914
255.297	337.63643
255.832	366.747
256.367	400.80712
256.903	386.72236
257.438	417.83736
257.972	364.69635
258.507	365.71467
259.042	420.77007
259.576	320.59054
260.111	429.84277
260.645	410.75211
261.179	384.76487
261.713	379.71786
262.247	406.7974
262.781	417.73089
263.315	400.83566
263.849	424.90228
264.382	407.79653
264.915	395.78476
265.449	367.76043
265.982	465.88594
266.515	424.87637
267.048	390.69453
267.58	387.72047
268.113	396.71874
268.646	404.84775
269.178	382.72018
269.71	402.74041
270.243	403.77974
270.775	390.84869
271.307	400.82232
271.838	451.90522
272.37	408.85199
272.902	433.82657
273.433	395.72587
273.965	411.84702
274.496	414.8764
275.027	409.85957
275.558	460.93117
276.089	346.72285
276.62	466.99939
277.15	452.93884
277.681	462.83003
278.211	438.9053
278.741	372.68652
279.272	430.81506
279.802	482.00107
280.332	463.90185
280.861	446.89539
281.391	416.7839
281.921	442.89145
282.45	419.88408
282.98	442.9704
283.509	458.84654
284.038	427.80641
284.567	427.8337
285.096	469.937
285.625	424.79545
286.153	358.70545
286.682	442.83045
287.21	414.82846
287.739	467.90445
288.267	442.88203
288.795	458.00522
289.323	407.78371
289.851	493.93838
290.378	440.80716
290.906	425.84476
291.433	413.8565
291.961	422.77998
292.488	475.96835
293.015	442.84641
293.542	416.86946
294.069	466.93165
294.596	489.98692
295.122	503.96487
295.649	438.78286
296.175	469.92657
296.702	439.873
297.228	478.94457
297.754	443.80141
298.28	445.8116
298.806	438.85335
299.332	445.78368
299.857	489.87337
300.383	527.07109
300.908	431.84031
301.433	486.94013
301.958	501.92118
302.483	446.89539
303.008	438.87933
303.533	536.11592
304.058	541.00164
304.582	475.88478
305.107	432.9105
305.631	537.95617
306.155	543.97487
306.679	471.86252
307.203	488.88397
307.727	535.9847
308.251	487.95086
308.775	412.77141
309.298	512.94448
309.822	553.08212
310.345	572.03043
310.868	541.99025
311.391	581.09409
311.914	493.96029
312.437	552.95722
312.96	536.9576
313.482	580.02886
314.005	501.9717
314.527	555.11426
315.049	580.11443
315.571	509.83799
316.093	601.10688
316.615	516.93661
317.137	609.95223
317.659	635.13454
318.18	625.10686
318.702	611.0265
319.223	616.88494
319.744	607.969
320.265	578.01361
320.786	620.09656
321.307	611.0955
321.828	638.00825
322.348	618.02501
322.869	616.0138
323.389	723.71695
323.909	653.03291
324.43	671.13433
324.95	606.95498
325.47	682.14143
325.989	629.00858
326.509	613.89469
327.029	703.02455
327.548	674.98299
328.067	665.05921
328.587	704.16934
329.106	676.99322
329.625	734.31015
330.144	661.98276
330.662	667.98568
331.181	723.06552
331.7	749.09051
332.218	802.02083
332.736	735.06279
333.255	746.05503
333.773	709.03397
334.291	776.20385
334.808	715.94174
335.326	803.04296
335.844	793.0481
336.361	817.2061
336.879	778.02577
337.396	814.10884
337.913	834.04498
338.43	853.01948
338.947	845.09634
339.464	883.9448
339.981	843.06187
340.497	874.16932
341.014	879.13067
341.53	884.99082
342.046	888.12867
342.562	965.237
343.078	947.09262
343.594	918.091
344.11	973.11619
344.626	910.15682
345.141	965.00898
345.657	1043.06168
346.172	955.08878
346.687	1013.02394
347.202	1021.97562
347.717	1037.09483
348.232	999.15319
348.747	1023.99371
349.261	1028.86156
349.776	994.99718
350.29	997.05126
350.805	1137.18079
351.319	1042.98516
351.833	965.86174
352.347	1073.98789
352.861	1110.97209
353.374	1096.96497
353.888	1115.04602
354.401	1162.94719
354.915	1098.83359
355.428	1143.06146
355.941	1099.89609
356.454	1188.89147
356.967	1114.94042
357.48	1142.89133
357.993	1164.02274
358.505	1080.9436
359.018	1262.01232
359.53	1164.91724
360.042	1279.79832
360.554	1284.97176
361.066	1196.92789
361.578	1255.72237
362.09	1226.88426
362.602	1206.70247
363.113	1186.78385
363.625	1222.71582
364.136	1284.68237
364.647	1254.69801
365.158	1376.7583
365.669	1357.81237
366.18	1376.76744
366.691	1393.61869
367.201	1370.76189
367.712	1360.62762
368.222	1417.62216
368.733	1361.47963
369.243	1416.48703
369.753	1529.57157
370.263	1491.62183
370.773	1536.66986
371.282	1501.53437
371.792	1534.34244
372.301	1597.45047
372.811	1617.62062
373.32	1514.12113
373.829	1550.25403
374.338	1767.02678
374.847	1667.06068
375.356	1808.00323
375.865	1814.69883
376.373	1893.71379
376.882	1979.89608
377.39	2004.70981
377.898	1947.60959
378.407	2109.31581
378.915	2237.15504
379.423	2292.1553
379.93	2330.0312
380.438	2315.00039
380.946	2547.81097
381.453	2583.76645
381.96	2677.71884
382.468	2707.77529
382.975	3087.77246
383.482	3181.99227
383.989	3195.87873
384.495	3294.32772
385.002	3343.13117
385.509	3465.28594
386.015	3704.06849
386.521	4118.04191
387.028	4144.10414
387.534	4183.25898
388.04	4522.12779
388.546	4347.89047
389.051	4470.68227
389.557	4934.18891
390.063	5784.73061
390.568	5882.186
391.073	5852.0861
391.578	6097.58723
392.084	6076.18731
392.589	6024.57136
393.093	6179.38223
393.598	7158.30583
394.103	7916.64624
394.607	8670.00743
395.112	9564.66902
395.616	10148.3742
396.12	10737.36997
396.624	11851.66361
397.128	13285.86052
397.632	15141.51974
398.136	16009.835
398.639	15602.51127
399.143	16324.78222
399.646	19325.88116
400.15	20951.23646
400.653	19056.75626
401.156	13575.21616
401.659	5169.95759
402.162	1054.15589
402.664	0
403.167	0
403.67	0
404.172	0
404.674	0
405.176	0
405.678	0
406.18	0
406.682	0
407.184	0
407.686	0
408.187	0
408.688	0
409.19	0
409.691	0
410.192	0
410.693	0
411.194	435.30976
411.694	4082.94878
412.195	8864.71461
412.696	12089.80453
413.196	12760.96929
413.696	12863.67595
414.196	13703.56671
414.696	17261.84252
415.196	21764.24417
415.696	29583.19008
416.196	36460.31858
416.695	26768.67426
417.195	20852.76955
417.694	19336.8923
418.194	18666.59329
418.693	16819.48258
419.192	16264.65675
419.691	16139.91877
420.19	15868.48329
420.688	15865.86138
421.187	15162.97395
421.685	14579.20903
422.184	13520.96983
422.682	11737.1852
423.18	9586.79053
423.678	8316.90559
424.176	7692.7336
424.674	7183.67203
425.172	7108.61969
425.669	6810.66102
426.167	6404.4955
426.664	5818.76601
427.161	5157.79938
427.659	4756.59086
428.156	4534.27034
428.652	4145.91294
429.149	3974.59737
429.646	3898.46175
430.143	3666.83334
430.639	3558.70156
431.135	3167.59779
431.632	3054.61891
432.128	2768.7565
432.624	2625.91429
433.12	2403.91193
433.616	2315.97649
434.111	2182.13908
434.607	2087.29565
435.103	2130.2317
435.598	2090.28665
436.093	2080.57399
436.588	1948.67703
437.083	1864.81311
437.578	1767.96279
438.073	1560.17727
438.568	1595.29552
439.062	1563.06548
439.557	1523.34578
440.051	1465.28767
440.546	1308.34121
441.04	1220.4742
441.534	1323.63169
442.028	1312.56772
442.522	1252.56852
443.015	1268.43071
443.509	1233.66803
444.002	1146.66023
444.496	1166.48857
444.989	1163.70225
445.482	1090.72195
445.975	1085.54661
446.468	1092.49393
446.961	1056.49968
447.454	1053.60454
447.947	1048.66451
448.439	990.73514
448.931	955.58636
449.424	1001.83169
449.916	973.75504
450.408	951.61942
450.9	843.69399
451.392	820.7562
451.884	915.68972
452.375	791.72236
452.867	817.65722
453.358	752.60047
453.849	797.56011
454.341	766.62408
454.832	777.57886
455.323	673.67217
455.814	758.67545
456.304	706.65321
456.795	734.66778
457.285	821.71365
457.776	771.7314
458.266	715.71918
458.756	744.77965
459.247	656.68697
459.737	666.70145
460.226	629.61851
460.716	602.67392
461.206	587.67912
461.695	609.76361
462.185	630.71352
462.674	626.69443
463.163	572.61328
463.653	592.58072
464.142	556.68748
464.63	605.77082
465.119	517.61859
465.608	466.57069
466.096	512.58305
466.585	546.67988
467.073	549.72602
467.561	516.69767
468.05	520.67447
468.538	520.73655
469.026	497.68591
469.513	462.5384
470.001	431.56632
470.489	450.626
470.976	516.69124
471.463	450.69175
471.951	398.63278
472.438	403.58354
472.925	366.53306
473.412	450.70484
473.899	363.53442
474.385	342.55589
474.872	346.52268
475.359	350.5657
475.845	407.52466
476.331	378.53626
476.817	397.64987
477.303	336.5265
477.789	278.46662
478.275	252.44153
478.761	309.52137
479.247	271.42623
479.732	280.49447
480.218	252.47928
480.703	268.48218
481.188	287.43053
481.673	254.41841
482.158	174.2647
482.643	288.54428
483.128	238.39401
483.612	244.42054
484.097	276.50474
484.581	248.43086
485.066	173.32077
485.55	161.26571
486.034	172.28001
486.518	156.27994
487.002	104.19876
487.486	150.285
487.969	138.26348
488.453	124.24975
488.936	180.31321
489.42	177.30448
489.903	179.35895
490.386	-292.42049
490.869	213.36113
491.352	116.23159
491.835	168.27319
492.318	132.23748
492.8	144.23587
493.283	157.32182
493.765	122.24391
494.247	172.32585
494.73	121.21663
495.212	112.22433
495.694	92.17582
496.175	54.1053
496.657	59.11705
497.139	221.30226
497.62	29.05724
498.102	95.19553
498.583	103.21581
499.064	85.15611
499.545	93.17631
500.026	116.21406
500.507	103.19909
500.988	120.24937
501.469	70.14754
501.949	95.19843
502.43	55.10978
502.91	102.17401
503.39	128.27027
503.87	94.18488
504.35	151.29832
504.83	150.2707
505.31	162.32583
505.79	187.3684
506.269	208.40118
506.749	173.32558
507.228	169.32823
507.707	237.42651
508.187	262.51409
508.666	259.51889
509.145	205.39416
509.623	284.54067
510.102	351.68368
510.581	418.80354
511.059	400.79674
511.538	445.91956
512.016	447.84047
512.494	538.00923
512.972	539.98958
513.45	571.99098
513.928	618.12885
514.406	599.07945
514.884	766.45345
515.361	759.32316
515.839	790.28235
516.316	847.45291
516.793	909.64877
517.27	1006.68748
517.747	986.77473
518.224	1008.5873
518.701	1069.5697
519.178	1038.7565
519.654	1169.83638
520.131	1135.88252
520.607	1132.89967
521.083	1164.72214
521.56	1116.7542
522.036	1104.58635
522.512	1164.9303
522.987	1090.72693
523.463	1077.72917
523.939	1053.78341
524.414	1029.62565
524.89	1008.65319
525.365	888.41614
525.84	866.46222
526.315	817.43352
526.79	853.37059
527.265	780.29666
527.74	700.2867
528.215	672.19739
528.689	669.10524
529.164	672.09028
529.638	613.23374
530.112	560.02373
530.587	561.91239
531.061	554.04187
531.534	505.97712
532.008	528.99988
532.482	498.90715
532.956	423.87645
533.429	419.82623
533.903	471.82992
534.376	435.77047
534.849	386.7313
535.322	410.78778
535.795	374.75431
536.268	317.6345
536.741	401.78962
537.213	380.72063
537.686	305.6201
538.158	307.56783
538.631	357.72217
539.103	310.57438
539.575	328.56384
540.047	295.54072
540.519	319.6388
540.991	278.57719
541.463	322.65242
541.934	310.59132
542.406	267.5364
542.877	294.55453
543.348	284.5799
543.82	292.60571
544.291	313.61285
544.762	303.59973
545.233	308.64718
545.703	293.53814
546.174	363.69461
546.645	290.57548
547.115	301.60499
547.585	332.63083
548.056	293.58483
548.526	383.72827
548.996	411.8017
549.466	433.85745
549.935	396.75244
550.405	484.825
550.875	456.85549
551.344	507.95659
551.814	495.89094
552.283	574.95272
552.752	591.04053
553.221	537.88413
553.69	663.08622
554.159	659.21028
554.628	733.1772
555.096	724.36294
555.565	844.32198
556.033	840.42665
556.502	887.54365
556.97	920.42734
557.438	958.60757
557.906	1106.79954
558.374	1159.7798
558.842	1197.91959
559.31	1301.86547
559.777	1332.08535
560.245	1526.20248
560.712	1633.23441
561.18	1747.13384
561.647	1883.24654
562.114	1963.34334
562.581	2199.77798
563.048	2294.52086
563.514	2475.81441
563.981	2682.52175
564.448	2913.39427
564.914	3091.56527
565.381	3464.33611
565.847	3613.43819
566.313	3865.28962
566.779	4102.97996
567.245	4417.02525
567.711	4640.04151
568.176	4986.43965
568.642	5340.9435
569.108	5797.60245
569.573	6091.28156
570.038	6517.69875
570.504	6876.97771
570.969	7301.6029
571.434	7762.42626
571.899	8262.16591
572.363	8656.69942
572.828	9239.90477
573.293	9593.82319
573.757	10138.52888
574.222	10699.84404
574.686	11109.69888
575.15	11654.073
575.614	11926.88554
576.078	12512.34101
576.542	12943.63411
577.006	13188.60816
577.469	13619.68246
577.933	13990.34271
578.396	14169.92247
578.86	14566.67106
579.323	14740.18633
579.786	14948.86137
580.249	14981.31319
580.712	15164.78719
581.175	15057.60219
581.637	15213.28411
582.1	15249.51243
582.563	15296.3631
583.025	15235.68723
583.487	15154.07335
583.95	14998.46024
584.412	14860.31283
584.874	14874.0554
585.336	14625.08855
585.797	14388.31705
586.259	14227.43809
586.721	13879.57738
587.182	13624.38408
587.643	13231.72003
588.105	12927.99587
588.566	12815.46173
589.027	12391.24378
589.488	12009.33202
589.949	11802.65087
590.41	11398.08483
590.87	11212.97713
591.331	10920.9133
591.791	10569.10156
592.252	10128.49959
592.712	10029.02071
593.172	9602.86805
593.632	9403.35129
594.092	9067.51737
594.552	8714.78734
595.011	8501.45168
595.471	8251.05648
595.931	7905.63185
596.39	7642.59903
596.849	7542.44346
597.308	7234.04797
597.768	7089.63221
598.227	6949.35368
598.685	6651.11855
599.144	6524.17925
599.603	6428.25922
600.062	6168.70419
600.52	6069.9927
600.978	5861.40118
601.437	5800.23492
601.895	5643.88379
602.353	5556.1611
602.811	5462.18885
603.269	5363.6695
603.727	5360.66831
604.184	5019.46609
604.642	5068.96674
605.099	4965.68602
605.557	4940.01633
606.014	4852.30764
606.471	4722.24724
606.928	4740.31635
607.385	4639.09471
607.842	4743.70304
608.299	4649.88804
608.755	4582.1159
609.212	4557.63456
609.668	4510.61451
610.125	4546.17512
610.581	4500.15658
611.037	4502.9201
611.493	4397.18098
611.949	4308.30146
612.405	4390.25116
612.861	4345.20969
613.316	4214.3244
613.772	4259.08049
614.227	4139.29851
614.683	4214.74798
615.138	4132.25891
615.593	4062.26303
616.048	4137.16769
616.503	4124.62821
616.958	3992.79208
617.412	4032.41552
617.867	3941.04681
618.321	3908.76764
618.776	3875.13671
619.23	3763.52295
619.684	3651.37887
620.138	3612.56984
620.592	3435.8791
621.046	3441.70046
621.5	3353.91712
621.954	3294.5367
622.407	3243.49102
622.861	3136.98473
623.314	3134.64835
623.768	3069.77547
624.221	2916.02154
624.674	2886.75433
625.127	2835.84628
625.58	2830.74702
626.033	2746.60308
626.485	2661.96655
626.938	2673.96324
627.39	2604.84635
627.843	2496.81581
628.295	2451.81012
628.747	2414.93666
629.199	2289.70759
629.651	2334.71713
630.103	2257.7387
630.555	2236.42236
631.006	2221.84857
631.458	2086.81684
631.909	2153.7622
632.361	2026.75842
632.812	1929.66291
633.263	1966.4369
633.714	1964.42088
634.165	1820.80613
634.616	1804.72018
635.067	1823.49454
635.518	1796.73987
635.968	1813.16067
636.419	1686.34297
636.869	1684.65114
637.319	1598.47574
637.769	1582.35605
638.219	1623.6277
638.669	1507.50227
639.119	1524.60584
639.569	1496.53599
640.019	1470.38399
640.468	1442.25254
640.918	1453.50152
641.367	1348.17745
641.816	1416.23833
642.265	1359.27837
642.714	1376.29894
643.163	1340.24451
643.612	1214.20615
644.061	1296.97474
644.51	1237.10422
644.958	1222.9992
645.406	1237.23736
645.855	1244.32119
646.303	1301.26101
646.751	1140.99115
647.199	1257.1327
647.647	1142.02368
648.095	1153.02903
648.543	1172.80041
648.99	1115.08339
649.438	1128.07001
649.885	1107.169
650.333	1098.61107
650.78	1097.09094
651.227	1114.13416
651.674	1108.96853
652.121	1025.00895
652.568	1052.04313
653.015	1077.18926
653.461	1006.93008
653.908	1067.97328
654.354	997.93251
654.801	946.81305
655.247	984.73774
655.693	940.04207
656.139	896.78727
656.585	959.8879
657.031	874.69338
657.477	854.528
657.922	872.67101
658.368	898.85664
658.813	892.73077
659.259	879.76588
659.704	815.60785
660.149	806.5949
660.594	805.6282
661.039	821.58032
661.484	831.68851
661.929	801.59867
662.373	798.73058
662.818	744.6045
663.262	723.51487
663.707	752.65912
664.151	752.59545
664.595	715.506
665.039	733.59527
665.483	713.59627
665.927	710.46369
666.371	589.21856
666.814	684.44095
667.258	615.29684
667.701	709.33432
668.145	717.57097
668.588	578.28289
669.031	647.34829
669.474	618.33367
669.917	607.2037
670.36	592.32597
670.803	640.3812
671.245	572.08529
671.688	589.30002
672.13	496.01966
672.573	575.32923
673.015	573.24779
673.457	514.02348
673.899	524.16481
674.341	538.18707
674.783	504.11101
675.225	488.10886
675.666	480.06508
676.108	512.01949
676.549	487.06742
676.991	491.9996
677.432	449.83052
677.873	473.01488
678.314	527.15475
678.755	416.95204
679.196	439.94008
679.637	458.04394
680.078	476.03471
680.518	491.06036
680.959	389.88221
681.399	432.00356
681.839	386.89049
682.28	389.9083
682.72	388.84039
683.16	402.94545
683.6	441.94355
684.039	391.77102
684.479	360.84143
684.919	339.74602
685.358	404.97008
685.798	369.92041
686.237	344.79678
686.676	348.77369
687.115	337.75903
687.554	317.72421
687.993	349.73865
688.432	301.66435
688.871	325.70801
689.309	319.73259
689.748	339.68042
690.186	384.87211
690.625	324.72961
691.063	284.65966
691.501	313.74549
691.939	321.76923
692.377	297.69978
692.815	265.6159
693.253	282.65812
693.69	266.56952
694.128	233.55178
694.565	269.62396
695.003	291.71431
695.44	256.5864
695.877	257.58455
696.314	298.6212
696.751	335.73475
697.188	282.62828
697.625	321.71116
698.061	211.49756
698.498	276.64918
698.934	261.61235
699.371	234.53902
699.807	241.55769
700.243	221.52175
700.679	259.57262
701.115	255.5868
701.551	260.59723
701.987	237.52311
702.422	228.53065
702.858	256.59463
703.294	225.50119
703.729	281.66723
704.164	215.50857
704.599	261.56715
705.035	228.50061
705.47	224.53385
705.904	218.49896
706.339	282.6379
706.774	166.38605
707.209	180.411
707.643	240.56385
708.078	212.50739
708.512	178.43947
708.946	209.49342
709.38	206.48096
709.814	241.53972
710.248	222.53111
710.682	173.40764
711.116	162.38299
711.549	163.41663
711.983	240.54268
712.416	185.43304
712.85	184.45311
713.283	208.48467
713.716	213.52616
714.149	233.54474
714.582	247.54244
715.015	187.46262
715.448	198.49171
715.881	210.45391
716.313	224.51516
716.746	175.40803
717.178	223.52586
717.61	185.46319
718.043	186.45787
718.475	195.46626
718.907	236.585
719.339	184.4125
719.77	180.42175
720.202	173.43268
720.634	125.30357
721.065	191.44708
721.497	154.37504
721.928	167.40601
722.359	61.14853
722.79	102.24497
723.221	167.41647
723.652	195.49596
724.083	153.34364
724.514	145.33235
724.945	177.41188
725.375	114.26491
725.806	165.40849
726.236	169.42862
726.666	187.43755
727.096	150.36598
727.526	119.30161
727.956	117.26656
728.386	182.44289
728.816	75.19083
729.246	126.30548
729.675	114.28043
730.105	150.36707
730.534	112.26284
730.964	171.42799
731.393	193.47326
731.822	146.37049
732.251	150.37794
732.68	180.4201
733.109	89.22035
733.537	143.34363
733.966	145.35793
734.395	163.37376
734.823	158.35494
735.251	154.36844
735.68	147.3662
736.108	107.2709
736.536	128.30179
736.964	126.29234
737.392	137.34129
737.82	175.41572
738.247	169.40116
738.675	146.34757
739.102	91.22801
739.53	122.30959
739.957	173.43955
740.384	175.42737
740.811	151.37998
741.238	158.38248
741.665	121.28057
742.092	197.46383
742.519	123.30352
742.945	112.26919
743.372	93.23101
743.798	122.31266
744.225	91.21751
744.651	101.2538
745.077	114.28405
745.503	116.28303
745.929	122.29244
746.355	163.40207
746.781	122.30177
747.207	52.12346
747.632	96.23449
748.058	107.26714
748.483	125.28778
748.908	86.21459
749.334	109.26788
749.759	89.21102
750.184	89.21298
750.609	101.24877
751.033	117.27698
751.458	118.26541
751.883	126.31143
752.307	131.30748
752.732	73.18324
753.156	115.28367
753.58	158.37252
754.005	125.31625
754.429	104.24502
754.853	106.26258
755.277	136.32065
755.7	118.29219
756.124	118.29209
756.548	84.2002
756.971	119.29019
757.394	112.28794
757.818	95.24462
758.241	119.30096
758.664	113.28477
759.087	37.08396
759.51	98.24427
759.933	84.20304
760.356	103.26393
760.778	119.29192
761.201	146.3529
761.623	116.28134
762.046	101.24049
762.468	147.35109
762.89	122.30044
763.312	128.31149
763.734	105.25299
764.156	101.2496
764.578	143.32751
765	93.22755
765.421	99.25118
765.843	96.25161
766.264	152.36449
766.686	147.36633
767.107	76.18523
767.528	39.09941
767.949	88.22419
768.37	120.29366
768.791	94.22807
769.212	67.16909
769.632	79.18507
770.053	105.2758
770.473	88.21471
770.894	120.29954
771.314	150.35572
771.734	67.15745
772.154	93.23889
772.575	113.26192
772.994	72.1648
773.414	146.3481
773.834	56.14105
774.254	113.27597
774.673	111.26997
775.093	103.25454
775.512	83.20496
775.931	107.27061
776.351	99.24564
776.77	78.19131
777.189	82.19581
777.607	83.21223
778.026	92.22923
778.445	61.1534
778.864	133.33864
779.282	70.16933
779.701	97.24427
780.119	81.20493
780.537	68.17036
780.955	117.29633
781.373	70.17385
781.791	61.13819
782.209	117.26893
782.627	73.1926
783.045	109.25024
783.462	87.22223
783.88	73.18915
784.297	59.14917
784.715	43.11115
785.132	66.16056
785.549	91.22744
785.966	101.25334
786.383	74.1825
786.8	99.22983
787.217	109.25754
787.633	76.18992
788.05	147.34584
788.466	80.18928
788.883	74.18892
789.299	137.32696
789.715	98.23777
790.131	119.29408
790.547	100.24907
790.963	108.26694
791.379	120.30127
791.795	67.15376
792.21	105.24482
792.626	91.21585
793.041	109.26778
793.457	73.1808
793.872	93.21846
794.287	35.0843
794.702	75.18514
795.117	79.1963
795.532	111.27652
795.947	130.31043
796.362	131.31036
796.776	103.24082
797.191	115.2798
797.605	66.15543
798.02	75.18276
798.434	106.23539
798.848	85.20913
799.262	99.24465
799.676	121.29319
800.09	110.26919
800.504	100.2419
800.918	66.15349
801.331	97.25341
801.745	56.12941
802.158	78.19498
802.572	87.21089
802.985	120.28809
803.398	119.28182
803.811	132.33616
804.224	91.22604
804.637	100.23733
805.05	125.28743
805.462	122.29745
805.875	57.1481
806.288	81.19524
806.7	81.2034
807.112	100.2311
807.525	96.23615
807.937	82.20246
808.349	62.15572
808.761	63.1554
809.173	83.20097
809.584	110.27029
809.996	88.21495
810.408	59.15256
810.819	104.2434
811.231	84.21648
811.642	89.21159
812.053	188.43738
812.464	177.41269
812.875	167.41964
813.286	79.20307
813.697	158.36396
814.108	119.28845
814.519	114.25242
814.929	143.36024
815.34	87.21057
815.75	75.19043
816.16	80.19919
816.571	75.19466
816.981	105.24665
817.391	97.23327
817.801	36.08999
818.211	83.19763
818.62	97.23247
819.03	90.21992
819.44	124.3209
819.849	120.29975
820.259	94.23964
820.668	54.13323
821.077	76.18854
821.486	122.29122
821.895	112.2748
822.304	88.23236
822.713	79.18659
823.122	100.24826
823.531	111.26125
823.939	93.22569
824.348	112.27031
824.756	127.31488
825.164	106.26507
825.573	96.23972
825.981	80.1981
826.389	147.3642
826.797	63.15797
827.205	83.19009
827.612	130.3173
828.02	77.1806
828.428	51.13027
828.835	63.16588
829.243	94.22309
829.65	76.18868
830.057	89.21525
830.464	93.2256
830.871	114.27077
831.278	108.25918
831.685	70.15635
832.092	95.23149
832.499	148.31867
832.905	115.28867
833.312	95.21574
833.718	83.20624
834.124	112.25388
834.531	93.23336
834.937	120.30506
835.343	102.2446
835.749	99.23001
836.155	86.22433
836.561	132.32074
836.966	69.1687
837.372	116.29259
837.777	77.1914
838.183	128.28129
838.588	52.12943
838.993	116.27986
839.399	46.11286
839.804	58.14152
840.209	88.223
840.613	79.1754
841.018	117.29348
841.423	72.1844
841.828	90.22653
842.232	118.28952
842.637	93.21829
843.041	83.21193
843.445	79.19759
843.849	73.1804
844.253	121.28457
844.657	51.12866
845.061	80.18105
845.465	84.20212
845.869	83.19223
846.272	64.15581
846.676	137.32683
847.079	71.18021
847.483	92.22831
847.886	118.28425
848.289	34.0911
848.692	104.26139
849.095	116.27583
849.498	133.33289
849.901	77.17621
850.304	87.207
850.707	98.24825
851.109	113.28334
851.512	92.22481
851.914	48.1212
852.316	75.18921
852.718	56.14462
853.121	68.16641
853.523	84.19551
853.925	52.13578
854.326	48.12025
854.728	76.19484
855.13	54.13936
855.531	29.06971
855.933	106.25235
856.334	81.20113
856.736	32.07212
857.137	67.1556
857.538	68.17066
857.939	74.1823
858.34	127.30564
858.741	87.22628
859.142	67.16076
859.542	92.24129
859.943	92.22723
860.343	52.12891
860.744	123.29658
861.144	97.23495
861.544	50.12036
861.945	101.25544
862.345	57.13947
862.745	92.22723
863.145	127.29972
863.544	92.23106
863.944	106.24817
864.344	139.34022
864.743	145.35411
865.143	89.22733
865.542	101.23234
865.941	91.22389
866.34	121.28645
866.74	76.2033
867.139	66.15779
867.537	118.29742
867.936	65.15626
868.335	99.25003
868.734	96.24362
869.132	62.14396
869.531	102.24469
869.929	32.07333
870.327	117.2773
870.726	103.25473
871.124	119.27484
871.522	61.15527
871.92	80.1965
872.318	87.21152
872.715	126.308
873.113	92.22271
873.511	49.12225
873.908	20.05081
874.306	86.21272
874.703	63.15746
875.1	109.27626
875.497	96.22845
875.894	29.0714
876.291	78.19067
876.688	79.20293
877.085	90.21459
877.482	63.15752
877.878	48.11572
878.275	67.16987
878.671	124.27238
879.068	101.24178
879.464	101.24206
879.86	74.17441
880.256	87.2135
880.652	84.21256
881.048	106.26027
881.444	110.25915
881.84	85.2149
882.236	101.25188
882.631	63.15443
883.027	105.25193
883.422	67.17096
883.817	29.07321
884.213	77.19682
884.608	38.09348
885.003	34.08231
885.398	74.18458
885.793	80.19991
886.188	17.04255
886.582	130.32907
886.977	92.21683
887.371	69.17407
887.766	48.11951
888.16	99.2451
888.554	122.298
888.949	89.22212
889.343	115.27781
889.737	27.07226
890.131	67.1677
890.525	79.20115
890.918	61.15334
891.312	79.18818
891.706	73.19091
892.099	129.32392
892.492	121.25745
892.886	52.1273
893.279	70.17783
893.672	81.20522
894.065	62.15504
894.458	81.20274
894.851	110.26679
895.244	78.19836
895.637	80.19177
896.029	77.18749
896.422	96.23275
896.814	44.10959
897.206	29.0694
897.599	142.34556
897.991	66.15923
898.383	87.20429
898.775	99.22145
899.167	46.10745
899.559	70.17669
899.951	97.22679
900.342	107.26955
900.734	-4.01003
901.125	65.17022
901.517	71.17372
901.908	89.212
902.299	55.13442
902.69	112.2613
903.082	107.25654
903.473	69.16474
903.863	84.21317
904.254	64.14826
904.645	104.2563
905.036	51.12353
905.426	122.27554
905.817	78.19053
906.207	43.10266
906.597	45.10542
906.987	87.22418
907.378	67.16903
907.768	99.25969
908.158	82.19888
908.547	38.09841
908.937	102.25948
909.327	74.17901
909.717	133.33289
910.106	73.17469
910.495	96.23781
910.885	94.23634
911.274	87.2161
911.663	94.23685
912.052	128.31149
912.441	63.1599
912.83	93.2118
913.219	59.15424
913.608	88.21415
913.997	48.12042
914.385	103.24374
914.774	97.23424
915.162	42.10029
915.55	86.20678
915.939	65.16369
916.327	58.14462
916.715	71.18034
917.103	143.3461
917.491	102.25008
917.878	130.31506
918.266	72.18607
918.654	75.19083
919.041	42.10982
919.429	55.12975
919.816	103.25873
920.203	82.19776
920.591	102.25063
920.978	87.21168
921.365	93.2423
921.752	70.16633
922.139	90.19387
922.525	62.14862
922.912	80.1941
923.299	58.14399
923.685	70.18203
924.072	94.21498
924.458	41.10177
924.844	82.20179
925.231	103.23732
925.617	11.02818
926.003	109.27577
926.389	47.11866
926.774	123.30775
927.16	80.19767
927.546	50.12765
927.931	94.23277
928.317	123.27932
928.702	121.28246
929.088	75.17659
929.473	33.08423
929.858	9.02193
930.243	105.24944
930.628	66.16013
931.013	77.18994
931.398	124.28108
931.783	117.30461
932.167	64.1561
932.552	96.23859
932.937	95.23391
933.321	75.18738
933.705	51.12857
934.09	96.24067
934.474	90.2122
934.858	64.16563
935.242	40.09292
935.626	84.21377
936.009	73.19344
936.393	101.25471
936.777	62.15845
937.16	78.202
937.544	73.17128
937.927	61.1545
938.311	108.26086
938.694	101.26485
939.077	51.12209
939.46	131.31694
939.843	108.22253
940.226	97.24681
940.609	92.20948
940.991	83.21007
941.374	59.14398
941.757	76.18668
942.139	70.15661
942.522	126.29349
942.904	64.15347
943.286	84.21218
943.668	98.25177
944.05	106.25844
944.432	44.10872
944.814	110.26799
945.196	16.03924
945.578	73.17275
945.959	55.1288
946.341	137.33096
946.722	62.14522
947.104	102.24142
947.485	68.15771
947.866	62.15588
948.247	72.18096
948.628	101.24409
949.009	93.23638
949.39	78.19322
949.771	83.19185
950.152	55.13487
950.532	13.0322
950.913	100.23898
951.293	48.12971
951.674	65.15679
952.054	63.15575
952.434	101.24841
952.814	101.23799
953.194	114.29512
953.574	93.22729
953.954	68.16095
954.334	64.15912
954.714	31.07582
955.093	73.17875
955.473	60.14977
955.853	70.18059
956.232	77.21014
956.611	127.30019
956.99	98.24418
957.37	81.2053
957.749	69.16404
958.128	82.20543
958.506	83.21409
958.885	104.25998
959.264	64.15645
959.643	98.22088
960.021	46.11408
960.4	60.13573
960.778	151.36505
961.156	53.1328
961.535	76.17626
961.913	57.13322
962.291	30.07724
962.669	50.12666
963.047	88.22308
963.424	67.17048
963.802	72.17633
964.18	133.33156
964.557	104.23699
964.935	106.24846
965.312	79.20469
965.69	111.27491
966.067	90.21754
966.444	63.15489
966.821	84.21528
967.198	107.25683
967.575	106.25796
967.952	99.2311
968.329	102.24581
968.705	137.28832
969.082	82.20912
969.458	36.08659
969.835	132.31641
970.211	88.22434
970.587	107.26365
970.963	85.21673
971.339	38.09943
971.715	71.17662
972.091	77.18868
972.467	119.29311
972.843	39.09698
973.219	122.28899
973.594	41.1074
973.97	126.29557
974.345	75.17865
974.721	82.19738
975.096	81.19487
975.471	76.1794
975.846	104.2473
976.221	49.12446
976.596	64.15301
976.971	109.2662
977.346	107.24634
977.72	90.22766
978.095	72.18536
978.469	97.22946
978.844	107.26627
979.218	61.14592
979.593	76.18121
979.967	83.20097
980.341	64.14696
980.715	94.23498
981.089	89.22123
981.463	83.18933
981.837	82.19918
982.21	105.24173
982.584	93.2228
982.957	71.17662
983.331	84.19728
983.704	70.17137
984.078	79.19365
984.451	132.32483
984.824	64.15546
985.197	142.33895
985.57	97.24121
985.943	102.24952
986.316	101.24583
986.688	68.16344
987.061	109.25255
987.434	88.22782
987.806	93.22374
988.179	72.16917
988.551	99.24895
988.923	86.21038
989.295	99.24519
989.667	27.06478
990.039	74.18203
990.411	105.23903
990.783	97.22126
991.155	55.13202
991.527	117.28456
991.898	50.12458
992.27	97.23786
992.641	90.22417
993.012	96.22388
993.384	92.21767
993.755	59.15018
994.126	96.22889
994.497	29.07146
994.868	95.21626
995.239	123.294
995.61	57.14324
995.98	75.18132
996.351	53.13117
996.722	78.1799
997.092	54.12776
997.462	60.13987
997.833	125.29202
998.203	72.17384
998.573	77.19078
998.943	83.19337
999.313	92.21868
999.683	55.13187
1000.053	62.14231
1000.423	57.13832
1000.792	97.24933
1001.162	74.1813
1001.531	107.26102
1001.901	91.22513
1002.27	112.24716
1002.639	73.18574
1003.009	112.26314
1003.378	75.1909
1003.747	87.20405
1004.116	84.19967
1004.485	93.22042
1004.853	87.21894
1005.222	114.28415
1005.591	76.17954
1005.959	65.14599
1006.328	56.12586
1006.696	64.15394
1007.064	86.2149
1007.433	124.3057
1007.801	103.25033
1008.169	90.22563
1008.537	107.2341
1008.905	36.08409
1009.273	128.31161
1009.64	56.13342
1010.008	110.25915
1010.375	114.27347
1010.743	120.27323
1011.11	98.22971
1011.478	92.22589
1011.845	94.21913
1012.212	74.16665
1012.579	68.16635
1012.946	119.27943
1013.313	111.26105
1013.68	99.22026
1014.047	60.14267
1014.414	47.11105
1014.78	58.14389
1015.147	67.16149
1015.513	71.17036
1015.88	106.26832
1016.246	95.23253
1016.612	106.23989
1016.978	92.22364
1017.344	102.24961
1017.71	129.30987
1018.076	107.24948
1018.442	60.15404
1018.808	77.19147
1019.174	58.14525
1019.539	137.30985
1019.905	64.15049
1020.27	92.22523
1020.636	121.28612
1021.001	117.27645
1021.366	57.13666
1021.731	73.18692
1022.096	53.13357
1022.461	57.13468
1022.826	84.19828
1023.191	76.19845
1023.556	117.27054
1023.92	79.19315
1024.285	111.26775
1024.649	78.1901
1025.014	67.16539
1025.378	42.10571
1025.742	117.28691
1026.107	70.15764
1026.471	107.24693
1026.835	87.21413
1027.199	27.06525
1027.562	96.22106
1027.926	124.29893
1028.29	29.07363
1028.654	102.23215
1029.017	82.2003
1029.381	80.18994
1029.744	61.15521
1030.107	117.27312
1030.471	98.23241
1030.834	106.23833
1031.197	129.30598
1031.56	51.12027
1031.923	58.14969
1032.286	106.24613
1032.648	110.25996
1033.011	71.16222
1033.374	80.18686
1033.736	75.19627
1034.099	107.2579
1034.461	39.09867
1034.823	83.20534
1035.185	65.1631
1035.548	78.18875
1035.91	78.18576
1036.272	78.17645
1036.634	144.34596
1036.995	114.2645
1037.357	57.13843
1037.719	80.19337
1038.08	79.18644
1038.442	89.20956
1038.803	82.19559
1039.165	84.21059
1039.526	77.18503
1039.887	87.2066
1040.248	44.10848
1040.609	97.23751
1040.97	107.25859
1041.331	98.24586
1041.692	73.16954
1042.053	71.16091
1042.413	73.16927
1042.774	134.32059
1043.134	107.25184
1043.495	78.19498
1043.855	76.18336
1044.215	57.14122
1044.576	46.11001
1044.936	97.22019
1045.296	124.30514
1045.656	102.24776
1046.016	117.27869
1046.375	56.13562
1046.735	33.07503
1047.095	113.26109
1047.454	114.23807
1047.814	101.24031
1048.173	111.26196
1048.533	87.19773
1048.892	29.06985
1049.251	114.2827
1049.61	88.21503
1049.969	91.21268
1050.328	88.18915
1050.687	86.20772
1051.046	86.20788
1051.405	92.22698
1051.763	71.16248
1052.122	60.14928
1052.48	81.19738
1052.839	91.21226
1053.197	58.13622
1053.555	124.27834
1053.914	111.26825
1054.272	83.1993
1054.63	89.2159
1054.988	68.16089
1055.345	69.1479
1055.703	112.26622
1056.061	81.20712
1056.419	69.17792
1056.776	121.28933
1057.134	31.072
1057.491	96.23824
1057.848	92.22715
1058.206	63.1477
1058.563	116.25202
1058.92	97.22135
1059.277	79.19372
1059.634	121.28057
1059.991	118.27886
1060.348	53.11963
1060.704	27.06459
1061.061	137.31263
1061.418	88.21175
1061.774	97.23725
1062.131	48.12687
1062.487	82.1904
1062.843	68.16888
1063.199	57.14148
1063.555	104.23824
1063.911	48.1212
1064.267	123.25224
1064.623	29.07067
1064.979	119.27801
1065.335	147.34463
1065.691	127.29972
1066.046	81.17684
1066.402	70.15829
1066.757	78.19576
1067.112	115.27865
1067.468	56.13198
1067.823	38.09151
1068.178	96.23003
1068.533	99.23763
1068.888	85.20162
1069.243	75.18412
1069.598	56.13582
1069.952	50.11251
1070.307	60.14814
1070.662	77.18172
1071.016	87.19332
1071.371	100.22502
1071.725	133.31291
1072.079	81.19354
1072.434	77.18602
1072.788	85.20092
1073.142	111.26977
1073.496	79.18623
1073.85	87.20013
1074.203	52.12602
1074.557	75.19847
1074.911	108.25474
1075.265	70.16196
1075.618	88.21319
1075.971	117.27452
1076.325	93.23437
1076.678	61.13909
1077.031	69.15542
1077.385	108.23484
1077.738	78.17494
1078.091	51.11587
1078.444	87.20037
1078.796	44.108
1079.149	115.28242
1079.502	56.13204
1079.855	92.21261
1080.207	77.18861
1080.56	42.10862
1080.912	110.26458
1081.264	122.28954
1081.617	63.15306
1081.969	48.12103
1082.321	150.35915
1082.673	37.0846
1083.025	69.16297
1083.377	-114.25316
1083.728	124.28485
1084.08	96.23746
1084.432	71.17042
1084.783	145.33315
1085.135	64.15987
1085.486	19.04371
1085.838	88.21503
1086.189	107.25673
1086.54	104.24559
1086.891	63.15882
1087.242	73.17682
1087.593	122.29278
1087.944	85.19084
1088.295	120.26869
1088.646	27.06567
1088.996	51.12274
1089.347	71.1734
1089.698	58.13675
1090.048	53.13747
1090.398	82.18882
1090.749	95.22516
1091.099	51.12811
1091.449	87.21508
1091.799	112.27703
1092.149	38.09279
1092.499	94.22721
1092.849	75.18962
1093.199	79.1968
1093.548	91.21676
1093.898	66.16451
1094.248	88.22442
1094.597	68.17287
1094.947	94.24871
1095.296	101.24685
1095.645	111.28542
1095.994	114.27024
1096.343	109.27114
1096.692	37.09732
1097.041	64.17273
1097.39	63.15752
1097.739	115.29529
1098.088	100.26547
1098.437	33.08686
1098.785	114.30384
1099.134	102.26824
1099.482	52.14284
1099.83	84.21926
1100.179	64.16637
1100.527	63.16688
1100.875	38.10058
1101.223	78.20596
1101.571	63.17358
1101.919	62.1615
1102.267	82.22952
1102.615	13.04175
1102.962	13.04184
1103.31	14.04494
1103.658	23.07398
