Data from N2 R15 sample 2_Subt2__0__15-35-57-492.txt Node

Date: Tue Sep 02 15:35:57 PDT 2025
User: uwsun
Spectrometer: HDX01956
Trigger mode: 0
Integration Time (sec): 5.000000E-1
Scans to average: 1
Nonlinearity correction enabled: true
Boxcar width: 0
Storing dark spectrum: false
XAxis mode: Wavelengths
Number of Pixels in Spectrum: 2068
>>>>>Begin Spectral Data<<<<<
194.03	281.75418
194.578	306.93034
195.127	286.85815
195.676	269.81167
196.225	380.9432
196.773	416.06124
197.321	575.3921
197.87	733.5649
198.418	742.55711
198.966	702.49639
199.513	709.42595
200.061	648.34708
200.609	754.63511
201.156	702.20971
201.704	661.36102
202.251	684.48949
202.798	758.58862
203.345	804.58204
203.892	755.52626
204.438	834.56119
204.985	714.34276
205.532	738.57456
206.078	828.59725
206.624	768.49622
207.17	802.45835
207.716	730.41534
208.262	791.18823
208.808	732.43274
209.354	719.40095
209.899	839.68466
210.445	802.56774
210.99	792.49703
211.535	841.53909
212.08	806.46787
212.625	807.6047
213.17	816.64407
213.715	703.22853
214.259	821.49411
214.804	762.51194
215.348	801.43407
215.892	797.5098
216.436	846.52687
216.98	823.41389
217.524	793.47517
218.068	817.63667
218.612	780.57794
219.155	787.46182
219.698	747.42388
220.242	764.53918
220.785	741.38646
221.328	689.4073
221.871	733.51961
222.414	766.5418
222.956	649.27813
223.499	693.25562
224.041	712.34556
224.583	692.20704
225.126	672.19616
225.668	643.28649
226.21	650.35005
226.751	689.20148
227.293	689.27629
227.835	679.35299
228.376	794.45401
228.918	703.458
229.459	649.32849
230	715.37334
230.541	732.35239
231.082	711.39518
231.622	702.30656
232.163	680.34022
232.704	737.47213
233.244	646.31966
233.784	728.44976
234.324	657.15279
234.864	671.22866
235.404	776.47103
235.944	669.29534
236.484	688.40748
237.023	722.36649
237.563	734.34798
238.102	699.33288
238.641	727.49106
239.18	657.24114
239.719	697.42624
240.258	742.32173
240.797	746.42025
241.335	735.44913
241.874	697.03962
242.412	742.42152
242.95	718.36752
243.488	761.3686
244.026	706.29645
244.564	748.19354
245.102	749.31943
245.64	771.47967
246.177	730.2936
246.715	744.42811
247.252	690.27337
247.789	811.1521
248.326	725.38121
248.863	699.20934
249.4	775.37816
249.936	712.14111
250.473	778.41749
251.009	694.26223
251.546	739.27262
252.082	723.24367
252.618	785.34916
253.154	751.42321
253.69	722.28072
254.226	708.34713
254.761	769.34204
255.297	751.27407
255.832	746.38999
256.367	738.37233
256.903	799.34257
257.438	810.47815
257.972	762.31687
258.507	712.27865
259.042	764.27906
259.576	702.17114
260.111	763.37992
260.645	808.33376
261.179	748.36272
261.713	774.32418
262.247	840.48053
262.781	748.19694
263.315	728.40877
263.849	758.4942
264.382	810.43347
264.915	780.40966
265.449	743.40871
265.982	820.42714
266.515	836.56725
267.048	780.24902
267.58	829.3742
268.113	773.26841
268.646	841.5933
269.178	776.32121
269.71	833.36869
270.243	811.41552
270.775	835.6435
271.307	829.53845
271.838	902.62154
272.37	775.48521
272.902	834.43704
273.433	788.30496
273.965	824.5394
274.496	816.57407
275.027	813.55516
275.558	844.55741
276.089	780.47143
276.62	866.69542
277.15	840.59256
277.681	802.31504
278.211	844.58461
278.741	780.29239
279.272	804.38448
279.802	798.54224
280.332	817.45677
280.861	852.54947
281.391	808.37585
281.921	780.44987
282.45	857.63314
282.98	878.74889
283.509	803.35592
284.038	808.38324
284.567	884.53882
285.096	873.58012
285.625	852.42995
286.153	883.52535
286.682	870.46264
287.21	843.51873
287.739	819.45207
288.267	846.5292
288.795	881.76341
289.323	796.38891
289.851	866.49868
290.378	864.41625
290.906	841.50894
291.433	887.64385
291.961	869.42725
292.488	853.58858
293.015	908.54331
293.542	787.50824
294.069	872.57871
294.596	913.66275
295.122	920.58734
295.649	931.45417
296.175	886.57888
296.702	950.66448
297.228	978.7065
297.754	983.53575
298.28	957.52097
298.806	928.59778
299.332	935.43761
299.857	944.48953
300.383	965.76831
300.908	915.5791
301.433	951.63532
301.958	1010.6216
302.483	1003.7553
303.008	1016.76836
303.533	979.83991
304.058	1044.69539
304.582	942.55228
305.107	900.70072
305.631	1034.60692
306.155	970.55184
306.679	1042.63638
307.203	1024.60427
307.727	992.61783
308.251	1019.73959
308.775	1042.65053
309.298	1029.65458
309.822	1032.7944
310.345	1115.73599
310.868	1058.68654
311.391	1114.8288
311.914	1037.76001
312.437	1174.70656
312.96	1151.73532
313.482	1008.5937
314.005	1128.86317
314.527	1149.9959
315.049	1188.95517
315.571	1112.53061
316.093	1164.84795
316.615	1169.77525
317.137	1223.58074
317.659	1212.85134
318.18	1186.80177
318.702	1203.70451
319.223	1233.4417
319.744	1228.62232
320.265	1192.76279
320.786	1185.79544
321.307	1253.88569
321.828	1335.70277
322.348	1301.76511
322.869	1252.70847
323.389	1386.01448
323.909	1328.70823
324.43	1362.88551
324.95	1316.66272
325.47	1360.86828
325.989	1377.75707
326.509	1325.5259
327.029	1340.58547
327.548	1460.63634
328.067	1483.83387
328.587	1537.99133
329.106	1448.64605
329.625	1478.14682
330.144	1449.66144
330.662	1506.68261
331.181	1528.72593
331.7	1579.74136
332.218	1563.49885
332.736	1679.75871
333.255	1529.65518
333.773	1625.73862
334.291	1696.96096
334.808	1604.52037
335.326	1706.58303
335.844	1721.61646
336.361	1663.85616
336.879	1773.61399
337.396	1761.70748
337.913	1771.54635
338.43	1807.47131
338.947	1819.6372
339.464	1779.2832
339.981	1802.56967
340.497	1897.74315
341.014	1881.65493
341.53	1906.37621
342.046	1959.64618
342.562	1993.72886
343.078	2012.48517
343.594	2120.52623
344.11	2068.49341
344.626	2106.67473
345.141	2056.30218
345.657	2168.29933
346.172	2071.46648
346.687	2053.27489
347.202	2145.16758
347.717	2126.37034
348.232	2219.52117
348.747	2303.16992
349.261	2174.94854
349.776	2248.21981
350.29	2229.32509
350.805	2340.38936
351.319	2369.11824
351.833	2333.96456
352.347	2356.09697
352.861	2382.02962
353.374	2400.02283
353.888	2487.13108
354.401	2331.96354
354.915	2478.75484
355.428	2428.15106
355.941	2620.81554
356.454	2551.77837
356.967	2643.87899
357.48	2516.81768
357.993	2581.01693
358.505	2557.94505
359.018	2728.87751
359.53	2644.80086
360.042	2832.45724
360.554	2776.77558
361.066	2662.79349
361.578	2753.37503
362.09	2794.64292
362.602	2823.31789
363.113	2858.45083
363.625	2779.35896
364.136	2876.24042
364.647	2798.3119
365.158	3029.2704
365.669	3016.36786
366.18	3004.29845
366.691	3033.04755
367.201	2974.30626
367.712	3009.07455
368.222	2952.09818
368.733	3033.83101
369.243	3149.78378
369.753	3225.88143
370.263	3410.84502
370.773	3215.03117
371.282	3305.77788
371.792	3360.4864
372.301	3478.58384
372.811	3543.78529
373.32	3408.1672
373.829	3617.23861
374.338	3791.98029
374.847	3965.90595
375.356	4031.88044
375.865	4100.62688
376.373	4382.62223
376.882	4520.73886
377.39	4482.64246
377.898	4510.59123
378.407	4758.64901
378.915	4993.8369
379.423	5199.95707
379.93	5369.28915
380.438	5579.65849
380.946	5738.24314
381.453	6108.28573
381.96	6213.20168
382.468	6562.4867
382.975	7217.08265
383.482	7500.93901
383.989	7427.75476
384.495	7713.75406
385.002	8048.56207
385.509	8437.43201
386.015	9150.99489
386.521	9571.97124
387.028	9759.06661
387.534	10207.148
388.04	10638.0325
388.546	10583.42455
389.051	11074.59083
389.557	12023.97157
390.063	13410.05157
390.568	13665.91617
391.073	14040.88498
391.578	14363.70606
392.084	14640.31947
392.589	14911.78022
393.093	15647.46382
393.598	17521.73136
394.103	19214.52036
394.607	21341.16794
395.112	22726.95368
395.616	24090.9457
396.12	25934.80096
396.624	28407.19417
397.128	30740.50611
397.632	34926.69239
398.136	37477.09186
398.639	35474.87807
399.143	32104.15908
399.646	28888.45294
400.15	25083.82847
400.653	20124.16724
401.156	13866.23708
401.659	5169.95759
402.162	1054.15589
402.664	0
403.167	0
403.67	0
404.172	0
404.674	0
405.176	0
405.678	0
406.18	0
406.682	0
407.184	0
407.686	0
408.187	0
408.688	0
409.19	0
409.691	0
410.192	0
410.693	0
411.194	435.30976
411.694	4082.94878
412.195	8864.71461
412.696	12089.80453
413.196	12760.96929
413.696	12863.67595
414.196	13703.56671
414.696	17261.84252
415.196	21764.24417
415.696	29583.19008
416.196	36460.31858
416.695	40057.39798
417.195	41392.74103
417.694	42011.87056
418.194	40756.2772
418.693	37380.89195
419.192	35893.42624
419.691	35930.22259
420.19	35299.38797
420.688	34654.70794
421.187	33379.71529
421.685	31624.57175
422.184	28980.96473
422.682	25398.17265
423.18	20791.01947
423.678	18581.47823
424.176	17223.26028
424.674	16080.96316
425.172	15487.52068
425.669	14726.83498
426.167	13988.685
426.664	12554.81166
427.161	11413.23926
427.659	10476.92996
428.156	9773.87153
428.652	9308.54504
429.149	8710.58249
429.646	8499.87146
430.143	8122.86583
430.639	7477.94192
431.135	7195.53743
431.632	6649.70824
432.128	6274.01336
432.624	5824.78653
433.12	5476.66215
433.616	5507.63481
434.111	5098.97613
434.607	4984.78111
435.103	5106.9011
435.598	4888.73124
436.093	4711.62116
436.588	4398.6171
437.083	4292.6815
437.578	4044.82406
438.073	3728.0942
438.568	3641.29331
439.062	3637.00839
439.557	3462.43154
440.051	3322.41279
440.546	3186.52553
441.04	3109.76966
441.534	3130.01493
442.028	3180.88296
442.522	2921.03129
443.015	2942.79629
443.509	2954.18331
444.002	2761.29209
444.496	2772.9828
444.989	2716.38387
445.482	2648.48161
445.975	2566.20267
446.468	2593.09436
446.961	2607.10375
447.454	2522.33823
447.947	2437.4884
448.439	2341.6921
448.931	2385.40789
449.424	2385.85548
449.916	2354.73893
450.408	2274.51889
450.9	2215.77747
451.392	2196.94635
451.884	2224.69897
452.375	2045.94169
452.867	2069.76572
453.358	2015.72553
453.849	2002.59761
454.341	2025.75982
454.832	1949.66853
455.323	1948.02012
455.814	1897.90556
456.304	1981.91482
456.795	1954.91226
457.285	1939.90498
457.776	1974.99989
458.266	1742.07022
458.756	1810.1561
459.247	1720.09568
459.737	1629.10498
460.226	1731.98144
460.716	1608.15984
461.206	1614.20581
461.695	1641.36751
462.185	1619.19774
462.674	1630.1627
463.163	1496.05899
463.653	1596.95417
464.142	1496.27379
464.63	1497.35521
465.119	1412.17385
465.608	1436.18873
466.096	1336.07563
466.585	1362.23567
467.073	1387.34619
467.561	1354.35106
468.05	1374.29189
468.538	1279.39463
469.026	1270.33364
469.513	1241.05025
470.001	1180.1762
470.489	1175.26854
470.976	1199.25733
471.463	1161.42173
471.951	1116.4191
472.438	1107.26405
472.925	1092.24531
473.412	1043.35889
473.899	1050.23033
474.385	968.30191
474.872	947.17891
475.359	993.31952
475.845	998.03504
476.331	1015.15875
476.817	906.27521
477.303	899.1827
477.789	876.23355
478.275	923.336
478.761	863.23946
479.247	867.1327
479.732	779.19759
480.218	826.35226
480.703	819.26672
481.188	774.99411
481.673	716.02911
482.158	747.94647
482.643	767.27954
483.128	706.01848
483.612	746.11466
484.097	676.11098
484.581	751.13199
485.066	688.11193
485.55	627.90275
486.034	650.91814
486.518	659.02986
487.002	502.86723
487.486	582.99002
487.969	569.97338
488.453	567.02427
488.936	544.85618
489.42	593.9078
489.903	534.98311
490.386	131.16393
490.869	553.85201
491.352	546.98151
491.835	530.77505
492.318	503.81936
492.8	514.75579
493.283	486.92213
493.765	445.82312
494.247	440.77913
494.73	461.75343
495.212	432.80127
495.694	394.69802
496.175	345.62632
496.657	468.83995
497.139	471.59233
497.62	333.61038
498.102	373.71962
498.583	365.72042
499.064	378.64321
499.545	365.64612
500.026	336.58595
500.507	350.63653
500.988	364.71524
501.469	261.52701
501.949	355.69871
502.43	290.54726
502.91	313.50373
503.39	282.5753
503.87	287.5388
504.35	330.62458
504.83	287.49982
505.31	257.50559
505.79	271.52333
506.269	312.58675
506.749	234.43377
507.228	255.4851
507.707	320.56364
508.187	335.64599
508.666	272.54329
509.145	258.48973
509.623	272.51933
510.102	235.47037
510.581	316.62239
511.059	252.51924
511.538	297.63411
512.016	298.58086
512.494	288.57445
512.972	257.50535
513.45	136.26332
513.928	214.43141
514.406	172.34435
514.884	234.5021
515.361	258.50983
515.839	258.48209
516.316	246.49045
516.793	225.47956
517.27	226.46043
517.747	258.55144
518.224	204.39649
518.701	237.43769
519.178	212.43957
519.654	242.48292
520.131	210.43776
520.607	209.43965
521.083	230.43807
521.56	187.3736
522.036	236.43202
522.512	232.48427
522.987	201.40045
523.463	189.38058
523.939	231.47886
524.414	270.52052
524.89	172.34834
525.365	256.48262
525.84	204.4069
526.315	212.43151
526.79	243.45867
527.265	194.37508
527.74	204.42223
528.215	202.40422
528.689	240.44423
529.164	236.43049
529.638	198.43712
530.112	145.29332
530.587	179.32246
531.061	236.47927
531.534	205.42515
532.008	222.45187
532.482	193.37878
532.956	206.44755
533.429	219.45216
533.903	285.52661
534.376	260.48149
534.849	248.48569
535.322	243.48571
535.795	224.46736
536.268	231.47158
536.741	266.54044
537.213	312.60149
537.686	205.42629
538.158	240.45134
538.631	265.54737
539.103	266.49827
539.575	297.51478
540.047	297.54411
540.519	304.61087
540.991	308.63519
541.463	305.62038
541.934	363.68351
542.406	338.66791
542.877	311.58415
543.348	394.78442
543.82	418.84266
544.291	439.83396
544.762	361.70483
545.233	423.86627
545.703	457.80482
546.174	477.88762
546.645	462.88001
547.115	478.92155
547.585	555.99745
548.056	498.94675
548.526	621.11118
548.996	727.31067
549.466	772.40653
549.935	705.23786
550.405	809.25853
550.875	823.4041
551.344	897.53072
551.814	914.46939
552.283	1007.47453
552.752	1028.60778
553.221	1065.50096
553.69	1219.69703
554.159	1180.88951
554.628	1270.73889
555.096	1333.14162
555.565	1432.8752
556.033	1532.13261
556.502	1517.21426
556.97	1558.98575
557.438	1736.32089
557.906	1767.36547
558.374	1896.31356
558.842	1898.46807
559.31	2164.32799
559.777	2213.6401
560.245	2351.5937
560.712	2558.55082
561.18	2812.29481
561.647	2932.34395
562.114	3167.37705
562.581	3453.76815
563.048	3667.30306
563.514	3873.55371
563.981	4204.99557
564.448	4505.70328
564.914	4859.74227
565.381	5083.49205
565.847	5468.46684
566.313	5720.32231
566.779	6108.03004
567.245	6550.15855
567.711	6956.29796
568.176	7429.22811
568.642	7860.90877
569.108	8146.11236
569.573	8731.8644
570.038	9165.80123
570.504	9618.93876
570.969	10250.65594
571.434	10801.37077
571.899	11205.76226
572.363	11724.75718
572.828	12384.67737
573.293	13001.96687
573.757	13542.1249
574.222	13907.65521
574.686	14520.15654
575.15	14720.04596
575.614	15250.91389
576.078	15686.07261
576.542	16026.33134
577.006	16273.36914
577.469	16625.28543
577.933	16959.71001
578.396	17176.8513
578.86	17361.33933
579.323	17269.0234
579.786	17348.19351
580.249	17404.75332
580.712	17468.76129
581.175	17343.04346
581.637	17190.61875
582.1	17152.21471
582.563	16958.27448
583.025	16623.81393
583.487	16663.12423
583.95	16074.03658
584.412	16209.87734
584.874	15684.2698
585.336	15412.87946
585.797	14897.23901
586.259	14505.96352
586.721	14138.81509
587.182	13724.19949
587.643	13435.31023
588.105	13004.54597
588.566	12480.08442
589.027	12034.0628
589.488	11744.79904
589.949	11286.99536
590.41	11084.39643
590.87	10699.65368
591.331	10467.94869
591.791	9966.92625
592.252	9616.88964
592.712	9342.12065
593.172	8934.22875
593.632	8832.0199
594.092	8413.28739
594.552	8150.86581
595.011	7931.71629
595.471	7723.46772
595.931	7414.22286
596.39	7190.36881
596.849	6998.2016
597.308	6822.89511
597.768	6535.62728
598.227	6480.34362
598.685	6367.12998
599.144	6064.25479
599.603	5930.3746
600.062	5828.76977
600.52	5745.08623
600.978	5529.53852
601.437	5483.36401
601.895	5342.00479
602.353	5306.27325
602.811	5114.35651
603.269	5051.83447
603.727	4996.86211
604.184	4917.52146
604.642	4775.13221
605.099	4682.84493
605.557	4566.22813
606.014	4606.44457
606.471	4461.39381
606.928	4379.52008
607.385	4483.18273
607.842	4387.90467
608.299	4371.04554
608.755	4401.21734
609.212	4242.81236
609.668	4151.81618
610.125	4226.35098
610.581	4241.29905
611.037	4095.14461
611.493	4017.3825
611.949	3926.49678
612.405	3959.49331
612.861	3840.46735
613.316	3795.53006
613.772	3761.33303
614.227	3710.50376
614.683	3634.04719
615.138	3526.53598
615.593	3619.46907
616.048	3534.44924
616.503	3448.9037
616.958	3368.01862
617.412	3351.69289
617.867	3310.32088
618.321	3239.0699
618.776	3253.39202
619.23	3170.72225
619.684	3047.57207
620.138	3093.72354
620.592	2916.9717
621.046	3014.80042
621.5	2891.98675
621.954	2916.61894
622.407	2854.5701
622.861	2813.00827
623.314	2755.69694
623.768	2673.80152
624.221	2630.0759
624.674	2615.75751
625.127	2552.8342
625.58	2601.74592
626.033	2522.60019
626.485	2449.93277
626.938	2425.92306
627.39	2348.80132
627.843	2332.78138
628.295	2262.76323
628.747	2326.91179
629.199	2240.69353
629.651	2180.67225
630.103	2172.71022
630.555	2162.40497
631.006	2135.81373
631.458	2110.82818
631.909	2136.7553
632.361	2089.78931
632.812	2043.72273
633.263	2006.45367
633.714	2012.44063
634.165	1950.89725
634.616	1906.79039
635.067	1985.58159
635.518	1894.80933
635.968	1896.19561
636.419	1901.4696
636.869	1796.73987
637.319	1789.62349
637.769	1759.48564
638.219	1793.76955
638.669	1732.70432
639.119	1765.82985
639.569	1709.73608
640.019	1786.64987
640.468	1680.4502
640.918	1709.74834
641.367	1742.51424
641.816	1657.44486
642.265	1719.60942
642.714	1665.56953
643.163	1629.52064
643.612	1632.66075
644.061	1611.23358
644.51	1627.48698
644.958	1666.39999
645.406	1655.68445
645.855	1593.72244
646.303	1641.60407
646.751	1602.46767
647.199	1591.46407
647.647	1598.50723
648.095	1572.47308
648.543	1606.16375
648.99	1556.599
649.438	1610.60719
649.885	1578.75594
650.333	1528.95883
650.78	1531.61858
651.227	1565.67994
651.674	1512.4118
652.121	1561.68153
652.568	1542.65358
653.015	1567.83691
653.461	1531.57286
653.908	1580.55677
654.354	1547.61252
654.801	1483.48092
655.247	1539.33591
655.693	1485.85704
656.139	1481.55941
656.585	1534.61888
657.031	1540.51926
657.477	1455.21105
657.922	1511.4585
658.368	1543.73579
658.813	1537.53303
659.259	1454.53956
659.704	1522.5143
660.149	1444.43814
660.594	1463.52016
661.039	1474.40116
661.484	1548.64013
661.929	1480.49663
662.373	1487.75512
662.818	1492.70667
663.262	1495.60545
663.707	1450.73462
664.151	1496.66496
664.595	1481.60109
665.039	1430.65503
665.483	1439.74206
665.927	1478.52939
666.371	1434.41465
666.814	1436.53146
667.258	1511.56911
667.701	1573.35019
668.145	1533.78625
668.588	1535.73547
669.031	1478.52001
669.474	1490.62172
669.917	1482.35154
670.36	1523.76245
670.803	1515.66388
671.245	1619.31343
671.688	1552.74267
672.13	1479.3807
672.573	1550.89132
673.015	1537.67069
673.457	1548.36009
673.899	1563.73314
674.341	1511.66229
674.783	1545.67207
675.225	1550.77008
675.666	1562.69528
676.108	1611.41052
676.549	1600.69616
676.991	1638.48134
677.432	1625.1521
677.873	1590.60459
678.314	1647.76926
678.755	1630.82075
679.196	1595.57193
679.637	1608.82176
680.078	1655.71124
680.518	1719.75534
680.959	1621.75889
681.399	1641.90751
681.839	1656.85405
682.28	1661.90705
682.72	1673.64188
683.16	1668.95184
683.6	1727.68331
684.039	1706.35474
684.479	1704.93119
684.919	1606.6021
685.358	1784.15257
685.798	1757.2611
686.237	1814.9816
686.676	1848.8466
687.115	1829.8748
687.554	1797.88976
687.993	1840.65319
688.432	1818.75774
688.871	1844.74541
689.309	1890.98623
689.748	1873.47297
690.186	1846.96037
690.625	1943.94597
691.063	1912.02069
691.501	2016.23578
691.939	2015.27094
692.377	2012.16845
692.815	2039.09515
693.253	2087.16013
693.69	2131.78442
694.128	2085.18281
694.565	2146.15403
695.003	2139.45036
695.44	2128.07293
695.877	2207.08107
696.314	2192.72484
696.751	2179.9752
697.188	2301.0472
697.625	2264.04436
698.061	2272.24444
698.498	2428.36447
698.934	2352.30471
699.371	2351.18243
699.807	2406.23357
700.243	2371.30451
700.679	2427.02785
701.115	2402.2177
701.551	2514.249
701.987	2511.01688
702.422	2519.28682
702.858	2629.33431
703.294	2622.07105
703.729	2643.49174
704.164	2629.39211
704.599	2597.97868
705.035	2625.99971
705.47	2686.45896
705.904	2634.21132
706.339	2824.24151
706.774	2683.2508
707.209	2649.15862
707.643	2801.41172
708.078	2773.48692
708.512	2754.63705
708.946	2816.40649
709.38	2761.33018
709.814	2792.13563
710.248	2820.50333
710.682	2887.3583
711.116	2793.35721
711.549	2770.84989
711.983	2832.19085
712.416	2861.33063
712.85	2839.64368
713.283	2804.32586
713.716	2857.70166
714.149	2835.37797
714.582	2756.03355
715.015	2833.67606
715.448	2704.68523
715.881	2792.9082
716.313	2661.24938
716.746	2655.2706
717.178	2666.39143
717.61	2711.72408
718.043	2620.59305
718.475	2616.42894
718.907	2645.70005
719.339	2485.03424
719.77	2512.26982
720.202	2491.62803
720.634	2469.39662
721.065	2460.26032
721.497	2443.43339
721.928	2341.39353
722.359	2360.30198
722.79	2308.24712
723.221	2218.46504
723.652	2281.64075
724.083	2226.9307
724.514	2190.00252
724.945	2123.07019
725.375	2091.98866
725.806	2062.32166
726.236	2048.43756
726.666	1992.02523
727.096	2013.20135
727.526	1992.34433
727.956	1872.7712
728.386	1933.15691
728.816	1806.16239
729.246	1830.00896
729.675	1773.0123
730.105	1743.99169
730.534	1715.76578
730.964	1707.06736
731.393	1752.04186
731.822	1714.11493
732.251	1626.99368
732.68	1600.69038
733.109	1531.77424
733.537	1483.64776
733.966	1542.81459
734.395	1501.51803
734.823	1468.41385
735.251	1420.56777
735.68	1448.73877
736.108	1428.74648
736.536	1364.4375
736.964	1318.33212
737.392	1302.54295
737.82	1279.38494
738.247	1255.34809
738.675	1287.3846
739.102	1199.39033
739.53	1184.42391
739.957	1115.34745
740.384	1223.3934
740.811	1149.36114
741.238	1105.18943
741.665	1102.05347
742.092	1096.12274
742.519	1061.15669
742.945	1052.06923
743.372	1025.10318
743.798	998.15355
744.225	1024.00369
744.651	949.01155
745.077	894.90515
745.503	965.97527
745.929	935.88884
746.355	913.93516
746.781	840.79853
747.207	825.66261
747.632	817.72255
748.058	783.70992
748.483	839.65294
748.908	771.67944
749.334	741.60383
749.759	749.54591
750.184	718.50802
750.609	719.56478
751.033	763.57695
751.458	660.31721
751.883	663.47329
752.307	669.40222
752.732	606.37127
753.156	712.55903
753.58	727.52124
754.005	675.5359
754.429	591.25762
754.853	563.27464
755.277	580.24675
755.7	541.23271
756.124	507.16256
756.548	558.20608
756.971	598.32459
757.394	539.27889
757.818	555.31083
758.241	473.11777
758.664	478.12285
759.087	429.89564
759.51	489.12929
759.933	435.9813
760.356	493.17365
760.778	470.07522
761.201	477.07836
761.623	457.03474
762.046	472.04122
762.468	439.98951
762.89	463.06576
763.312	424.97423
763.734	384.876
764.156	383.8971
764.578	373.81463
765	391.90328
765.421	325.79125
765.843	409.01192
766.264	419.95331
766.686	375.89551
767.107	333.77238
767.528	307.7452
767.949	325.79302
768.37	304.71836
768.791	323.74978
769.212	301.72763
769.632	246.55738
770.053	286.728
770.473	336.78165
770.894	337.80787
771.314	325.74457
771.734	271.6114
772.154	315.77749
772.575	306.68203
772.994	265.58295
773.414	314.72443
773.834	237.57747
774.254	306.72029
774.673	250.59215
775.093	235.56661
775.512	251.6006
775.931	239.59016
776.351	234.56622
776.77	196.47017
777.189	195.45555
777.607	190.47666
778.026	228.55399
778.445	137.3398
778.864	229.57314
779.282	213.5013
779.701	192.47525
780.119	187.46414
780.537	192.47019
780.955	196.4894
781.373	213.51512
781.791	165.36587
782.209	258.57624
782.627	161.41844
783.045	153.34815
783.462	196.491
783.88	170.43307
784.297	173.42846
784.715	131.33343
785.132	156.37308
785.549	167.41163
785.966	177.43788
786.383	169.40949
786.8	168.38468
787.217	169.39466
787.633	119.29505
788.05	226.5235
788.466	178.41314
788.883	137.34587
789.299	135.32231
789.715	164.39296
790.131	185.45162
790.547	181.44416
790.963	172.42012
791.379	141.35265
791.795	196.43814
792.21	178.40905
792.626	146.34262
793.041	136.33244
793.457	135.33055
793.872	144.33489
794.287	152.35796
794.702	172.41699
795.117	106.2621
795.532	127.31546
795.947	162.38447
796.362	178.41788
796.776	176.40559
797.191	107.26073
797.605	107.24997
798.02	91.22108
798.434	165.36191
798.848	162.3929
799.262	108.26645
799.676	173.41508
800.09	123.30028
800.504	126.3033
800.918	133.30522
801.331	135.35039
801.745	100.22907
802.158	115.28555
802.572	171.40794
802.985	184.43634
803.398	118.27951
803.811	142.36098
804.224	149.36618
804.637	121.28601
805.05	112.25821
805.462	146.35436
805.875	79.20448
806.288	72.17384
806.7	147.36473
807.112	159.36312
807.525	143.34871
807.937	73.18054
808.349	95.23718
808.761	159.38526
809.173	120.28852
809.584	113.27751
809.996	76.18606
810.408	105.26933
810.819	141.32759
811.231	143.36474
811.642	148.34786
812.053	228.52625
812.464	316.71654
812.875	242.59987
813.286	198.49833
813.697	188.43047
814.108	150.36147
814.519	147.32324
814.929	124.31344
815.34	135.32379
815.75	99.25029
816.16	114.28208
816.571	110.28378
816.981	140.32662
817.391	98.23563
817.801	117.28818
818.211	147.34571
818.62	79.18998
819.03	139.33655
819.44	155.39897
819.849	104.26054
820.259	116.29458
820.668	84.2061
821.077	104.25668
821.486	139.33071
821.895	152.37017
822.304	110.28938
822.713	128.29944
823.122	108.26773
823.531	122.28653
823.939	122.29445
824.348	108.26086
824.756	125.31004
825.164	143.3552
825.573	93.23235
825.981	130.31896
826.389	145.35938
826.797	84.20983
827.205	112.25501
827.612	172.41652
828.02	47.11088
828.428	129.32497
828.835	84.22038
829.243	140.32931
829.65	99.24474
830.057	130.31197
830.464	84.20411
830.871	148.34921
831.278	97.23327
831.685	150.32949
832.092	135.3265
832.499	99.21541
832.905	112.28129
833.312	128.28873
833.718	109.26956
834.124	110.24945
834.531	134.33375
834.937	83.21238
835.343	153.36332
835.749	150.34499
836.155	80.20889
836.561	141.34204
836.966	128.30951
837.372	139.34916
837.777	69.17177
838.183	113.24911
838.588	101.24914
838.993	132.3175
839.399	51.12502
839.804	77.18721
840.209	95.24044
840.613	84.1863
841.018	96.24171
841.423	104.26485
841.828	94.23642
842.232	123.30151
842.637	115.26877
843.041	38.0978
843.445	99.24672
843.849	105.25796
844.253	150.35077
844.657	85.21313
845.061	101.2276
845.465	89.21395
845.869	112.2579
846.272	38.09296
846.676	93.22374
847.079	55.13999
847.483	133.32759
847.886	131.31479
848.289	72.19171
848.692	85.21436
849.095	113.26886
849.498	127.31821
849.901	112.2545
850.304	77.18356
850.707	75.19077
851.109	127.31764
851.512	104.25356
851.914	66.16612
852.316	76.1917
852.718	24.06233
853.121	63.15432
853.523	104.2411
853.925	65.16935
854.326	84.20907
854.728	99.25279
855.13	53.13681
855.531	46.11022
855.933	123.29186
856.334	69.17171
856.736	72.16095
857.137	70.16248
857.538	58.14583
857.939	52.12862
858.34	83.20142
858.741	83.21602
859.142	117.27805
859.542	67.17647
859.943	91.2248
860.343	67.16564
860.744	150.35983
861.144	94.22781
861.544	79.18912
861.945	90.22807
862.345	116.28071
862.745	59.14661
863.145	119.28128
863.544	90.22612
863.944	51.12069
864.344	136.33306
864.743	117.28722
865.143	114.28991
865.542	88.20296
865.941	87.21421
866.34	120.28414
866.74	93.24808
867.139	79.1884
867.537	128.32205
867.936	109.25984
868.335	98.24754
868.734	99.2511
869.132	111.25524
869.531	117.27987
869.929	80.18156
870.327	78.18626
870.726	131.3223
871.124	141.32422
871.522	96.24284
871.92	106.25911
872.318	89.2163
872.715	127.31039
873.113	60.14612
873.511	88.21799
873.908	56.14135
874.306	82.20298
874.703	107.2653
875.1	112.28371
875.497	128.30273
875.894	82.19993
876.291	90.21951
876.688	86.22064
877.085	124.29372
877.482	84.20922
877.878	75.17988
878.275	113.28416
878.671	157.34248
879.068	117.27923
879.464	114.27254
879.86	48.1137
880.256	127.30935
880.652	92.23247
881.048	99.2434
881.444	123.28904
881.84	116.29165
882.236	111.27632
882.631	103.25061
883.027	122.29177
883.422	96.2437
883.817	103.25659
884.213	89.22701
884.608	35.08615
885.003	91.21793
885.398	49.12278
885.793	108.26851
886.188	82.20283
886.582	148.37343
886.977	83.19596
887.371	94.23608
887.766	35.08735
888.16	120.29595
888.554	103.25248
888.949	104.25885
889.343	117.28254
889.737	17.04557
890.131	87.21697
890.525	102.25866
890.918	67.16824
891.312	134.31581
891.706	116.30113
892.099	105.2648
892.492	67.14423
892.886	138.33243
893.279	54.13757
893.672	70.1777
894.065	120.29693
894.458	78.19534
894.851	101.24537
895.244	23.05906
895.637	94.22473
896.029	110.26619
896.422	93.2256
896.814	40.0997
897.206	42.10026
897.599	90.22115
897.991	49.1186
898.383	78.18348
898.775	69.1553
899.167	113.26046
899.559	101.25353
899.951	96.2245
900.342	106.26708
900.734	40.09949
901.125	120.3113
901.517	131.31694
901.908	115.27256
902.299	63.15374
902.69	94.22008
903.082	112.26827
903.473	71.16945
903.863	110.27785
904.254	108.24799
904.645	125.30686
905.036	52.12593
905.426	134.3019
905.817	70.17124
906.207	111.26156
906.597	70.16318
906.987	115.29488
907.378	90.22612
907.768	60.15843
908.158	82.19888
908.547	33.08554
908.937	104.26448
909.327	78.18854
909.717	141.3524
910.106	56.13444
910.495	163.39881
910.885	111.27823
911.274	108.26724
911.663	111.27883
912.052	87.21334
912.441	71.17995
912.83	91.20733
913.219	114.29522
913.608	132.31858
913.997	85.21183
914.385	113.26689
914.774	76.18426
915.162	77.18264
915.55	89.21387
915.939	50.12625
916.327	100.24744
916.715	91.23031
917.103	97.2368
917.491	132.32183
917.878	115.27949
918.266	103.26476
918.654	104.26326
919.041	38.09943
919.429	89.20858
919.816	99.24886
920.203	77.18588
920.591	100.24581
920.978	126.30433
921.365	88.22947
921.752	112.26397
922.139	106.22755
922.525	61.14625
922.912	110.26538
923.299	73.18073
923.685	109.28155
924.072	80.18348
924.458	78.1923
924.844	91.22356
925.231	66.15319
925.617	43.10953
926.003	98.24843
926.389	115.2868
926.774	81.2042
927.16	115.28231
927.546	73.18561
927.931	97.24006
928.317	136.30803
928.702	115.26877
929.088	66.15567
929.473	90.22742
929.858	35.08487
930.243	61.14614
930.628	62.15054
931.013	103.25286
931.398	114.25894
931.783	134.34785
932.167	86.20889
932.552	130.32108
932.937	93.22907
933.321	88.21934
933.705	76.19074
934.09	148.36755
934.474	90.2122
934.858	98.25212
935.242	74.17074
935.626	134.33799
936.009	68.18034
936.393	76.19252
936.777	94.23888
937.16	82.21221
937.544	87.20357
937.927	71.1795
938.311	129.31034
938.694	123.32133
939.077	82.19514
939.46	123.29804
939.843	123.25258
940.226	62.15873
940.609	49.11254
940.991	77.19509
941.374	95.23028
941.757	107.26131
942.139	34.07663
942.522	139.32294
942.904	129.30551
943.286	116.29134
943.668	101.25934
944.05	56.13781
944.432	104.25413
944.814	122.29656
945.196	39.09525
945.578	39.0929
945.959	50.1172
946.341	115.27897
946.722	111.25748
947.104	111.26227
947.485	118.27096
947.866	116.28882
948.247	82.20572
948.628	99.23934
949.009	64.16351
949.39	91.22488
949.771	116.26636
950.152	62.15184
950.532	10.02478
950.913	97.23194
951.293	66.17783
951.674	60.14487
952.054	73.18014
952.434	55.13642
952.814	101.23799
953.194	118.30527
953.574	111.27038
953.954	58.13755
954.334	115.28325
954.714	28.06852
955.093	139.33617
955.473	102.25267
955.853	95.24402
956.232	67.18314
956.611	95.22594
956.99	87.21721
957.37	108.27241
957.749	91.21543
958.128	96.23989
958.506	60.15538
958.885	88.22062
959.264	81.19738
959.643	97.21867
960.021	65.16063
960.4	83.18688
960.778	152.3674
961.156	97.24112
961.535	90.20815
961.913	112.25893
962.291	71.18148
962.669	60.15172
963.047	86.21809
963.424	76.19307
963.802	82.20045
964.18	130.32426
964.557	92.21015
964.935	113.26451
965.312	72.18678
965.69	120.29671
966.067	100.24126
966.444	96.23458
966.821	71.18238
967.198	76.1835
967.575	89.21727
967.952	118.27443
968.329	100.24108
968.705	85.18093
969.082	53.13586
969.458	36.08659
969.835	124.29769
970.211	50.12832
970.587	147.35953
970.963	138.34858
971.339	78.2027
971.715	128.3151
972.091	114.27742
972.467	71.17643
972.843	133.32505
973.219	145.34194
973.594	72.18762
973.97	112.26345
974.345	89.21143
974.721	68.16412
975.096	97.23265
975.471	120.28084
975.846	78.1864
976.221	98.24675
976.596	69.1648
976.971	85.20851
977.346	141.32241
977.72	84.21271
978.095	60.15479
978.469	115.27109
978.844	112.27845
979.218	80.19067
979.593	90.21401
979.967	84.20335
980.341	125.28352
980.715	73.18318
981.089	91.22612
981.463	105.23845
981.837	73.17762
982.21	131.30002
982.584	73.17555
982.957	75.18643
983.331	122.2844
983.704	91.22191
984.078	89.21776
984.451	157.38456
984.824	53.129
985.197	96.23117
985.57	80.19955
985.943	137.33296
986.316	107.26015
986.688	108.2576
987.061	62.14499
987.434	81.20995
987.806	114.27316
988.179	90.21071
988.551	124.31042
988.923	39.09624
989.295	113.27915
989.667	18.04326
990.039	70.17232
990.411	97.22117
990.783	111.25248
991.155	27.06515
991.527	131.31778
991.898	67.16643
992.27	52.12858
992.641	115.28513
993.012	132.30565
993.384	99.23392
993.755	88.22284
994.126	82.19604
994.497	45.11055
994.868	135.30483
995.239	82.19753
995.61	41.10333
995.98	65.15744
996.351	66.16295
996.722	58.1343
997.092	40.0949
997.462	48.11216
997.833	127.29658
998.203	117.28008
998.573	94.23217
998.943	123.2843
999.313	93.22102
999.683	63.15082
1000.053	90.20542
1000.423	95.22889
1000.792	87.22402
1001.162	68.16678
1001.531	136.32997
1001.901	104.25668
1002.27	113.24932
1002.639	80.2033
1003.009	63.14943
1003.378	75.1909
1003.747	123.28645
1004.116	65.15507
1004.485	84.19944
1004.853	121.30264
1005.222	95.23761
1005.591	75.17721
1005.959	83.18573
1006.328	48.10805
1006.696	87.20835
1007.064	77.19273
1007.433	103.25491
1007.801	113.27412
1008.169	98.24533
1008.537	111.24265
1008.905	83.19208
1009.273	74.18197
1009.64	49.1169
1010.008	105.24761
1010.375	137.32721
1010.743	137.31086
1011.11	74.17427
1011.478	100.24517
1011.845	116.26924
1012.212	74.16665
1012.579	106.25747
1012.946	122.2863
1013.313	103.24261
1013.68	96.21372
1014.047	73.17315
1014.414	51.12041
1014.78	99.24376
1015.147	134.31888
1015.513	119.28291
1015.88	96.24344
1016.246	123.29949
1016.612	91.20657
1016.978	68.16604
1017.344	61.15042
1017.71	169.40286
1018.076	95.22203
1018.442	119.30236
1018.808	84.20861
1019.174	85.21183
1019.539	187.41862
1019.905	81.18983
1020.27	58.14289
1020.636	127.29996
1021.001	60.14333
1021.366	86.20505
1021.731	87.22223
1022.096	54.13606
1022.461	54.12767
1022.826	62.14698
1023.191	102.26515
1023.556	114.26376
1023.92	108.26263
1024.285	84.20365
1024.649	87.21168
1025.014	115.28137
1025.378	79.19752
1025.742	63.15603
1026.107	104.23258
1026.471	84.19474
1026.835	94.23106
1027.199	54.12984
1027.562	54.12539
1027.926	84.20404
1028.29	74.18639
1028.654	83.18963
1029.017	95.23149
1029.381	106.25041
1029.744	93.23529
1030.107	64.15096
1030.471	121.28567
1030.834	96.21628
1031.197	112.26653
1031.56	110.25643
1031.923	51.13178
1032.286	143.32961
1032.648	118.27843
1033.011	87.19813
1033.374	112.25996
1033.736	109.28359
1034.099	88.21287
1034.461	82.20587
1034.823	62.15398
1035.185	91.22727
1035.548	70.16965
1035.91	78.18576
1036.272	59.13399
1036.634	138.33193
1036.995	69.16152
1037.357	47.11436
1037.719	90.21713
1038.08	119.27866
1038.442	103.24186
1038.803	112.26561
1039.165	45.11361
1039.526	53.12794
1039.887	104.24616
1040.248	69.16933
1040.609	109.2663
1040.97	82.1991
1041.331	79.19887
1041.692	49.11434
1042.053	99.22309
1042.413	85.19663
1042.774	68.16474
1043.134	135.31601
1043.495	80.19991
1043.855	82.19761
1044.215	108.26508
1044.576	69.1643
1044.936	79.17999
1045.296	107.26413
1045.656	88.21431
1046.016	96.22959
1046.375	67.16192
1046.735	72.16241
1047.095	81.18834
1047.454	122.25432
1047.814	95.22629
1048.173	124.29191
1048.533	92.20888
1048.892	31.07464
1049.251	113.28027
1049.61	67.16436
1049.969	73.17121
1050.328	100.21439
1050.687	55.13362
1051.046	89.21501
1051.405	102.25119
1051.763	57.13081
1052.122	66.16403
1052.48	99.24043
1052.839	87.20309
1053.197	81.18938
1053.555	120.26958
1053.914	102.24692
1054.272	92.22053
1054.63	56.13669
1054.988	79.18652
1055.345	106.22539
1055.703	126.29869
1056.061	52.13364
1056.419	52.13448
1056.776	118.28232
1057.134	39.09043
1057.491	111.27471
1057.848	97.23927
1058.206	61.14307
1058.563	93.20304
1058.92	132.29909
1059.277	82.20097
1059.634	100.23284
1059.991	66.15755
1060.348	89.19941
1060.704	83.19642
1061.061	99.22765
1061.418	71.17139
1061.774	92.22523
1062.131	53.13997
1062.487	81.18812
1062.843	99.24447
1063.199	59.14639
1063.555	48.11119
1063.911	88.22062
1064.267	142.28995
1064.623	107.25693
1064.979	162.37526
1065.335	136.31953
1065.691	74.17644
1066.046	77.16825
1066.402	109.24452
1066.757	86.21553
1067.112	124.29995
1067.468	58.13664
1067.823	76.18169
1068.178	122.29088
1068.533	94.22584
1068.888	98.23187
1069.243	64.15744
1069.598	88.21215
1069.952	96.21398
1070.307	45.11141
1070.662	110.25794
1071.016	79.17583
1071.371	70.15848
1071.725	91.21585
1072.079	84.20059
1072.434	74.17887
1072.788	63.14955
1073.142	100.24354
1073.496	72.16996
1073.85	85.19561
1074.203	109.26133
1074.557	60.15918
1074.911	114.26857
1075.265	55.12763
1075.618	113.27247
1075.971	134.31336
1076.325	80.20208
1076.678	53.12104
1077.031	64.14431
1077.385	106.23059
1077.738	82.18376
1078.091	42.09559
1078.444	72.16632
1078.796	63.15409
1079.149	94.23174
1079.502	65.15299
1079.855	75.17391
1080.207	107.26063
1080.56	64.16488
1080.912	77.18637
1081.264	94.2243
1081.617	71.17223
1081.969	39.0985
1082.321	87.21081
1082.673	20.04589
1083.025	67.15831
1083.377	93.19762
1083.728	116.2669
1084.08	61.15185
1084.432	58.13956
1084.783	127.29285
1085.135	80.19926
1085.486	78.17731
1085.838	80.19578
1086.189	66.15959
1086.54	109.25714
1086.891	66.1663
1087.242	97.23389
1087.593	95.22915
1087.944	78.17537
1088.295	166.36817
1088.646	81.19501
1088.996	87.20795
1089.347	98.23813
1089.698	61.14374
1090.048	73.18869
1090.398	118.26976
1090.749	146.34262
1091.099	47.11815
1091.449	56.13923
1091.799	103.25519
1092.149	27.06606
1092.499	98.2367
1092.849	73.18463
1093.199	83.20662
1093.548	53.12717
1093.898	67.16697
1094.248	93.23697
1094.597	15.03849
1094.947	73.19383
1095.296	63.15506
1095.645	101.26016
1095.994	95.22603
1096.343	45.11324
1096.692	69.18051
1097.041	86.23127
1097.39	89.22147
1097.739	80.20668
1098.088	108.28632
1098.437	51.13383
1098.785	123.32734
1099.134	94.24754
1099.482	103.28064
1099.83	108.28075
1100.179	11.02886
1100.527	93.24511
1100.875	59.15561
1101.223	80.21117
1101.571	65.17904
1101.919	16.04201
1102.267	41.11548
1102.615	4.01286
1102.962	24.07715
1103.31	13.04173
1103.658	23.07398
