Data from N2 R15 sample 6_Subt2__1__15-23-43-007.txt Node

Date: Tue Sep 02 15:23:43 PDT 2025
User: uwsun
Spectrometer: HDX01956
Trigger mode: 0
Integration Time (sec): 5.000000E-1
Scans to average: 1
Nonlinearity correction enabled: true
Boxcar width: 0
Storing dark spectrum: false
XAxis mode: Wavelengths
Number of Pixels in Spectrum: 2068
>>>>>Begin Spectral Data<<<<<
194.03	153.41927
194.578	157.4868
195.127	158.48238
195.676	162.4959
196.225	210.53741
196.773	244.6427
197.321	271.69457
197.87	433.98556
198.418	383.86826
198.966	357.81885
199.513	335.73258
200.061	312.69799
200.609	409.9531
201.156	348.65704
201.704	298.66447
202.251	357.83229
202.798	377.85743
203.345	413.88823
203.892	348.76984
204.438	435.89527
204.985	352.72169
205.532	404.92533
206.078	384.82036
206.624	394.83662
207.17	384.77305
207.716	426.88681
208.262	397.66771
208.808	355.7576
209.354	372.78543
209.899	434.95364
210.445	335.72793
210.99	357.74732
211.535	417.84548
212.08	448.89069
212.625	409.88946
213.17	405.89385
213.715	345.66048
214.259	418.83918
214.804	434.92797
215.348	410.80868
215.892	409.84896
216.436	454.90219
216.98	413.788
217.524	346.7158
218.068	422.92338
218.612	442.96427
219.155	391.79856
219.698	397.82185
220.242	413.90007
220.785	416.84171
221.328	370.81133
221.871	426.94471
222.414	365.80323
222.956	353.7445
223.499	371.72814
224.041	401.81638
224.583	387.73014
225.126	381.73011
225.668	392.83092
226.21	344.76417
226.751	335.63947
227.293	412.81682
227.835	321.69366
228.376	392.79134
228.918	375.83561
229.459	321.70671
230	337.70702
230.541	420.83735
231.082	352.75005
231.622	381.76648
232.163	372.78716
232.704	402.86625
233.244	363.79011
233.784	405.86803
234.324	300.57641
234.864	330.657
235.404	415.8568
235.944	367.76281
236.484	403.87865
237.023	375.77075
237.563	363.7296
238.102	397.81339
238.641	372.82498
239.18	339.69111
239.719	369.81203
240.258	415.80258
240.797	397.82075
241.335	360.7731
241.874	345.57009
242.412	390.81152
242.95	358.74228
243.488	392.77244
244.026	381.75766
244.564	379.66916
245.102	438.8351
245.64	414.86375
246.177	337.65891
246.715	380.79423
247.252	434.8532
247.789	476.7482
248.326	356.73978
248.863	360.6797
249.4	429.83204
249.936	346.61296
250.473	390.78116
251.009	389.76311
251.546	414.77554
252.082	437.80994
252.618	390.74176
253.154	397.81817
253.69	361.70115
254.226	384.78907
254.761	362.70024
255.297	342.64508
255.832	377.76752
256.367	374.75916
256.903	379.71049
257.438	420.8428
257.972	390.7414
258.507	339.66785
259.042	407.74868
259.576	361.65937
260.111	396.784
260.645	436.79458
261.179	379.75579
261.713	388.73329
262.247	385.7599
262.781	406.71367
263.315	410.85465
263.849	385.82624
264.382	446.86481
264.915	363.72657
265.449	334.69716
265.982	472.89775
266.515	443.91174
267.048	392.69773
267.58	493.89371
268.113	412.74474
268.646	424.88579
269.178	381.71847
269.71	428.78316
270.243	443.84894
270.775	425.91796
271.307	484.97616
271.838	441.88719
272.37	370.77916
272.902	424.81115
273.433	410.7506
273.965	398.82263
274.496	409.86676
275.027	406.85383
275.558	429.87458
276.089	394.81436
276.62	440.94893
277.15	424.88618
277.681	440.79496
278.211	448.92389
278.741	380.69988
279.272	387.74125
279.802	455.95244
280.332	369.73482
280.861	443.88998
281.391	447.83592
281.921	421.8532
282.45	446.93546
282.98	406.89812
283.509	450.83341
284.038	468.87498
284.567	473.91344
285.096	443.89039
285.625	437.81721
286.153	412.80155
286.682	454.85048
287.21	437.86983
287.739	471.91133
288.267	406.81697
288.795	467.02307
289.323	420.80622
289.851	438.84483
290.378	395.73281
290.906	372.74855
291.433	394.82057
291.961	465.85024
292.488	494.00093
293.015	437.83784
293.542	407.85235
294.069	434.87411
294.596	482.97436
295.122	496.95304
295.649	475.84091
296.175	551.06598
296.702	493.96805
297.228	502.98642
297.754	496.88519
298.28	488.88036
298.806	448.87076
299.332	401.7143
299.857	490.87493
300.383	530.07647
300.908	411.80512
301.433	467.90748
301.958	516.94519
302.483	457.91514
303.008	524.02939
303.533	487.02475
304.058	499.93503
304.582	455.85172
305.107	437.92003
305.631	578.0168
306.155	484.88208
306.679	455.83658
307.203	455.83111
307.727	501.92997
308.251	502.97666
308.775	455.84288
309.298	417.78752
309.822	508.00447
310.345	564.01806
310.868	552.00602
311.391	526.00367
311.914	508.98598
312.437	539.93789
312.96	572.01095
313.482	489.88917
314.005	498.96657
314.527	513.03974
315.049	578.11111
315.571	551.89661
316.093	581.07533
316.615	593.05388
317.137	594.9328
317.659	641.14351
318.18	635.12169
318.702	578.98109
319.223	581.84372
319.744	570.91949
320.265	630.08998
320.786	603.07114
321.307	619.1076
321.828	658.03397
322.348	658.07951
322.869	638.0437
323.389	694.69647
323.909	694.08505
324.43	736.22264
324.95	632.98853
325.47	670.12497
325.989	693.09134
326.509	688.9812
327.029	741.06751
327.548	667.97486
328.067	668.06309
328.587	686.14501
329.106	741.06618
329.625	805.41093
330.144	708.03664
330.662	719.04473
331.181	766.11433
331.7	743.08374
332.218	766.98784
332.736	774.10589
333.255	767.07766
333.773	754.08463
334.291	773.20023
334.808	707.93367
335.326	868.10308
335.844	779.03433
336.361	764.14579
336.879	753.00097
337.396	808.10278
337.913	810.02325
338.43	910.06567
338.947	825.07751
339.464	878.94128
339.981	864.08055
340.497	915.20793
341.014	843.09744
341.53	903.00419
342.046	927.16275
342.562	998.26519
343.078	970.1098
343.594	964.12696
344.11	1025.15358
344.626	899.14708
345.141	996.02874
345.657	981.02341
346.172	985.11063
346.687	911.95955
347.202	962.94218
347.717	1068.114
348.232	1030.17561
348.747	1032.99871
349.261	1000.84904
349.776	1072.04099
350.29	1037.07643
350.805	1102.16019
351.319	1073.00066
351.833	1087.91851
352.347	1069.98591
352.861	1114.97385
353.374	1156.99064
353.888	1081.02879
354.401	1114.92873
354.915	1111.83798
355.428	1112.04637
355.941	1124.90564
356.454	1243.9071
356.967	1174.96379
357.48	1166.89941
357.993	1259.05979
358.505	1162.97804
359.018	1275.01645
359.53	1162.91655
360.042	1251.79345
360.554	1216.95154
361.066	1250.94427
361.578	1242.72059
362.09	1173.8693
362.602	1217.70413
363.113	1329.8098
363.625	1337.72925
364.136	1425.68887
364.647	1256.69824
365.158	1392.75941
365.669	1326.80839
366.18	1366.76662
366.691	1383.61882
367.201	1382.76281
367.712	1357.6276
368.222	1357.62276
368.733	1373.47867
369.243	1450.48336
369.753	1525.57199
370.263	1497.62143
370.773	1505.67156
371.282	1510.53333
371.792	1451.35899
372.301	1539.46084
372.811	1560.6269
373.32	1682.06351
373.829	1577.24677
374.338	1747.03475
374.847	1769.02116
375.356	1681.0536
375.865	1779.71627
376.373	1842.73926
376.882	2014.87945
377.39	1948.73832
377.898	2014.57379
378.407	2147.29425
378.915	2170.19287
379.423	2372.11049
379.93	2394.99616
380.438	2385.96279
380.946	2560.80518
381.453	2618.75269
381.96	2648.7271
382.468	2803.76737
382.975	3055.76938
383.482	3280.03086
383.989	3178.87433
384.495	3382.38821
385.002	3292.0737
385.509	3573.42886
386.015	3873.45059
386.521	4058.88838
387.028	4029.7662
387.534	4273.57411
388.04	4594.4023
388.546	4527.68242
389.051	4451.58521
389.557	4936.20143
390.063	5794.80665
390.568	5866.05423
391.073	5961.06154
391.578	6316.67822
392.084	6270.17507
392.589	6232.87423
393.093	6371.68994
393.598	7275.88365
394.103	7835.49467
394.607	8986.61212
395.112	9603.22043
395.616	10501.17158
396.12	10877.07164
396.624	12110.26151
397.128	13348.39544
397.632	15224.18368
398.136	16024.97612
398.639	15529.69422
399.143	16447.64895
399.646	19048.48295
400.15	21088.01104
400.653	19074.09
401.156	13589.54958
401.659	5169.95759
402.162	1054.15589
402.664	0
403.167	0
403.67	0
404.172	0
404.674	0
405.176	0
405.678	0
406.18	0
406.682	0
407.184	0
407.686	0
408.187	0
408.688	0
409.19	0
409.691	0
410.192	0
410.693	0
411.194	435.30976
411.694	4082.94878
412.195	8864.71461
412.696	12089.80453
413.196	12760.96929
413.696	12863.67595
414.196	13703.56671
414.696	17261.84252
415.196	21764.24417
415.696	29583.19008
416.196	36460.31858
416.695	26588.70029
417.195	20634.30699
417.694	19434.81992
418.194	18874.32354
418.693	17128.94641
419.192	16583.26325
419.691	16163.11246
420.19	15790.80075
420.688	15840.62883
421.187	15450.82285
421.685	15050.56821
422.184	13773.31913
422.682	12017.24466
423.18	9655.74718
423.678	8575.12023
424.176	7810.04652
424.674	7454.41274
425.172	7286.2313
425.669	6870.11946
426.167	6638.04876
426.664	5810.72451
427.161	5273.23928
427.659	4993.23707
428.156	4502.1933
428.652	4218.00716
429.149	4078.71123
429.646	3939.50113
430.143	3792.89097
430.639	3517.69244
431.135	3264.58451
431.632	3061.6174
432.128	2983.67267
432.624	2614.9199
433.12	2484.87185
433.616	2449.9074
434.111	2174.14357
434.607	2123.2752
435.103	2252.16265
435.598	2177.23724
436.093	2174.52253
436.588	2051.62296
437.083	1931.78059
437.578	1834.93386
438.073	1516.19006
438.568	1717.26085
439.062	1567.06409
439.557	1533.34363
440.051	1494.28109
440.546	1358.33395
441.04	1409.46298
441.534	1315.63142
442.028	1353.56723
442.522	1203.56613
443.015	1281.42988
443.509	1290.67344
444.002	1185.66635
444.496	1196.48928
444.989	1125.6947
445.482	1113.72778
445.975	1041.54038
446.468	1061.49108
446.961	1055.49957
447.454	1074.60856
447.947	974.6441
448.439	1024.7472
448.931	963.58847
449.424	912.78961
449.916	1011.76982
450.408	905.60491
450.9	875.70939
451.392	892.79687
451.884	871.67127
452.375	873.76862
452.867	860.67742
453.358	819.63264
453.849	799.56091
454.341	776.62919
454.832	789.58416
455.323	716.70246
455.814	768.68129
456.304	733.67019
456.795	832.72433
457.285	820.7131
457.776	832.76874
458.266	706.71275
458.756	749.78333
459.247	659.68929
459.737	642.68261
460.226	619.61122
460.716	653.71695
461.206	604.6944
461.695	669.82149
462.185	601.68809
462.674	616.68595
463.163	531.57849
463.653	578.57032
464.142	611.74097
464.63	582.74735
465.119	535.63598
465.608	539.6431
466.096	577.64113
466.585	611.74364
467.073	568.74641
467.561	463.63686
468.05	522.67661
468.538	519.73537
469.026	553.74951
469.513	494.56891
470.001	428.56294
470.489	439.61284
470.976	471.64031
471.463	420.65132
471.951	453.70893
472.438	384.55929
472.925	359.52399
473.412	410.64962
473.899	345.51071
474.385	410.65374
474.872	383.57219
475.359	335.54375
475.845	388.5034
476.331	412.57825
476.817	359.59389
477.303	314.49517
477.789	327.54154
478.275	259.45296
478.761	303.51207
479.247	296.46219
479.732	227.40642
480.218	262.49708
480.703	282.50555
481.188	246.37358
481.673	266.43672
482.158	186.28194
482.643	286.54077
483.128	208.3472
483.612	233.40276
484.097	273.49963
484.581	276.47596
485.066	227.41523
485.55	133.22121
486.034	234.37432
486.518	202.3582
487.002	165.31067
487.486	163.30872
487.969	195.36716
488.453	187.37117
488.936	176.30658
489.42	192.32896
489.903	193.38577
490.386	-251.3568
490.869	217.36751
491.352	193.37843
491.835	213.34199
492.318	228.40011
492.8	176.28571
493.283	121.25005
493.765	127.25361
494.247	197.37093
494.73	179.31568
495.212	143.28437
495.694	95.18143
496.175	54.1053
496.657	157.30434
497.139	220.30099
497.62	49.09626
498.102	159.32253
498.583	124.2586
499.064	107.19542
499.545	155.2894
500.026	80.14896
500.507	117.22539
500.988	110.2291
501.469	79.16618
501.949	160.32938
502.43	67.13336
502.91	99.16903
503.39	174.36369
503.87	116.22696
504.35	159.31353
504.83	134.24282
505.31	140.28301
505.79	192.3778
506.269	252.48091
506.749	189.35429
507.228	184.35609
507.707	271.48345
508.187	294.57251
508.666	257.51512
509.145	257.48795
509.623	282.53712
510.102	345.67295
510.581	391.75652
511.059	388.77499
511.538	426.88405
512.016	498.92463
512.494	609.12276
512.972	605.09085
513.45	521.91614
513.928	670.208
514.406	688.21205
514.884	748.42545
515.361	812.39606
515.839	868.37861
516.316	939.57173
516.793	974.73789
517.27	1077.77221
517.747	1015.81356
518.224	1166.75442
518.701	1158.65521
519.178	1152.89042
519.654	1199.86754
520.131	1158.90873
520.607	1226.00469
521.083	1172.72986
521.56	1215.8565
522.036	1186.66176
522.512	1159.92461
522.987	1142.7829
523.463	1088.74149
523.939	1098.83739
524.414	1066.66654
524.89	1065.71948
525.365	986.52931
525.84	915.52475
526.315	904.55055
526.79	905.43308
527.265	860.3987
527.74	842.49333
528.215	785.35851
528.689	742.2015
529.164	715.14625
529.638	680.34776
530.112	580.05502
530.587	599.96386
531.061	581.08551
531.534	585.10866
532.008	538.01469
532.482	554.99488
532.956	434.89703
533.429	469.91397
533.903	463.81752
534.376	428.75945
534.849	428.80256
535.322	480.90675
535.795	440.87396
536.268	394.77456
536.741	389.76816
537.213	374.71029
537.686	413.81899
538.158	340.62368
538.631	364.73515
539.103	323.59653
539.575	428.71614
540.047	328.59621
540.519	356.70678
540.991	321.66006
541.463	331.66927
541.934	304.58072
542.406	254.51182
542.877	291.54928
543.348	343.69099
543.82	343.70339
544.291	333.64893
544.762	255.5104
545.233	346.72093
545.703	358.64678
546.174	370.70681
546.645	257.51393
547.115	379.74806
547.585	352.66557
548.056	353.69477
548.526	429.80662
548.996	439.85062
549.466	523.01219
549.935	464.86707
550.405	507.85887
550.875	521.96181
551.344	520.97799
551.814	595.04212
552.283	627.02422
552.752	670.15566
553.221	662.0511
553.69	727.17018
554.159	670.22713
554.628	813.27657
555.096	853.55561
555.565	986.48216
556.033	919.52808
556.502	986.67182
556.97	1057.57569
557.438	1116.79361
557.906	1189.89055
558.374	1238.85796
558.842	1281.00549
559.31	1453.98798
559.777	1502.2396
560.245	1656.2977
560.712	1807.33997
561.18	1918.20893
561.647	2085.31826
562.114	2202.41848
562.581	2501.85813
563.048	2624.55443
563.514	2723.83818
563.981	3040.47606
564.448	3229.31625
564.914	3512.4375
565.381	3769.20577
565.847	4001.25949
566.313	4274.07764
566.779	4609.69678
567.245	4925.73781
567.711	5238.70929
568.176	5539.17065
568.642	5988.65157
569.108	6448.41838
569.573	6785.21493
570.038	7182.90283
570.504	7579.32449
570.969	8149.17619
571.434	8659.68412
571.899	9208.81797
572.363	9570.77009
572.828	10296.09048
573.293	10705.71063
573.757	11199.94974
574.222	11869.79887
574.686	12448.40547
575.15	12919.00142
575.614	13282.11979
576.078	14030.97161
576.542	14300.78021
577.006	14822.91168
577.469	15239.26817
577.933	15610.20363
578.396	16040.5877
578.86	16293.61987
579.323	16332.91006
579.786	16716.42657
580.249	16747.7152
580.712	16963.59618
581.175	16867.29402
581.637	17077.23002
582.1	17076.27882
582.563	17033.19267
583.025	16932.458
583.487	16824.08014
583.95	16688.20871
584.412	16875.78104
584.874	16565.0559
585.336	16237.82173
585.797	15976.70359
586.259	15704.94003
586.721	15361.52863
587.182	15241.18926
587.643	14830.68636
588.105	14637.15856
588.566	14092.91345
589.027	13769.30388
589.488	13464.48963
589.949	13153.34091
590.41	12898.03263
590.87	12470.18383
591.331	12045.99512
591.791	11669.31135
592.252	11378.85507
592.712	10975.60542
593.172	10650.53428
593.632	10513.06397
594.092	10141.60411
594.552	9712.27936
595.011	9489.53226
595.471	9204.83309
595.931	8987.34184
596.39	8657.75618
596.849	8554.55724
597.308	8018.71428
597.768	7874.98879
598.227	7743.7059
598.685	7491.38541
599.144	7347.34942
599.603	7211.34684
600.062	7022.82505
600.52	6795.96998
600.978	6659.24881
601.437	6487.08936
601.895	6420.74146
602.353	6268.96051
602.811	6081.98105
603.269	6018.39651
603.727	5869.44428
604.184	5841.09942
604.642	5678.6581
605.099	5683.33445
605.557	5618.66339
606.014	5513.98678
606.471	5431.85746
606.928	5256.04896
607.385	5270.74435
607.842	5414.34956
608.299	5248.559
608.755	5242.74807
609.212	5101.33508
609.668	5113.28309
610.125	5133.84482
610.581	5182.7744
611.037	5183.5422
611.493	5165.75066
611.949	5015.9041
612.405	4942.94824
612.861	5021.82901
613.316	4995.88752
613.772	4964.68389
614.227	4959.84143
614.683	4931.34594
615.138	4800.88689
615.593	4836.83378
616.048	4842.77341
616.503	4857.22766
616.958	4609.47158
617.412	4570.12545
617.867	4679.63866
618.321	4473.45407
618.776	4407.85095
619.23	4356.22563
619.684	4333.03703
620.138	4286.24739
620.592	4044.63691
621.046	3919.50816
621.5	3943.70106
621.954	3907.2903
622.407	3819.26725
622.861	3648.84784
623.314	3712.45597
623.768	3476.67104
624.221	3410.84921
624.674	3388.6516
625.127	3298.77504
625.58	3335.65518
626.033	3184.53359
626.485	3123.95004
626.938	3055.95473
627.39	2977.84265
627.843	2874.83295
628.295	2785.83849
628.747	2734.98525
629.199	2692.76514
629.651	2667.76226
630.103	2599.80532
630.555	2533.45763
631.006	2485.92386
631.458	2513.95855
631.909	2477.85601
632.361	2406.90213
632.812	2291.82051
633.263	2288.54057
633.714	2203.50338
634.165	2281.0709
634.616	2156.92892
635.067	2184.66247
635.518	2127.94481
635.968	2038.24424
636.419	1941.48935
636.869	1918.82519
637.319	1880.68376
637.769	1803.51405
638.219	1860.81907
638.669	1718.69296
639.119	1721.79254
639.569	1750.7703
640.019	1736.61317
640.468	1676.44726
640.918	1766.79591
641.367	1626.42817
641.816	1633.42641
642.265	1621.52989
642.714	1526.44805
643.163	1507.41257
643.612	1462.4939
644.061	1513.16134
644.51	1492.36889
644.958	1479.25053
645.406	1453.48702
645.855	1397.51009
646.303	1443.41618
646.751	1402.28304
647.199	1394.28
647.647	1400.31901
648.095	1369.27663
648.543	1389.00072
648.99	1367.39868
649.438	1370.36471
649.885	1303.43698
650.333	1350.83293
650.78	1345.4126
651.227	1303.38456
651.674	1239.12681
652.121	1242.31176
652.568	1181.2244
653.015	1256.45063
653.461	1208.20516
653.908	1197.14177
654.354	1202.21617
654.801	1162.11133
655.247	1220.0236
655.693	1126.35049
656.139	1077.05767
656.585	1133.13894
657.031	1088.00037
657.477	1104.85049
657.922	1030.8995
658.368	1023.05487
658.813	1033.93779
659.259	1062.04308
659.704	972.84775
660.149	971.84808
660.594	1002.93622
661.039	919.7278
661.484	974.91522
661.929	927.79665
662.373	859.83884
662.818	894.86648
663.262	873.76911
663.707	887.90206
664.151	882.81866
664.595	848.73442
665.039	864.82847
665.483	780.72236
665.927	861.71539
666.371	776.53904
666.814	814.66632
667.258	746.52835
667.701	831.5177
668.145	766.66115
668.588	722.55503
669.031	681.40855
669.474	701.48618
669.917	755.44612
670.36	685.50522
670.803	708.50593
671.245	683.26137
671.688	671.4559
672.13	598.20157
672.573	651.48245
673.015	632.35926
673.457	631.22281
673.899	633.3757
674.341	604.31455
674.783	620.33399
675.225	564.26215
675.666	567.23575
676.108	579.13524
676.549	577.24109
676.991	579.15343
677.432	559.00413
677.873	544.14968
678.314	529.15866
678.755	510.14302
679.196	489.03393
679.637	504.13834
680.078	546.16953
680.518	480.039
680.959	494.09438
681.399	476.09639
681.839	464.05168
682.28	406.94481
682.72	469.99824
683.16	447.03991
683.6	476.00881
684.039	444.86463
684.479	374.87174
684.919	322.71114
685.358	446.06016
685.798	413.0196
686.237	415.94765
686.676	417.91379
687.115	387.8627
687.554	394.88611
687.993	395.82759
688.432	352.76861
688.871	338.7343
689.309	391.88495
689.748	387.76815
690.186	361.82371
690.625	345.77355
691.063	338.77668
691.501	364.85844
691.939	333.79615
692.377	291.68645
692.815	310.71406
693.253	349.80371
693.69	344.72409
694.128	274.64372
694.565	341.77965
695.003	294.72127
695.44	300.6811
695.877	296.66793
696.314	335.69258
696.751	320.70407
697.188	315.69699
697.625	346.76254
698.061	273.63599
698.498	292.68466
698.934	263.6168
699.371	236.54341
699.807	290.66453
700.243	234.55104
700.679	307.67192
701.115	298.67985
701.551	246.56666
701.987	286.62478
702.422	258.59691
702.858	225.52583
703.294	274.60413
703.729	226.54233
704.164	245.57616
704.599	272.58967
705.035	235.51522
705.47	182.43725
705.904	216.49458
706.339	276.62509
706.774	234.53687
707.209	209.47442
707.643	228.53692
708.078	201.48207
708.512	184.45378
708.946	238.55872
709.38	197.46076
709.814	214.48192
710.248	218.52194
710.682	195.45751
711.116	164.38757
711.549	183.4661
711.983	147.33869
712.416	245.56672
712.85	203.49814
713.283	199.46453
713.716	266.65066
714.149	256.5958
714.582	222.4901
715.015	231.56684
715.448	212.52513
715.881	245.52558
716.313	197.45552
716.746	135.31724
717.178	194.46005
717.61	230.57117
718.043	233.56857
718.475	172.41307
718.907	221.54932
719.339	175.39305
719.77	108.25661
720.202	177.44237
720.634	140.33904
721.065	188.44032
721.497	197.47589
721.928	160.38951
722.359	127.30541
722.79	126.30122
723.221	196.48621
723.652	189.48121
724.083	175.39128
724.514	147.3368
724.945	121.28468
725.375	101.23531
725.806	147.36513
726.236	167.4237
726.666	149.35123
727.096	164.39909
727.526	181.45367
727.956	126.28654
728.386	143.35053
728.816	108.27319
729.246	105.25557
729.675	131.32123
730.105	181.44038
730.534	203.4679
730.964	158.39638
731.393	201.49214
731.822	159.40255
732.251	106.26918
732.68	198.46047
733.109	111.2737
733.537	133.32021
733.966	137.33868
734.395	138.31802
734.823	192.42831
735.251	105.25356
735.68	147.3662
736.108	143.35972
736.536	152.3567
736.964	114.26512
737.392	133.33156
737.82	139.33249
738.247	146.3481
738.675	165.39136
739.102	105.26243
739.53	122.30959
739.957	105.26999
740.384	164.40133
740.811	142.35791
741.238	109.2663
741.665	127.29413
742.092	156.37023
742.519	88.21855
742.945	124.29735
743.372	99.24564
743.798	149.38005
744.225	82.19634
744.651	70.17688
745.077	83.20797
745.503	128.31161
745.929	152.36227
746.355	145.35885
746.781	148.36433
747.207	82.19356
747.632	104.25366
748.058	111.27692
748.483	113.26077
748.908	98.244
749.334	121.29671
749.759	84.19936
750.184	86.20591
750.609	125.30652
751.033	158.37107
751.458	145.32434
751.883	125.30902
752.307	116.27307
752.732	62.15594
753.156	112.27642
753.58	144.34044
754.005	114.28898
754.429	171.3976
754.853	84.20892
755.277	116.27456
755.7	134.33084
756.124	84.20922
756.548	136.3209
756.971	147.35659
757.394	120.30808
757.818	128.32769
758.241	101.25626
758.664	114.28724
759.087	118.26335
759.51	127.31488
759.933	118.28339
760.356	113.28904
760.778	104.25583
761.201	152.36699
761.623	164.39416
762.046	167.39259
762.468	122.29278
762.89	122.30044
763.312	140.33993
763.734	133.31875
764.156	100.24717
764.578	143.32751
765	106.25873
765.421	43.11018
765.843	111.29018
766.264	125.30129
766.686	123.30786
767.107	57.13941
767.528	101.25462
767.949	73.18647
768.37	71.17533
768.791	109.26372
769.212	60.15161
769.632	83.19429
770.053	85.22403
770.473	103.25061
770.894	143.35546
771.314	153.36262
771.734	63.14816
772.154	111.28422
772.575	129.29805
772.994	59.1354
773.414	129.30857
773.834	93.23269
774.254	88.21591
774.673	120.29137
775.093	99.24483
775.512	65.16105
775.931	111.28053
776.351	111.27481
776.77	79.19372
777.189	89.21224
777.607	84.21475
778.026	76.18992
778.445	73.18318
778.864	125.31872
779.282	92.22162
779.701	101.25417
780.119	66.16743
780.537	89.22212
780.955	147.37031
781.373	101.24941
781.791	89.20047
782.209	132.3025
782.627	65.17172
783.045	107.24575
783.462	84.21468
783.88	95.24521
784.297	53.13414
784.715	75.19279
785.132	79.19171
785.549	76.19047
785.966	106.26565
786.383	97.23822
786.8	139.32013
787.217	99.23437
787.633	52.13051
788.05	134.31606
788.466	167.38845
788.883	101.25662
789.299	81.19538
789.715	96.23301
790.131	58.14494
790.547	79.19752
790.963	92.22806
791.379	62.15728
791.795	58.13334
792.21	116.26988
792.626	116.27382
793.041	65.16099
793.457	113.27782
793.872	90.21154
794.287	75.17927
794.702	102.25054
795.117	47.11747
795.532	73.18311
795.947	93.22365
796.362	148.34949
796.776	153.35421
797.191	93.22721
797.605	40.09468
798.02	55.13452
798.434	116.25706
798.848	81.19944
799.262	64.15918
799.676	129.3121
800.09	78.19202
800.504	69.16788
800.918	60.13971
801.331	130.3377
801.745	79.18173
802.158	98.24409
802.572	82.19895
802.985	126.30215
803.398	109.25864
803.811	133.33864
804.224	77.19175
804.637	73.17415
805.05	133.30534
805.462	103.25201
805.875	59.15324
806.288	60.14519
806.7	99.24779
807.112	70.16273
807.525	100.24581
807.937	89.21946
808.349	88.21998
808.761	99.24259
809.173	90.21763
809.584	74.18304
809.996	49.12056
810.408	55.14231
810.819	61.14396
811.231	88.22663
811.642	85.20224
812.053	150.3516
812.464	210.48644
812.875	213.53079
813.286	150.38078
813.697	162.37288
814.108	112.27184
814.519	131.28903
814.929	101.25635
815.34	76.18433
815.75	61.15527
816.16	93.23101
816.571	119.30652
816.981	138.32208
817.391	105.25212
817.801	83.20572
818.211	113.26751
818.62	72.17338
819.03	104.25347
819.44	106.27517
819.849	83.20872
820.259	111.28213
820.668	58.14299
821.077	80.19832
821.486	134.31912
821.895	118.2892
822.304	93.24536
822.713	120.28117
823.122	86.21405
823.531	106.24973
823.939	101.24473
824.348	113.27267
824.756	99.24672
825.164	130.32367
825.573	81.20281
825.981	113.27812
826.389	140.3473
826.797	113.28079
827.205	89.20359
827.612	119.29105
828.02	58.13654
828.428	101.25571
828.835	77.20226
829.243	135.31786
829.65	79.19602
830.057	79.19142
830.464	101.24464
830.871	122.28932
831.278	113.27092
831.685	137.30176
832.092	71.17378
832.499	87.18978
832.905	106.26651
833.312	111.25126
833.718	103.25501
834.124	112.25388
834.531	102.25553
834.937	79.20229
835.343	70.16888
835.749	93.21633
836.155	110.28575
836.561	74.18177
836.966	100.24308
837.372	106.26785
837.777	83.20609
838.183	153.33446
838.588	120.29497
838.993	107.25859
839.399	79.19265
839.804	55.13427
840.209	84.21301
840.613	105.23186
841.018	86.21692
841.423	90.22977
841.828	78.19674
842.232	99.24376
842.637	78.18362
843.041	70.17915
843.445	100.24916
843.849	79.19502
844.253	112.26386
844.657	48.12116
845.061	104.23421
845.465	71.17126
845.869	71.16483
846.272	87.21089
846.676	85.2048
847.079	80.20273
847.483	110.27209
847.886	121.29132
848.289	52.13892
848.692	101.25398
849.095	131.3106
849.498	178.44189
849.901	104.2367
850.304	78.1859
850.707	70.1782
851.109	101.2538
851.512	99.2416
851.914	60.15118
852.316	73.18423
852.718	50.12926
853.121	59.14463
853.523	83.19322
853.925	93.24113
854.326	48.12025
854.728	49.12622
855.13	34.08805
855.531	74.17637
855.933	103.24535
856.334	84.20846
856.736	60.13446
857.137	60.13954
857.538	88.22006
857.939	51.12617
858.34	93.22526
858.741	96.2493
859.142	99.23609
859.542	73.19208
859.943	79.19559
860.343	58.14362
860.744	83.20165
861.144	155.37133
861.544	42.10125
861.945	74.18806
862.345	128.30904
862.745	89.21994
863.145	95.2256
863.544	78.19639
863.944	136.31654
864.344	104.25621
864.743	146.35649
865.143	107.27244
865.542	114.26156
865.941	92.22631
866.34	114.27024
866.74	75.20066
867.139	68.16251
867.537	106.26775
867.936	56.13485
868.335	106.26737
868.734	48.12285
869.132	69.16
869.531	98.23527
869.929	64.14572
870.327	97.23079
870.726	88.21823
871.124	118.27258
871.522	94.23786
871.92	104.25432
872.318	69.16832
872.715	120.29366
873.113	57.1389
873.511	87.21555
873.908	34.08616
874.306	71.1761
874.703	121.29924
875.1	95.24138
875.497	106.25177
875.894	36.08853
876.291	62.15201
876.688	80.20546
877.085	111.26359
877.482	50.12531
877.878	87.20819
878.275	64.16235
878.671	100.22077
879.068	90.2159
879.464	50.121
879.86	73.17208
880.256	126.30697
880.652	81.20508
881.048	81.19981
881.444	113.26606
881.84	82.20743
882.236	80.20027
882.631	100.24345
883.027	98.23545
883.422	81.20617
883.817	55.13821
884.213	91.23203
884.608	55.13487
885.003	69.16594
885.398	51.12774
885.793	75.18759
886.188	14.03506
886.582	126.31918
886.977	87.20524
887.371	80.20143
887.766	54.13431
888.16	99.2451
888.554	112.27408
888.949	114.28322
889.343	87.21128
889.737	39.10417
890.131	125.30958
890.525	128.32309
890.918	82.20535
891.312	92.2186
891.706	112.29095
892.099	130.32638
892.492	71.15271
892.886	92.22355
893.279	72.18284
893.672	103.25994
894.065	94.2337
894.458	67.16812
894.851	97.23583
895.244	77.19585
895.637	91.21768
896.029	76.18509
896.422	106.25651
896.814	113.27792
897.206	79.18724
897.599	145.35266
897.991	95.22794
898.383	117.27312
898.775	114.25421
899.167	10.02352
899.559	88.22141
899.951	123.28611
900.342	91.2299
900.734	0
901.125	106.27564
901.517	96.2338
901.908	104.24702
902.299	39.0956
902.69	51.12041
903.082	127.30333
903.473	71.16945
903.863	71.18059
904.254	94.21645
904.645	97.23936
905.036	73.17609
905.426	106.24018
905.817	65.15916
906.207	97.22919
906.597	77.17925
906.987	119.30492
907.378	64.16155
907.768	79.20793
908.158	110.26538
908.547	51.13178
908.937	126.31918
909.327	81.19568
909.717	142.35483
910.106	81.19354
910.495	94.23294
910.885	88.22149
911.274	81.20142
911.663	117.29358
912.052	99.24223
912.441	71.17995
912.83	62.14208
913.219	133.3433
913.608	73.17815
913.997	64.1601
914.385	121.28534
914.774	110.26498
915.162	89.21061
915.55	119.28433
915.939	65.16369
916.327	92.22798
916.715	68.17281
917.103	106.25834
917.491	97.23804
917.878	94.22935
918.266	86.22171
918.654	87.2209
919.041	19.04987
919.429	81.19013
919.816	72.18187
920.203	84.20251
920.591	92.22648
920.978	111.26886
921.365	102.26533
921.752	87.20604
922.139	104.22335
922.525	69.16518
922.912	78.18932
923.299	49.12185
923.685	97.25107
924.072	91.20825
924.458	78.1923
924.844	80.19694
925.231	83.192
925.617	37.09434
926.003	91.23097
926.389	89.223
926.774	117.29305
927.16	86.21226
927.546	56.14282
927.931	125.30777
928.317	101.23039
928.702	121.28246
929.088	48.11361
929.473	73.18502
929.858	51.1233
930.243	60.14377
930.628	39.0951
931.013	57.14112
931.398	98.22332
931.783	93.24313
932.167	84.20411
932.552	110.27268
932.937	126.30846
933.321	50.12549
933.705	75.18826
934.09	153.37962
934.474	114.26753
934.858	68.17586
935.242	62.14339
935.626	35.08984
936.009	24.06412
936.393	76.19252
936.777	83.21134
937.16	83.21476
937.544	101.23568
937.927	84.21188
938.311	111.26795
938.694	103.27
939.077	70.16697
939.46	103.25051
939.843	82.16995
940.226	96.24431
940.609	44.10116
940.991	53.13486
941.374	87.2112
941.757	106.25892
942.139	57.12787
942.522	103.24101
942.904	101.24049
943.286	96.24197
943.668	58.15005
944.05	78.19117
944.432	61.15025
944.814	79.19358
945.196	21.05146
945.578	41.09763
945.959	82.19101
946.341	136.32861
946.722	89.20735
947.104	111.26227
947.485	91.21009
947.866	51.12848
948.247	94.23532
948.628	110.26538
949.009	81.20632
949.39	39.0973
949.771	98.22584
950.152	85.20728
950.532	34.08388
950.913	107.25536
951.293	37.10017
951.674	75.18057
952.054	66.16307
952.434	90.2218
952.814	92.21717
953.194	107.27734
953.574	127.30842
953.954	93.21906
954.334	100.24699
954.714	69.16757
955.093	94.22927
955.473	72.17933
955.853	89.22885
956.232	63.17232
956.611	87.20724
956.99	80.19998
957.37	65.16521
957.749	113.26637
958.128	52.13098
958.506	49.12714
958.885	94.2354
959.264	46.11282
959.643	94.21204
960.021	76.18744
960.4	86.19352
960.778	85.20805
961.156	45.11292
961.535	101.23308
961.913	82.1907
962.291	95.24181
962.669	70.17669
963.047	123.30986
963.424	65.16545
963.802	35.0863
964.18	124.30963
964.557	63.14475
964.935	129.30101
965.312	40.10434
965.69	76.18943
966.067	80.19374
966.444	94.22978
966.821	73.18745
967.198	102.24506
967.575	126.30548
967.952	69.16202
968.329	103.24817
968.705	120.25349
969.082	71.18142
969.458	39.09375
969.835	112.26949
970.211	66.16891
970.587	96.23702
970.963	100.25431
971.339	61.15898
971.715	166.40577
972.091	88.21519
972.467	101.2496
972.843	59.14618
973.219	120.28436
973.594	77.20047
973.97	130.30472
974.345	100.23706
974.721	118.2821
975.096	92.22087
975.471	95.22342
975.846	108.25661
976.221	61.15461
976.596	59.14119
976.971	85.20851
977.346	130.29791
977.72	90.22766
978.095	106.27128
978.469	88.20853
978.844	136.33664
979.218	28.0674
979.593	62.14822
979.967	86.20811
980.341	85.19436
980.715	63.15837
981.089	64.15981
981.463	78.1781
981.837	28.0687
982.21	134.30671
982.584	78.1874
982.957	51.12733
983.331	119.27757
983.704	74.18103
984.078	68.16703
984.451	93.2305
984.824	11.02698
985.197	96.23117
985.57	86.21428
985.943	101.24712
986.316	134.32414
986.688	62.14919
987.061	99.22983
987.434	69.17922
987.806	87.20954
988.179	80.18767
988.551	98.24648
988.923	69.16933
989.295	124.3057
989.667	52.12417
990.039	36.08918
990.411	97.22117
990.783	94.21455
991.155	39.0939
991.527	147.35552
991.898	45.11223
992.27	72.17738
992.641	98.24374
993.012	130.30114
993.384	84.19905
993.755	55.14009
994.126	109.25924
994.497	53.13002
994.868	80.18267
995.239	70.16901
995.61	74.18539
995.98	36.08767
996.351	23.05724
996.722	43.09987
997.092	44.10431
997.462	61.14217
997.833	87.20477
998.203	69.16669
998.573	76.18833
998.943	78.1819
999.313	68.16238
999.683	26.06268
1000.053	83.18971
1000.423	88.21231
1000.792	78.20116
1001.162	96.23423
1001.531	48.11838
1001.901	94.23243
1002.27	120.26437
1002.639	93.23579
1003.009	86.20308
1003.378	70.17833
1003.747	114.26596
1004.116	67.15978
1004.485	115.2714
1004.853	92.23131
1005.222	78.19569
1005.591	108.25355
1005.959	42.09478
1006.328	48.10805
1006.696	80.19184
1007.064	96.23946
1007.433	101.25005
1007.801	130.31435
1008.169	88.2207
1008.537	69.15217
1008.905	54.12569
1009.273	91.22307
1009.64	89.2107
1010.008	109.25685
1010.375	125.29923
1010.743	122.27767
1011.11	13.03098
1011.478	90.22107
1011.845	73.17088
1012.212	62.13997
1012.579	89.21687
1012.946	101.23799
1013.313	74.17529
1013.68	86.19185
1014.047	67.15911
1014.414	27.06404
1014.78	48.1193
1015.147	100.23953
1015.513	99.23627
1015.88	132.33259
1016.246	96.23493
1016.612	76.17305
1016.978	81.1973
1017.344	83.20383
1017.71	96.23205
1018.076	121.28135
1018.442	113.28742
1018.808	51.12742
1019.174	58.14525
1019.539	147.33179
1019.905	68.15977
1020.27	65.15993
1020.636	108.25602
1021.001	86.20442
1021.366	58.13903
1021.731	105.26735
1022.096	21.05323
1022.461	71.1673
1022.826	78.18433
1023.191	57.14932
1023.556	73.17028
1023.92	100.24354
1024.285	114.27483
1024.649	86.20929
1025.014	97.23813
1025.378	81.20245
1025.742	86.2121
1026.107	74.16652
1026.471	127.29191
1026.835	63.15575
1027.199	42.10122
1027.562	66.15289
1027.926	78.18968
1028.29	89.22357
1028.654	134.30301
1029.017	102.24822
1029.381	73.17355
1029.744	71.18034
1030.107	100.23422
1030.471	107.25331
1030.834	75.1697
1031.197	87.20803
1031.56	70.16447
1031.923	38.09841
1032.286	122.28238
1032.648	121.28534
1033.011	50.11472
1033.374	100.23266
1033.736	50.1314
1034.099	130.31197
1034.461	50.12625
1034.823	80.19803
1035.185	89.22236
1035.548	63.15288
1035.91	85.20216
1036.272	65.14743
1036.634	96.23275
1036.995	70.16382
1037.357	56.13603
1037.719	54.13117
1038.08	100.23504
1038.442	96.22573
1038.803	91.21668
1039.165	64.16103
1039.526	71.17081
1039.887	75.17851
1040.248	48.11825
1040.609	108.2639
1040.97	83.20149
1041.331	58.14656
1041.692	45.10509
1042.053	108.24292
1042.413	102.23516
1042.774	104.25025
1043.134	97.22875
1043.495	103.25631
1043.855	87.20946
1044.215	74.18277
1044.576	74.17603
1044.936	108.24461
1045.296	127.31235
1045.656	58.14204
1046.016	126.29961
1046.375	95.22837
1046.735	69.15574
1047.095	81.18834
1047.454	103.21562
1047.814	129.30527
1048.173	110.25965
1048.533	106.23999
1048.892	-5.01212
1049.251	128.31661
1049.61	53.13035
1049.969	51.12013
1050.328	100.21439
1050.687	88.21247
1051.046	69.16732
1051.405	78.19294
1051.763	65.14893
1052.122	54.1345
1052.48	97.23566
1052.839	108.25107
1053.197	53.1246
1053.555	74.16781
1053.914	101.24455
1054.272	106.25341
1054.63	75.18241
1054.988	37.08807
1055.345	103.21915
1055.703	97.23123
1056.061	69.17681
1056.419	98.25142
1056.776	103.24713
1057.134	78.17947
1057.491	79.19666
1057.848	99.24412
1058.206	79.18463
1058.563	103.2244
1058.92	125.28364
1059.277	113.27535
1059.634	93.21684
1059.991	96.22784
1060.348	39.08828
1060.704	49.11672
1061.061	138.31485
1061.418	65.15709
1061.774	75.18419
1062.131	69.18174
1062.487	88.20409
1062.843	95.23477
1063.199	97.23901
1063.555	61.14094
1063.911	47.1187
1064.267	133.27213
1064.623	62.15015
1064.979	138.32119
1065.335	116.2736
1065.691	80.19052
1066.046	71.15534
1066.402	79.17831
1066.757	40.10108
1067.112	87.21192
1067.468	58.13664
1067.823	91.21693
1068.178	93.22297
1068.533	77.1856
1068.888	104.24578
1069.243	73.17928
1069.598	91.21926
1069.952	46.10359
1070.307	63.15546
1070.662	66.1561
1071.016	60.13407
1071.371	70.15848
1071.725	120.28304
1072.079	99.23573
1072.434	57.13822
1072.788	76.17996
1073.142	66.16176
1073.496	33.07849
1073.85	69.1593
1074.203	115.2754
1074.557	58.15392
1074.911	132.30989
1075.265	129.29497
1075.618	101.24409
1075.971	94.22154
1076.325	63.15962
1076.678	73.16605
1077.031	83.18642
1077.385	111.24121
1077.738	87.19476
1078.091	20.04572
1078.444	132.30128
1078.796	59.14441
1079.149	90.22205
1079.502	25.0593
1079.855	63.14643
1080.207	105.25586
1080.56	47.12144
1080.912	118.28339
1081.264	91.21726
1081.617	92.22229
1081.969	45.11353
1082.321	86.20842
1082.673	50.11403
1083.025	78.18391
1083.377	-133.29651
1083.728	101.23308
1084.08	64.15923
1084.432	77.18461
1084.783	124.2861
1085.135	92.22865
1085.486	63.14365
1085.838	64.15709
1086.189	79.19056
1086.54	103.24327
1086.891	59.14885
1087.242	91.21967
1087.593	87.21017
1087.944	90.20185
1088.295	126.28178
1088.646	62.14981
1088.996	54.12989
1089.347	47.1153
1089.698	30.07112
1090.048	50.12975
1090.398	56.12962
1090.749	58.13845
1091.099	-4.01015
1091.449	95.23451
1091.799	81.20149
1092.149	36.08794
1092.499	100.24144
1092.849	66.16713
1093.199	115.28461
1093.548	72.17213
1093.898	70.17435
1094.248	82.20934
1094.597	17.04361
1094.947	90.23828
1095.296	68.16721
1095.645	81.20937
1095.994	81.19324
1096.343	92.22956
1096.692	64.16757
1097.041	40.10838
1097.39	69.17233
1097.739	76.19648
1098.088	73.19466
1098.437	40.10516
1098.785	85.22764
1099.134	94.24754
1099.482	85.23227
1099.83	106.27564
1100.179	61.15865
1100.527	74.19566
1100.875	38.10058
1101.223	81.21377
1101.571	49.13531
1101.919	-7.01845
1102.267	42.11828
1102.615	13.04175
1102.962	19.06111
1103.31	13.04173
1103.658	29.09321
