Data from N2 R15 sample 2_Subt2__1__15-35-58-491.txt Node

Date: Tue Sep 02 15:35:58 PDT 2025
User: uwsun
Spectrometer: HDX01956
Trigger mode: 0
Integration Time (sec): 5.000000E-1
Scans to average: 1
Nonlinearity correction enabled: true
Boxcar width: 0
Storing dark spectrum: false
XAxis mode: Wavelengths
Number of Pixels in Spectrum: 2068
>>>>>Begin Spectral Data<<<<<
194.03	312.83308
194.578	282.86014
195.127	298.89268
195.676	292.8783
196.225	395.97773
196.773	397.01605
197.321	520.27176
197.87	756.60603
198.418	773.61118
198.966	751.58398
199.513	637.30213
200.061	663.37372
200.609	719.57073
201.156	719.23348
201.704	675.38553
202.251	719.55419
202.798	711.50543
203.345	781.54501
203.892	726.47728
204.438	774.47008
204.985	676.28302
205.532	726.55295
206.078	812.57233
206.624	725.42671
207.17	705.31313
207.716	784.50068
208.262	745.13435
208.808	706.39024
209.354	714.39284
209.899	809.63555
210.445	775.52454
210.99	758.44454
211.535	836.53185
212.08	836.51109
212.625	776.55408
213.17	769.56595
213.715	720.2527
214.259	845.52856
214.804	815.59732
215.348	830.47505
215.892	827.5553
216.436	799.45914
216.98	835.42998
217.524	752.41297
218.068	776.56912
218.612	777.57293
219.155	757.41645
219.698	765.4519
220.242	788.57887
220.785	693.31183
221.328	652.34277
221.871	770.58326
222.414	696.42323
222.956	666.30644
223.499	666.21488
224.041	730.37358
224.583	707.2284
225.126	686.21672
225.668	692.36903
226.21	663.37311
226.751	638.12729
227.293	725.33108
227.835	653.30895
228.376	743.37788
228.918	713.47547
229.459	672.3685
230	678.31374
230.541	746.37349
231.082	675.33565
231.622	724.34025
232.163	667.31857
232.704	627.28397
233.244	677.37338
233.784	697.39792
234.324	649.14111
234.864	734.32297
235.404	673.30745
235.944	685.32132
236.484	756.52305
237.023	731.38052
237.563	705.30403
238.102	718.36288
238.641	707.45652
239.18	676.27117
239.719	712.45204
240.258	739.31739
240.797	699.34578
241.335	745.46544
241.874	750.10108
242.412	746.42782
242.95	706.34853
243.488	719.3068
244.026	692.27516
244.564	800.2579
245.102	718.27493
245.64	746.44021
246.177	747.31796
246.715	839.57405
247.252	702.29168
247.789	780.11869
248.326	703.34636
248.863	695.20368
249.4	709.28206
249.936	745.18298
250.473	732.34901
251.009	728.31281
251.546	718.24328
252.082	742.26997
252.618	764.32033
253.154	771.45407
253.69	743.31089
254.226	719.36445
254.761	714.26387
255.297	736.25361
255.832	762.41424
256.367	773.42508
256.903	778.31466
257.438	744.38008
257.972	808.37955
258.507	734.31082
259.042	718.21696
259.576	732.2113
260.111	783.40897
260.645	783.3013
261.179	738.34786
261.713	746.28573
262.247	748.34964
262.781	748.19694
263.315	761.46115
263.849	715.42351
264.382	721.30513
264.915	770.39509
265.449	744.41026
265.982	837.45028
266.515	783.48685
267.048	795.2677
267.58	845.39464
268.113	769.26323
268.646	750.4521
269.178	773.31716
269.71	857.39888
270.243	803.40447
270.775	806.59713
271.307	811.51171
271.838	852.55104
272.37	786.50234
272.902	835.43839
273.433	807.32952
273.965	786.48205
274.496	839.60961
275.027	787.51478
275.558	801.49377
276.089	781.47296
276.62	818.61943
277.15	801.5329
277.681	815.3316
278.211	812.5364
278.741	793.30928
279.272	854.45127
279.802	860.63768
280.332	780.40392
280.861	824.50906
281.391	819.39051
281.921	816.50339
282.45	865.64522
282.98	841.68946
283.509	860.43007
284.038	828.41
284.567	844.4845
285.096	823.50836
285.625	844.41957
286.153	838.46469
286.682	823.40108
287.21	831.50165
287.739	854.50056
288.267	802.46573
288.795	851.71506
289.323	807.40408
289.851	899.54236
290.378	873.42747
290.906	815.47192
291.433	928.7025
291.961	847.39949
292.488	838.56638
293.015	862.48305
293.542	879.64761
294.069	901.61933
294.596	928.68373
295.122	850.49351
295.649	875.38858
296.175	939.65074
296.702	958.67502
297.228	954.675
297.754	905.44541
298.28	976.54289
298.806	917.58341
299.332	932.43424
299.857	933.47675
300.383	1000.81651
300.908	881.53399
301.433	930.60804
301.958	1003.61351
302.483	921.64605
303.008	998.74516
303.533	966.82121
304.058	1027.6756
304.582	991.61123
305.107	884.67694
305.631	1046.61999
306.155	993.57843
306.679	945.525
307.203	1016.59536
307.727	1008.63669
308.251	979.68899
308.775	1005.60853
309.298	977.59372
309.822	1070.8421
310.345	1084.70266
310.868	1101.73398
311.391	1061.76703
311.914	1128.8683
312.437	1077.61149
312.96	1094.67696
313.482	1075.66756
314.005	1061.78443
314.527	1067.89304
315.049	1141.90186
315.571	1082.50342
316.093	1182.86706
316.615	1143.7489
317.137	1162.53224
317.659	1233.87199
318.18	1228.84284
318.702	1218.71781
319.223	1200.41967
319.744	1282.66406
320.265	1195.76565
320.786	1222.83158
321.307	1292.92225
321.828	1347.71122
322.348	1274.7433
322.869	1287.73683
323.389	1429.02332
323.909	1287.67796
324.43	1396.91214
324.95	1336.67669
325.47	1336.84913
325.989	1345.73449
326.509	1369.55168
327.029	1428.63751
327.548	1365.58328
328.067	1419.7929
328.587	1392.8894
329.106	1493.66967
329.625	1512.17397
330.144	1455.66472
330.662	1545.70165
331.181	1488.70515
331.7	1581.74228
332.218	1496.47409
332.736	1580.71779
333.255	1551.66521
333.773	1589.72314
334.291	1676.95154
334.808	1665.53877
335.326	1738.59133
335.844	1687.60676
336.361	1691.86826
336.879	1700.59527
337.396	1721.69556
337.913	1853.56088
338.43	1860.47811
338.947	1792.63134
339.464	1747.28029
339.981	1814.57192
340.497	1866.73674
341.014	1947.66488
341.53	1869.37425
342.046	1917.6408
342.562	2011.73101
343.078	1976.48403
343.594	1991.52471
344.11	2043.49341
344.626	2053.67208
345.141	2063.3017
345.657	2123.30433
346.172	2084.4662
346.687	2065.27394
347.202	2148.16711
347.717	2177.36561
348.232	2208.52199
348.747	2161.19621
349.261	2132.95789
349.776	2261.21741
350.29	2187.33063
350.805	2429.37218
351.319	2372.11747
351.833	2311.9707
352.347	2280.11526
352.861	2391.02706
353.374	2399.02312
353.888	2438.14498
354.401	2414.93868
354.915	2466.75931
355.428	2444.14671
355.941	2550.84262
356.454	2556.77642
356.967	2581.90265
357.48	2513.8188
357.993	2619.00347
358.505	2512.96072
359.018	2728.87751
359.53	2728.76565
360.042	2745.49952
360.554	2683.81526
361.066	2705.77549
361.578	2690.40577
362.09	2709.6814
362.602	2723.36804
363.113	2823.4682
363.625	2754.37141
364.136	2909.22298
364.647	2744.33909
365.158	3002.28488
365.669	2922.41679
366.18	2945.32965
366.691	2957.08938
367.201	3009.28764
367.712	2961.10088
368.222	3040.04977
368.733	3149.7653
369.243	3157.77924
369.753	3251.86668
370.263	3238.94266
370.773	3218.02948
371.282	3185.84602
371.792	3225.56207
372.301	3444.60278
372.811	3551.78079
373.32	3429.15638
373.829	3498.3003
374.338	3843.95848
374.847	3833.95774
375.356	3958.90669
375.865	4110.62513
376.373	4300.62948
376.882	4548.7357
377.39	4527.64101
377.898	4515.59152
378.407	4840.68419
378.915	5062.88618
379.423	5145.91422
379.93	5392.31532
380.438	5401.42378
380.946	5948.63866
381.453	6009.06145
381.96	6154.0433
382.468	6529.3694
382.975	7254.24764
383.482	7544.16425
383.989	7426.74985
384.495	7630.27074
385.002	7914.63295
385.509	8392.09025
386.015	8961.24803
386.521	9278.13123
387.028	9837.89289
387.534	9990.7358
388.04	10560.13018
388.546	10505.4811
389.051	10932.75868
389.557	11863.76405
390.063	13427.2999
390.568	13545.1652
391.073	13954.63072
391.578	14373.85313
392.084	14809.73968
392.589	14817.46267
393.093	15704.21084
393.598	17487.33953
394.103	19117.58363
394.607	20983.23944
395.112	22606.99773
395.616	24003.18557
396.12	25691.07231
396.624	28080.30801
397.128	30862.53605
397.632	34794.89687
398.136	37252.38469
398.639	35441.19175
399.143	32077.5605
399.646	28888.45294
400.15	25083.82847
400.653	20124.16724
401.156	13866.23708
401.659	5169.95759
402.162	1054.15589
402.664	0
403.167	0
403.67	0
404.172	0
404.674	0
405.176	0
405.678	0
406.18	0
406.682	0
407.184	0
407.686	0
408.187	0
408.688	0
409.19	0
409.691	0
410.192	0
410.693	0
411.194	435.30976
411.694	4082.94878
412.195	8864.71461
412.696	12089.80453
413.196	12760.96929
413.696	12863.67595
414.196	13703.56671
414.696	17261.84252
415.196	21764.24417
415.696	29583.19008
416.196	36460.31858
416.695	40057.39798
417.195	41392.74103
417.694	41967.85654
418.194	40524.12054
418.693	37088.7157
419.192	35788.7754
419.691	35522.70609
420.19	34929.27914
420.688	34524.54325
421.187	33102.24331
421.685	31042.6576
422.184	28838.53973
422.682	25115.93058
423.18	20913.26347
423.678	18617.92917
424.176	17076.2608
424.674	15954.15328
425.172	15442.87225
425.669	14744.08467
426.167	13796.98172
426.664	12459.56614
427.161	11421.33443
427.659	10536.53595
428.156	9845.54527
428.652	9235.98033
429.149	8706.55464
429.646	8435.451
430.143	8122.86583
430.639	7648.7135
431.135	7057.04427
431.632	6755.0263
432.128	6283.03326
432.624	5698.60584
433.12	5624.88064
433.616	5533.67119
434.111	5233.09673
434.607	4922.74494
435.103	4947.79106
435.598	4859.71587
436.093	4535.60351
436.588	4426.61584
437.083	4237.69113
437.578	3936.86074
438.073	3737.09001
438.568	3718.25433
439.062	3502.07246
439.557	3521.39958
440.051	3264.44497
440.546	3121.56229
441.04	3087.78213
441.534	3053.05789
442.028	3126.9135
442.522	2972.0032
443.015	2907.81595
443.509	2878.22384
444.002	2809.26756
444.496	2736.00275
444.989	2625.42735
445.482	2704.45533
445.975	2619.17625
446.468	2610.08564
446.961	2519.14807
447.454	2453.36967
447.947	2410.49964
448.439	2421.66275
448.931	2273.45372
449.424	2411.84686
449.916	2388.72698
450.408	2229.5355
450.9	2201.78155
451.392	2205.94416
451.884	2055.74706
452.375	2029.94458
452.867	2056.76892
453.358	2058.71471
453.849	1955.61025
454.341	1901.78553
454.832	1930.67296
455.323	1910.0241
455.814	1923.90192
456.304	2002.91122
456.795	1890.92124
457.285	1894.91133
457.776	1840.01336
458.266	1798.06997
458.756	1768.15522
459.247	1699.09481
459.737	1613.10337
460.226	1655.98147
460.716	1669.16703
461.206	1589.20173
461.695	1603.35885
462.185	1563.18849
462.674	1578.15546
463.163	1535.06486
463.653	1544.95116
464.142	1538.28499
464.63	1457.34166
465.119	1341.15132
465.608	1335.15681
466.096	1430.10069
466.585	1368.23791
467.073	1358.33369
467.561	1333.34132
468.05	1413.30693
468.538	1364.44008
469.026	1274.33577
469.513	1217.04124
470.001	1268.21926
470.489	1194.27975
470.976	1166.23843
471.463	1148.41213
471.951	1100.40628
472.438	1122.27417
472.925	1007.18424
473.412	1107.41191
473.899	1071.2455
474.385	1003.33379
474.872	1053.26349
475.359	989.31591
475.845	976.02102
476.331	955.11429
476.817	932.30121
477.303	861.14687
477.789	876.23355
478.275	840.24663
478.761	845.2203
479.247	916.17737
479.732	794.21534
480.218	796.31389
480.703	827.27615
481.188	746.96722
481.673	745.06128
482.158	710.91098
482.643	750.25693
483.128	717.03087
483.612	722.08649
484.097	696.13759
484.581	682.04891
485.066	591.98231
485.55	622.89693
486.034	600.86084
486.518	574.92019
487.002	546.93225
487.486	569.97129
487.969	560.96029
488.453	585.05201
488.936	575.89691
489.42	600.91662
489.903	554.01324
490.386	59.0757
490.869	520.80891
491.352	547.98306
491.835	489.72407
492.318	479.7855
492.8	568.82149
493.283	495.93715
493.765	424.78839
494.247	510.88669
494.73	432.71175
495.212	427.79298
495.694	389.69005
496.175	373.67234
496.657	429.77766
497.139	463.58388
497.62	313.57661
498.102	390.74935
498.583	453.87566
499.064	357.61091
499.545	355.63005
500.026	333.58117
500.507	402.72147
500.988	355.69904
501.469	264.5327
501.949	350.68968
502.43	302.56822
502.91	270.43982
503.39	310.62839
503.87	288.54055
504.35	356.66951
504.83	287.49982
505.31	305.59323
505.79	241.46874
506.269	294.55535
506.749	263.48401
507.228	248.47259
507.707	264.47181
508.187	312.60496
508.666	195.39646
509.145	234.44678
509.623	248.47627
510.102	219.43997
510.581	296.58574
511.059	249.5134
511.538	268.57579
512.016	272.53346
512.494	271.54268
512.972	273.53478
513.45	203.38674
513.928	264.52609
514.406	158.31735
514.884	247.5285
515.361	209.41775
515.839	213.40244
516.316	267.52972
516.793	299.62702
517.27	238.48355
517.747	197.42663
518.224	242.46609
518.701	240.4429
519.178	187.3899
519.654	228.45646
520.131	206.42981
520.607	223.46765
521.083	144.28001
521.56	207.41164
522.036	247.4509
522.512	223.46641
522.987	131.26524
523.463	229.45687
523.939	244.50434
524.414	259.50063
524.89	206.41395
525.365	191.36583
525.84	139.28144
526.315	164.33746
526.79	242.4569
527.265	210.40446
527.74	162.33845
528.215	231.45915
528.689	202.37744
529.164	214.39254
529.638	215.47296
530.112	175.35157
530.587	171.30868
531.061	180.37022
531.534	232.47824
532.008	199.40717
532.482	197.38627
532.956	175.38271
533.429	237.48734
533.903	247.46073
534.376	227.42384
534.849	252.49306
535.322	215.43253
535.795	206.43152
536.268	242.4928
536.741	252.51363
537.213	257.50201
537.686	238.49127
538.158	216.40861
538.631	341.69234
539.103	215.40781
539.575	311.53704
540.047	288.52882
540.519	305.61274
540.991	318.65434
541.463	307.62416
541.934	348.65768
542.406	353.6951
542.877	389.71664
543.348	344.69285
543.82	359.73354
544.291	446.84581
544.762	354.69231
545.233	380.78578
545.703	428.75945
546.174	435.8179
546.645	433.83057
547.115	490.94197
547.585	559.00207
548.056	537.00958
548.526	607.08999
548.996	644.18535
549.466	710.31363
549.935	720.2593
550.405	732.16394
550.875	752.30713
551.344	841.45646
551.814	825.35927
552.283	1005.47248
552.752	948.51651
553.221	1017.45466
553.69	1124.61128
554.159	1081.77882
554.628	1215.69249
555.096	1257.06195
555.565	1307.78141
556.033	1420.04523
556.502	1435.14572
556.97	1534.97066
557.438	1565.20615
557.906	1652.29206
558.374	1701.21315
558.842	1919.47863
559.31	2051.29782
559.777	1985.55246
560.245	2295.58221
560.712	2390.53549
561.18	2578.31704
561.647	2692.37702
562.114	2922.43292
562.581	3087.85633
563.048	3367.42038
563.514	3553.68528
563.981	3917.14686
564.448	4098.93014
564.914	4346.0325
565.381	4674.71814
565.847	4981.71761
566.313	5409.45809
566.779	5654.16854
567.245	5866.29367
567.711	6367.29295
568.176	6702.9598
568.642	7097.5384
569.108	7501.59881
569.573	8061.92357
570.038	8339.11392
570.504	8711.78902
570.969	9375.19062
571.434	9745.36868
571.899	10454.55474
572.363	10841.3312
572.828	11311.49863
573.293	11833.31586
573.757	12286.04752
574.222	12622.62448
574.686	13170.58834
575.15	13535.66473
575.614	13972.78924
576.078	14353.84246
576.542	14632.87625
577.006	15049.16095
577.469	15352.41106
577.933	15507.09972
578.396	15701.89894
578.86	15742.51543
579.323	15790.89027
579.786	15889.85171
580.249	15883.79455
580.712	15870.12546
581.175	15801.24722
581.637	15861.1358
582.1	15697.26935
582.563	15352.95748
583.025	15274.0758
583.487	15072.22054
583.95	14932.79707
584.412	14647.20782
584.874	14521.73561
585.336	14213.32625
585.797	13861.56949
586.259	13384.41687
586.721	12907.9928
587.182	12624.96597
587.643	12256.89231
588.105	11756.58621
588.566	11666.96499
589.027	11054.98251
589.488	10790.06172
589.949	10333.02212
590.41	10019.65643
590.87	9855.58317
591.331	9467.54921
591.791	9062.49882
592.252	8970.30378
592.712	8643.74296
593.172	8156.94027
593.632	8032.75
594.092	7690.43078
594.552	7646.30589
595.011	7327.25636
595.471	7084.07528
595.931	6634.95898
596.39	6475.29093
596.849	6446.16006
597.308	6258.86505
597.768	6117.72688
598.227	5926.47525
598.685	5829.25932
599.144	5618.41266
599.603	5417.589
600.062	5381.92774
600.52	5251.29747
600.978	5059.77799
601.437	5018.59821
601.895	4902.2229
602.353	4897.48547
602.811	4748.55524
603.269	4562.11058
603.727	4532.12474
604.184	4373.82787
604.642	4418.33309
605.099	4342.03741
605.557	4178.43959
606.014	4154.69972
606.471	4011.62793
606.928	4098.67769
607.385	3933.47193
607.842	4114.05527
608.299	4046.22059
608.755	3970.44336
609.212	3871.01073
609.668	3769.01579
610.125	3800.55973
610.581	3878.48175
611.037	3759.31067
611.493	3645.55153
611.949	3379.71219
612.405	3435.75719
612.861	3410.63707
613.316	3356.69392
613.772	3392.48081
614.227	3348.63639
614.683	3300.18377
615.138	3252.62434
615.593	3135.62425
616.048	3214.55449
616.503	3206.96273
616.958	3071.07165
617.412	3054.7613
617.867	2969.41297
618.321	2987.14725
618.776	2923.47091
619.23	2830.76955
619.684	2949.58921
620.138	2838.75556
620.592	2694.96933
621.046	2749.81859
621.5	2644.97796
621.954	2651.63514
622.407	2559.57983
622.861	2504.97569
623.314	2482.68419
623.768	2370.76107
624.221	2352.08953
624.674	2301.70691
625.127	2320.78796
625.58	2288.69382
626.033	2325.57315
626.485	2143.83198
626.938	2187.8467
627.39	2151.73741
627.843	2172.73063
628.295	2033.67385
628.747	2013.77975
629.199	2062.62862
629.651	1972.58556
630.103	1966.62011
630.555	1922.3232
631.006	1926.70673
631.458	1924.72918
631.909	1928.65392
632.361	1831.64403
632.812	1808.58873
633.263	1836.37442
633.714	1852.36836
634.165	1740.7434
634.616	1761.68812
635.067	1760.45534
635.518	1682.64946
635.968	1689.09917
636.419	1673.33418
636.869	1589.56789
637.319	1606.48252
637.769	1615.3821
638.219	1578.58619
638.669	1572.56495
639.119	1550.63234
639.569	1556.59618
640.019	1576.48226
640.468	1495.30055
640.918	1569.62016
641.367	1430.25806
641.816	1535.34624
642.265	1531.44995
642.714	1505.42832
643.163	1506.41163
643.612	1474.50647
644.061	1416.08227
644.51	1432.31157
644.958	1439.21487
645.406	1426.45801
645.855	1447.5674
646.303	1441.41411
646.751	1372.25246
647.199	1425.31111
647.647	1432.35165
648.095	1416.32519
648.543	1442.04401
648.99	1415.45245
649.438	1431.43097
649.885	1408.56652
650.333	1436.89687
650.78	1412.49023
651.227	1325.41166
651.674	1334.23319
652.121	1389.49313
652.568	1311.39207
653.015	1403.64381
653.461	1324.34761
653.908	1377.35246
654.354	1303.34291
654.801	1318.3021
655.247	1312.12247
655.693	1327.64835
656.139	1339.39935
656.585	1368.4372
657.031	1253.21034
657.477	1324.08823
657.922	1329.27002
658.368	1344.50345
658.813	1367.3564
659.259	1264.31583
659.704	1314.29269
660.149	1332.31576
660.594	1285.31629
661.039	1378.30355
661.484	1335.40434
661.929	1352.35808
662.373	1296.5134
662.818	1311.48556
663.262	1284.35965
663.707	1341.59534
664.151	1308.44097
664.595	1228.29686
665.039	1318.51394
665.483	1289.54407
665.927	1293.32014
666.371	1279.24241
666.814	1300.37133
667.258	1305.33938
667.701	1367.16581
668.145	1424.65815
668.588	1267.4112
669.031	1291.30947
669.474	1332.43843
669.917	1289.15567
670.36	1379.5909
670.803	1406.54107
671.245	1370.10591
671.688	1331.48463
672.13	1333.23211
672.573	1395.70008
673.015	1386.50225
673.457	1373.19891
673.899	1427.58243
674.341	1380.51277
674.783	1376.48412
675.225	1363.55078
675.666	1324.42615
676.108	1380.2046
676.549	1427.51487
676.991	1373.23983
677.432	1374.96811
677.873	1451.46647
678.314	1434.54749
678.755	1371.53199
679.196	1424.40416
679.637	1505.7105
680.078	1433.48902
680.518	1494.5434
680.959	1504.63829
681.399	1427.66572
681.839	1524.71647
682.28	1482.71275
682.72	1444.42636
683.16	1492.7583
683.6	1542.52116
684.039	1565.25463
684.479	1414.61619
684.919	1513.51368
685.358	1562.91662
685.798	1555.02763
686.237	1624.80589
686.676	1570.60979
687.115	1619.69407
687.554	1625.73639
687.993	1630.49817
688.432	1669.63998
688.871	1617.56706
689.309	1702.82951
689.748	1736.39231
690.186	1735.8669
690.625	1667.72808
691.063	1702.84637
691.501	1672.93777
691.939	1752.0466
692.377	1799.00025
692.815	1806.92461
693.253	1843.986
693.69	1839.62823
694.128	1830.99668
694.565	1870.97092
695.003	1902.26509
695.44	1860.9001
695.877	1922.91619
696.314	1936.61115
696.751	1974.86569
697.188	1967.88045
697.625	2112.97414
698.061	2030.10727
698.498	2067.17859
698.934	2064.15109
699.371	2109.06798
699.807	2081.07939
700.243	2090.16015
700.679	2172.93621
701.115	2233.14747
701.551	2188.12148
701.987	2195.91794
702.422	2173.14607
702.858	2280.21652
703.294	2300.98995
703.729	2314.37052
704.164	2269.26277
704.599	2330.91898
705.035	2330.93485
705.47	2398.36923
705.904	2422.15837
706.339	2460.17633
706.774	2492.20878
707.209	2415.10459
707.643	2392.3068
708.078	2449.39981
708.512	2361.49943
708.946	2501.33924
709.38	2462.26308
709.814	2495.09123
710.248	2543.44102
710.682	2517.29483
711.116	2452.28081
711.549	2435.72247
711.983	2498.14053
712.416	2537.27678
712.85	2463.53695
713.283	2521.27237
713.716	2473.59033
714.149	2513.31509
714.582	2429.98344
715.015	2477.57268
715.448	2459.59931
715.881	2426.86823
716.313	2382.17565
716.746	2385.1972
717.178	2362.29669
717.61	2369.59027
718.043	2340.48083
718.475	2275.30138
718.907	2322.56124
719.339	2259.96489
719.77	2212.15273
720.202	2184.46504
720.634	2230.29006
721.065	2176.14005
721.497	2157.29097
721.928	2109.26482
722.359	2073.15135
722.79	2053.10953
723.221	2027.33404
723.652	2022.45494
724.083	1946.79005
724.514	1990.89637
724.945	1834.8803
725.375	1885.86004
725.806	1899.19427
726.236	1779.19751
726.666	1804.88742
727.096	1847.07115
727.526	1738.11317
727.956	1708.64964
728.386	1701.95289
728.816	1613.96453
729.246	1626.82114
729.675	1534.77063
730.105	1599.8472
730.534	1533.59565
730.964	1527.86845
731.393	1502.77686
731.822	1473.83793
732.251	1455.79122
732.68	1463.54938
733.109	1411.63316
733.537	1331.4676
733.966	1380.61989
734.395	1295.29184
734.823	1345.28528
735.251	1240.34322
735.68	1318.57064
736.108	1258.51679
736.536	1253.30192
736.964	1214.20504
737.392	1164.34661
737.82	1149.21034
738.247	1146.20088
738.675	1154.20781
739.102	1068.19301
739.53	1132.34434
739.957	1071.27635
740.384	1067.164
740.811	1009.13797
741.238	990.0135
741.665	974.87307
742.092	948.90159
742.519	900.89724
742.945	899.83262
743.372	945.97519
743.798	898.98051
744.225	839.71406
744.651	872.88071
745.077	814.76455
745.503	842.77103
745.929	845.74191
746.355	864.85074
746.781	783.69696
747.207	717.48045
747.632	715.54092
748.058	746.64176
748.483	800.59039
748.908	740.62243
749.334	696.52077
749.759	693.44811
750.184	636.35966
750.609	702.53324
751.033	709.48289
751.458	685.35927
751.883	676.49817
752.307	584.24674
752.732	564.28699
753.156	608.36017
753.58	629.34439
754.005	602.38979
754.429	572.22214
754.853	543.23428
755.277	581.24863
755.7	560.27118
756.124	485.11693
756.548	498.08996
756.971	551.23226
757.394	486.1647
757.818	447.07738
758.241	489.15208
758.664	494.15689
759.087	414.8672
759.51	489.12929
759.933	375.85634
760.356	408.98897
760.778	398.92547
761.201	478.0804
761.623	435.99131
762.046	440.979
762.468	456.02221
762.89	405.9449
763.312	382.88512
763.734	373.8528
764.156	341.8053
764.578	406.8805
765	358.83249
765.421	296.72456
765.843	381.94964
766.264	379.8693
766.686	344.82637
767.107	358.82624
767.528	283.69005
767.949	325.79302
768.37	306.72281
768.791	291.67978
769.212	245.59852
769.632	246.55738
770.053	249.63798
770.473	311.72707
770.894	277.67164
771.314	305.70156
771.734	229.52108
772.154	268.66721
772.575	289.64641
772.994	229.50757
773.414	277.64378
773.834	255.61923
774.254	234.55854
774.673	241.57183
775.093	233.562
775.512	199.48091
775.931	261.64187
776.351	218.5291
776.77	213.50929
777.189	209.48691
777.607	188.47181
778.026	208.50729
778.445	145.35912
778.864	238.59469
779.282	214.50356
779.701	171.4249
780.119	219.54038
780.537	163.40133
780.955	195.487
781.373	195.47319
781.791	169.37443
782.209	245.54868
782.627	182.47131
783.045	138.31498
783.462	203.50789
783.88	184.46757
784.297	170.42126
784.715	170.42971
785.132	144.34518
785.549	143.35403
785.966	165.40909
786.383	125.30539
786.8	206.46808
787.217	174.40593
787.633	142.35059
788.05	247.56976
788.466	192.4444
788.883	126.31872
789.299	132.31533
789.715	167.39992
790.131	123.30374
790.547	153.3774
790.963	170.41539
791.379	167.41571
791.795	163.36685
792.21	110.25623
792.626	135.31749
793.041	162.39408
793.457	149.36388
793.872	93.21846
794.287	118.27973
794.702	146.35569
795.117	132.32483
795.532	106.2643
795.947	171.40512
796.362	153.36094
796.776	199.45648
797.191	126.30594
797.605	90.21096
798.02	117.28286
798.434	140.30869
798.848	111.27179
799.262	90.22278
799.676	147.35445
800.09	142.34543
800.504	118.28447
800.918	150.34305
801.331	121.31481
801.745	92.21109
802.158	141.34844
802.572	140.33597
802.985	134.32084
803.398	107.25399
803.811	133.33864
804.224	127.31339
804.637	106.25128
805.05	120.27621
805.462	84.20625
805.875	74.19171
806.288	103.24723
806.7	121.30165
807.112	66.15355
807.525	129.31539
807.937	96.23641
808.349	120.29823
808.761	152.36879
809.173	109.26262
809.584	116.28472
809.996	135.32687
810.408	104.26681
810.819	138.32081
811.231	148.37716
811.642	141.33186
812.053	267.61147
812.464	346.77978
812.875	265.65411
813.286	190.47888
813.697	201.45904
814.108	148.35679
814.519	116.25674
814.929	168.42132
815.34	115.27687
815.75	100.25278
816.16	177.4329
816.571	102.26351
816.981	145.33795
817.391	101.2427
817.801	115.28336
818.211	119.28139
818.62	64.15435
819.03	112.27256
819.44	106.27517
819.849	131.32658
820.259	120.30452
820.668	120.29246
821.077	80.19832
821.486	128.30519
821.895	140.34171
822.304	90.23756
822.713	112.26284
823.122	94.23362
823.531	111.26125
823.939	123.2968
824.348	91.2205
824.756	146.36073
825.164	143.3552
825.573	81.20281
825.981	141.34524
826.389	132.32794
826.797	87.21721
827.205	72.16526
827.612	120.29344
828.02	59.13887
828.428	101.25571
828.835	139.36127
829.243	156.3658
829.65	96.23746
830.057	126.30261
830.464	117.28254
830.871	142.33545
831.278	105.25212
831.685	103.22849
832.092	118.2863
832.499	129.27889
832.905	75.18962
833.312	117.26451
833.718	138.33946
834.124	117.26494
834.531	140.34832
834.937	149.37683
835.343	102.2446
835.749	131.30243
836.155	64.16757
836.561	91.22282
836.966	114.27639
837.372	132.33199
837.777	80.19875
838.183	125.27487
838.588	93.22974
838.993	119.28693
839.399	101.24528
839.804	58.14152
840.209	109.27518
840.613	95.21022
841.018	74.18706
841.423	113.28731
841.828	72.18181
842.232	153.37295
842.637	101.2367
843.041	76.1943
843.445	94.23447
843.849	53.13146
844.253	117.27537
844.657	64.16109
845.061	112.25182
845.465	83.19975
845.869	89.20588
846.272	109.26312
846.676	114.27316
847.079	105.26489
847.483	158.38737
847.886	135.32416
848.289	79.21011
848.692	74.18699
849.095	118.28048
849.498	177.43948
849.901	78.17846
850.304	104.24663
850.707	92.2333
851.109	124.31031
851.512	53.13045
851.914	61.15367
852.316	105.26347
852.718	78.20067
853.121	91.22174
853.523	106.24564
853.925	85.2207
854.326	78.19435
854.728	104.26532
855.13	46.11888
855.531	97.23017
855.933	130.30805
856.334	49.12238
856.736	87.19388
857.137	96.22168
857.538	101.25198
857.939	63.15552
858.34	161.38497
858.741	89.2314
859.142	78.18676
859.542	74.19467
859.943	97.23936
860.343	54.13382
860.744	110.26589
861.144	106.25631
861.544	24.05806
861.945	77.19557
862.345	128.30904
862.745	78.19315
863.145	116.27435
863.544	81.20384
863.944	65.1534
864.344	95.23442
864.743	115.28242
865.143	111.28243
865.542	70.16203
865.941	92.22631
866.34	126.298
866.74	67.17949
867.139	114.27004
867.537	135.33923
867.936	114.2715
868.335	115.2896
868.734	86.21863
869.132	95.21915
869.531	155.36807
869.929	93.21051
870.327	59.1414
870.726	131.3223
871.124	148.33984
871.522	61.15527
871.92	144.34951
872.318	64.15627
872.715	137.3342
873.113	105.25356
873.511	102.25202
873.908	62.15633
874.306	110.27089
874.703	82.20424
875.1	131.33072
875.497	153.3601
875.894	66.1614
876.291	80.19549
876.688	115.29354
877.085	111.26359
877.482	77.19203
877.878	75.17988
878.275	86.21731
878.671	89.19694
879.068	123.29321
879.464	97.23265
879.86	17.04051
880.256	111.27118
880.652	67.17006
881.048	109.26749
881.444	118.27757
881.84	79.19994
882.236	111.27632
882.631	85.20751
883.027	121.28944
883.422	75.1911
883.817	87.21736
884.213	102.25958
884.608	59.14457
885.003	121.28811
885.398	46.11532
885.793	86.21467
886.188	63.15638
886.582	140.35375
886.977	146.34048
887.371	71.17906
887.766	43.10716
888.16	105.25967
888.554	120.29323
888.949	115.28565
889.343	116.28018
889.737	52.1386
890.131	96.23902
890.525	84.21369
890.918	79.19795
891.312	117.27666
891.706	116.30113
892.099	79.20016
892.492	102.21792
892.886	75.18282
893.279	100.25269
893.672	110.27726
894.065	120.29693
894.458	119.2958
894.851	132.31882
895.244	85.21589
895.637	114.2715
896.029	55.13447
896.422	89.21606
896.814	72.17842
897.206	31.07415
897.599	150.36448
897.991	66.15923
898.383	86.20198
898.775	112.24985
899.167	78.18104
899.559	121.30264
899.951	113.26337
900.342	99.24976
900.734	65.16093
901.125	122.31638
901.517	79.19301
901.908	140.33021
902.299	63.15374
902.69	120.27952
903.082	122.29166
903.473	76.18121
903.863	107.27042
904.254	104.239
904.645	98.24178
905.036	41.0995
905.426	119.26892
905.817	70.17124
906.207	78.18498
906.597	32.07516
906.987	109.27979
907.378	91.22859
907.768	91.23903
908.158	94.22747
908.547	62.1599
908.937	95.24198
909.327	125.29946
909.717	130.32556
910.106	76.18176
910.495	132.32483
910.885	95.23881
911.274	86.21366
911.663	79.19959
912.052	113.27576
912.441	108.27193
912.83	149.33548
913.219	91.2366
913.608	92.22372
913.997	53.13285
914.385	93.22051
914.774	111.26734
915.162	101.23846
915.55	74.17833
915.939	63.15871
916.327	106.262
916.715	66.16778
917.103	150.36257
917.491	130.31707
917.878	83.20293
918.266	83.21409
918.654	91.23089
919.041	35.09162
919.429	46.10871
919.816	108.27105
920.203	65.15726
920.591	55.13632
920.978	98.23795
921.365	116.30103
921.752	74.17569
922.139	119.25474
922.525	66.15809
922.912	117.2819
923.299	103.2536
923.685	77.19999
924.072	91.20825
924.458	69.17039
924.844	70.17264
925.231	74.17149
925.617	14.03584
926.003	113.28569
926.389	88.22054
926.774	123.30775
927.16	84.2074
927.546	73.18561
927.931	125.30777
928.317	117.26602
928.702	148.34365
929.088	43.10188
929.473	62.15745
929.858	23.0559
930.243	74.17684
930.628	75.18166
931.013	92.22631
931.398	124.28108
931.783	101.26368
932.167	104.25176
932.552	129.31867
932.937	98.24116
933.321	82.20461
933.705	95.23761
934.09	118.29465
934.474	117.27441
934.858	58.15026
935.242	56.12967
935.626	71.1811
936.009	67.17772
936.393	82.2075
936.777	82.20883
937.16	105.27065
937.544	117.27215
937.927	59.14948
938.311	100.2419
938.694	101.26485
939.077	56.13393
939.46	160.38499
939.843	143.29233
940.226	103.2618
940.609	102.23178
940.991	76.19259
941.374	58.14157
941.757	124.30187
942.139	90.20053
942.522	87.20421
942.904	98.23348
943.286	137.34277
943.668	109.27949
944.05	105.25605
944.432	121.29473
944.814	114.27753
945.196	52.12669
945.578	78.18441
945.959	70.16344
946.341	150.36147
946.722	88.20506
947.104	101.2391
947.485	115.26423
947.866	76.1906
948.247	41.10362
948.628	70.17016
949.009	82.20883
949.39	87.21516
949.771	121.27757
950.152	64.15668
950.532	15.03714
950.913	114.2717
951.293	75.20178
951.674	59.14248
952.054	67.16551
952.434	106.26046
952.814	118.27713
953.194	118.30527
953.574	129.31316
953.954	125.2926
954.334	48.11969
954.714	65.15797
955.093	100.24363
955.473	100.24781
955.853	89.22885
956.232	104.28259
956.611	112.2655
956.99	78.19505
957.37	105.26499
957.749	124.29168
958.128	70.17574
958.506	68.17586
958.885	58.14619
959.264	41.10065
959.643	98.22088
960.021	111.27199
960.4	99.22218
960.778	115.27991
961.156	72.17979
961.535	74.17169
961.913	102.23628
962.291	71.18148
962.669	69.1742
963.047	80.20309
963.424	61.15538
963.802	67.16424
964.18	108.27046
964.557	103.23476
964.935	124.28963
965.312	57.14825
965.69	128.31603
966.067	112.2696
966.444	110.26809
966.821	93.23797
967.198	75.18112
967.575	102.24841
967.952	112.26078
968.329	48.11686
968.705	85.18093
969.082	91.23171
969.458	47.11281
969.835	102.2459
970.211	97.2469
970.587	131.32135
970.963	94.2393
971.339	77.20013
971.715	110.27169
972.091	87.21279
972.467	116.28588
972.843	62.15353
973.219	138.32587
973.594	75.19533
973.97	132.30929
974.345	73.17395
974.721	111.26572
975.096	61.14731
975.471	88.20724
975.846	61.14625
976.221	63.15962
976.596	89.21175
976.971	123.2996
977.346	72.16692
977.72	80.20273
978.095	100.25619
978.469	113.26648
978.844	87.21728
979.218	66.15773
979.593	109.25824
979.967	67.16271
980.341	115.26137
980.715	82.20543
981.089	77.19182
981.463	102.23178
981.837	78.1896
982.21	142.3245
982.584	49.11837
982.957	49.12238
983.331	128.29803
983.704	89.21711
984.078	106.25853
984.451	129.31762
984.824	52.12659
985.197	79.19085
985.57	126.31166
985.943	106.25911
986.316	132.31942
986.688	104.24825
987.061	147.33802
987.434	99.25581
987.806	87.20954
988.179	67.15757
988.551	99.24895
988.923	129.31304
989.295	78.19393
989.667	78.18533
990.039	74.18203
990.411	53.12192
990.783	116.26359
991.155	40.09629
991.527	135.32724
991.898	46.1147
992.27	83.20406
992.641	75.18732
993.012	136.31466
993.384	61.14519
993.755	75.19036
994.126	85.20309
994.497	55.13487
994.868	66.15113
995.239	100.24007
995.61	94.23464
995.98	61.14786
996.351	66.16295
996.722	100.22963
997.092	46.10901
997.462	14.03293
997.833	85.20014
998.203	138.32903
998.573	76.18833
998.943	60.14042
999.313	21.0506
999.683	77.18384
1000.053	106.24116
1000.423	104.25015
1000.792	102.26196
1001.162	79.19337
1001.531	85.20821
1001.901	90.2227
1002.27	104.22989
1002.639	62.15806
1003.009	79.18681
1003.378	75.1909
1003.747	122.28418
1004.116	48.11489
1004.485	68.16195
1004.853	83.20902
1005.222	111.27682
1005.591	107.25125
1005.959	109.24261
1006.328	89.19867
1006.696	92.22011
1007.064	75.18779
1007.433	110.27189
1007.801	110.26699
1008.169	80.20092
1008.537	53.11728
1008.905	84.19435
1009.273	123.29972
1009.64	45.10744
1010.008	115.27067
1010.375	148.35274
1010.743	159.35917
1011.11	76.17891
1011.478	80.19687
1011.845	143.33014
1012.212	63.1422
1012.579	87.21208
1012.946	103.24261
1013.313	127.29775
1013.68	105.23332
1014.047	72.17081
1014.414	82.19243
1014.78	96.2365
1015.147	113.26999
1015.513	86.20576
1015.88	127.32028
1016.246	94.23012
1016.612	128.28838
1016.978	108.26174
1017.344	73.17961
1017.71	138.33092
1018.076	118.27453
1018.442	73.18699
1018.808	97.24033
1019.174	98.24365
1019.539	160.36017
1019.905	56.13188
1020.27	61.15019
1020.636	82.19536
1021.001	76.181
1021.366	94.22378
1021.731	103.26235
1022.096	71.17835
1022.461	83.19512
1022.826	74.17502
1023.191	67.17522
1023.556	117.27054
1023.92	66.16176
1024.285	90.21795
1024.649	92.22364
1025.014	77.18973
1025.378	75.18765
1025.742	74.18291
1026.107	103.23039
1026.471	80.18561
1026.835	101.24795
1027.199	57.13697
1027.562	73.16887
1027.926	98.23742
1028.29	66.16648
1028.654	91.20758
1029.017	135.3265
1029.381	65.15477
1029.744	111.27993
1030.107	129.30042
1030.471	83.1974
1030.834	115.25808
1031.197	106.25254
1031.56	87.20373
1031.923	110.28132
1032.286	142.32737
1032.648	127.29914
1033.011	60.13739
1033.374	141.32539
1033.736	51.13401
1034.099	100.24135
1034.461	53.13376
1034.823	84.20778
1035.185	102.25424
1035.548	114.27399
1035.91	87.20684
1036.272	109.24502
1036.634	117.28254
1036.995	114.2645
1037.357	96.23143
1037.719	81.19575
1038.08	117.27409
1038.442	111.26024
1038.803	111.26329
1039.165	94.23523
1039.526	79.18977
1039.887	49.11721
1040.248	35.08643
1040.609	111.27108
1040.97	85.20627
1041.331	108.27046
1041.692	66.15349
1042.053	88.19875
1042.413	114.26219
1042.774	97.23371
1043.134	162.3772
1043.495	123.30497
1043.855	112.26837
1044.215	84.20709
1044.576	90.21343
1044.936	109.24683
1045.296	119.29311
1045.656	122.29522
1046.016	115.27403
1046.375	72.17384
1046.735	85.19123
1047.095	144.33066
1047.454	105.21971
1047.814	73.17462
1048.173	175.40786
1048.533	76.17312
1048.892	18.04344
1049.251	108.26812
1049.61	67.16436
1049.969	91.21268
1050.328	95.20389
1050.687	37.09019
1051.046	98.23635
1051.405	86.21241
1051.763	59.13534
1052.122	87.21539
1052.48	85.20697
1052.839	87.20309
1053.197	43.10129
1053.555	148.33057
1053.914	126.30364
1054.272	118.28145
1054.63	68.16561
1054.988	69.16322
1055.345	112.23783
1055.703	93.22187
1056.061	90.22977
1056.419	83.2135
1056.776	104.24949
1057.134	81.18626
1057.491	97.24068
1057.848	72.17842
1058.206	74.17312
1058.563	99.21587
1058.92	110.25036
1059.277	128.31103
1059.634	88.20539
1059.991	136.32028
1060.348	77.17295
1060.704	58.13792
1061.061	125.28594
1061.418	77.18567
1061.774	65.15993
1062.131	48.12687
1062.487	38.089
1062.843	87.21532
1063.199	82.20261
1063.555	65.15006
1063.911	84.21074
1064.267	185.37407
1064.623	29.07067
1064.979	128.2985
1065.335	121.28512
1065.691	100.23724
1066.046	64.14023
1066.402	62.14043
1066.757	82.20565
1067.112	115.27865
1067.468	45.10629
1067.823	96.22863
1068.178	131.3118
1068.533	118.28221
1068.888	115.27119
1069.243	106.25873
1069.598	71.17172
1069.952	43.0969
1070.307	37.09174
1070.662	61.14441
1071.016	38.0853
1071.371	93.20957
1071.725	91.21585
1072.079	93.2217
1072.434	90.21689
1072.788	100.23568
1073.142	122.29589
1073.496	62.14664
1073.85	80.18429
1074.203	98.23545
1074.557	77.20369
1074.911	133.31218
1075.265	93.21419
1075.618	110.26538
1075.971	88.20764
1076.325	80.20208
1076.678	36.0825
1077.031	83.18642
1077.385	116.25181
1077.738	80.17935
1078.091	43.09785
1078.444	62.14351
1078.796	36.08849
1079.149	97.23901
1079.502	93.21769
1079.855	39.09108
1080.207	122.29634
1080.56	98.25098
1080.912	112.26929
1081.264	99.236
1081.617	54.13141
1081.969	52.13102
1082.321	99.23934
1082.673	53.1208
1083.025	80.18855
1083.377	141.29648
1083.728	79.18311
1084.08	82.20335
1084.432	72.17279
1084.783	95.22046
1085.135	90.22376
1085.486	36.08253
1085.838	105.25576
1086.189	69.16675
1086.54	69.16404
1086.891	80.20107
1087.242	63.15288
1087.593	74.17921
1087.944	72.16208
1088.295	120.26869
1088.646	97.23283
1088.996	100.23843
1089.347	55.13472
1089.698	29.06876
1090.048	61.158
1090.398	95.21819
1090.749	75.17845
1091.099	30.07564
1091.449	75.18582
1091.799	56.13994
1092.149	39.09521
1092.499	68.16517
1092.849	52.13201
1093.199	106.26277
1093.548	61.14614
1093.898	75.18664
1094.248	55.14108
1094.597	40.10219
1094.947	83.22001
1095.296	97.23725
1095.645	72.1864
1095.994	104.24702
1096.343	83.20744
1096.692	55.14423
1097.041	28.07601
1097.39	91.22637
1097.739	80.20668
1098.088	144.37945
1098.437	46.12081
1098.785	76.20384
1099.134	89.23457
1099.482	65.17819
1099.83	102.26543
1100.179	30.07844
1100.527	78.2061
1100.875	73.19208
1101.223	81.21377
1101.571	44.1216
1101.919	10.02628
1102.267	27.07621
1102.615	16.05137
1102.962	22.07073
1103.31	9.02891
1103.658	31.09961
