Data from N2 R15 sample 10_Subt2__2__15-25-12-506.txt Node

Date: Tue Sep 02 15:25:12 PDT 2025
User: uwsun
Spectrometer: HDX01956
Trigger mode: 0
Integration Time (sec): 5.000000E-1
Scans to average: 1
Nonlinearity correction enabled: true
Boxcar width: 0
Storing dark spectrum: false
XAxis mode: Wavelengths
Number of Pixels in Spectrum: 2068
>>>>>Begin Spectral Data<<<<<
194.03	208.56496
194.578	200.61668
195.127	198.60128
195.676	190.57945
196.225	275.69568
196.773	274.71805
197.321	332.84177
197.87	472.06378
198.418	463.03049
198.966	500.11183
199.513	391.8449
200.061	395.86851
200.609	478.09662
201.156	421.78067
201.704	441.95415
202.251	417.96065
202.798	436.97974
203.345	490.03446
203.892	472.01512
204.438	515.03904
204.985	485.96447
205.532	474.0683
206.078	487.0153
206.624	469.97957
207.17	479.94322
207.716	458.94663
208.262	508.82868
208.808	434.9103
209.354	494.01326
209.899	523.12573
210.445	473.99756
210.99	464.94829
211.535	515.01905
212.08	500.98203
212.625	535.13038
213.17	513.10465
213.715	455.84793
214.259	531.03654
214.804	516.08183
215.348	514.98906
215.892	475.97143
216.436	568.0971
216.98	542.00025
217.524	487.97567
218.068	509.09132
218.612	529.13086
219.155	480.96053
219.698	470.95707
220.242	507.08095
220.785	499.99046
221.328	470.00691
221.871	500.08974
222.414	462.99594
222.956	412.85767
223.499	442.85296
224.041	509.00904
224.583	532.96812
225.126	446.84127
225.668	429.902
226.21	443.96379
226.751	414.77515
227.293	414.8204
227.835	423.89408
228.376	525.02577
228.918	440.96722
229.459	432.92889
230	399.82562
230.541	465.91738
231.082	475.98507
231.622	458.90505
232.163	426.89076
232.704	446.95197
233.244	436.93426
233.784	444.9436
234.324	382.71947
234.864	412.8046
235.404	467.95291
235.944	452.92167
236.484	520.10367
237.023	439.88927
237.563	420.83307
238.102	467.94166
238.641	469.01709
239.18	439.87462
239.719	438.94988
240.258	497.94232
240.797	490.99189
241.335	472.98912
241.874	492.78009
242.412	518.04535
242.95	418.85506
243.488	468.90574
244.026	417.82229
244.564	433.75376
245.102	436.83169
245.64	480.98677
246.177	426.81537
246.715	472.96639
247.252	442.86729
247.789	522.80965
248.326	433.88434
248.863	491.89734
249.4	462.88899
249.936	421.73132
250.473	495.96739
251.009	460.88727
251.546	481.88617
252.082	506.92172
252.618	483.89789
253.154	461.93639
253.69	477.90086
254.226	480.96498
254.761	511.95327
255.297	466.85228
255.832	443.88834
256.367	471.93489
256.903	500.90941
257.438	528.0314
257.972	504.93158
258.507	419.80993
259.042	490.88262
259.576	462.82236
260.111	508.9794
260.645	507.9074
261.179	449.88082
261.713	505.92713
262.247	471.91089
262.781	493.84692
263.315	466.95928
263.849	496.03708
264.382	536.01537
264.915	484.94164
265.449	415.85065
265.982	565.04878
266.515	478.97601
267.048	562.95649
267.58	531.95331
268.113	433.77852
268.646	472.97557
269.178	490.89936
269.71	530.94492
270.243	556.03486
270.775	489.0398
271.307	516.03129
271.838	569.10929
272.37	511.04088
272.902	467.88413
273.433	528.93794
273.965	514.03298
274.496	478.9977
275.027	502.03156
275.558	493.99043
276.089	482.97659
276.62	524.10783
277.15	521.06369
277.681	555.97341
278.211	550.10649
278.741	510.90878
279.272	487.91029
279.802	494.0233
280.332	524.00421
280.861	522.02786
281.391	504.92926
281.921	537.0577
282.45	607.22613
282.98	565.20638
283.509	531.9636
284.038	535.98371
284.567	564.06383
285.096	511.00923
285.625	533.97314
286.153	493.94066
286.682	513.94704
287.21	503.98583
287.739	560.05886
288.267	502.98782
288.795	533.15172
289.323	511.95941
289.851	610.12658
290.378	580.02512
290.906	540.04291
291.433	570.13889
291.961	550.98414
292.488	552.10389
293.015	520.97703
293.542	541.0976
294.069	602.16401
294.596	594.16827
295.122	516.9867
295.649	607.03645
296.175	605.15557
296.702	605.15501
297.228	647.22639
297.754	582.01422
298.28	555.98414
298.806	575.08224
299.332	585.99271
299.857	599.03814
300.383	604.20639
300.908	529.00574
301.433	555.05425
301.958	617.10004
302.483	595.15182
303.008	671.27321
303.533	615.25823
304.058	618.12259
304.582	608.09375
305.107	584.18796
305.631	646.11654
306.155	614.08084
306.679	608.07361
307.203	612.07225
307.727	639.14405
308.251	642.20594
308.775	592.05782
309.298	608.09319
309.822	648.23995
310.345	699.21896
310.868	635.13337
311.391	643.19269
311.914	663.23781
312.437	752.23419
312.96	707.20636
313.482	679.17403
314.005	734.34324
314.527	661.29509
315.049	732.35576
315.571	673.0567
316.093	754.33623
316.615	745.27273
317.137	731.10173
317.659	796.36411
318.18	721.24551
318.702	803.27977
319.223	740.02141
319.744	783.18677
320.265	680.16111
320.786	722.2436
321.307	766.31958
321.828	813.22141
322.348	841.31078
322.869	771.2153
323.389	889.82159
323.909	840.25873
324.43	886.41213
324.95	871.26818
325.47	870.38259
325.989	816.2403
326.509	794.09417
327.029	867.20109
327.548	816.13773
328.067	923.36417
328.587	935.45621
329.106	911.24295
329.625	931.5787
330.144	907.24875
330.662	951.28521
331.181	894.25025
331.7	996.34247
332.218	1030.21111
332.736	981.313
333.255	1017.31848
333.773	989.32116
334.291	1058.50943
334.808	927.13522
335.326	1047.25077
335.844	980.21647
336.361	1045.43819
336.879	1048.26061
337.396	1061.33229
337.913	1099.25386
338.43	1117.21169
338.947	1083.29516
339.464	1113.08561
339.981	1061.23832
340.497	1130.38778
341.014	1201.38107
341.53	1166.17077
342.046	1272.4112
342.562	1220.43207
343.078	1219.26942
343.594	1256.31656
344.11	1277.30519
344.626	1222.39246
345.141	1302.18519
345.657	1262.17381
346.172	1296.29629
346.687	1247.14368
347.202	1295.09717
347.717	1381.26749
348.232	1299.33901
348.747	1360.14018
349.261	1270.94685
349.776	1324.15399
350.29	1309.21586
350.805	1481.33545
351.319	1431.136
351.833	1287.98882
352.347	1431.119
352.861	1462.08385
353.374	1522.0936
353.888	1482.1798
354.401	1492.03184
354.915	1352.89892
355.428	1541.19523
355.941	1499.99854
356.454	1683.96317
356.967	1545.05435
357.48	1592.98021
357.993	1538.13315
358.505	1565.08074
359.018	1639.08717
359.53	1623.00599
360.042	1668.81746
360.554	1696.03098
361.066	1670.00779
361.578	1686.72576
362.09	1612.93921
362.602	1660.71216
363.113	1729.8177
363.625	1795.70841
364.136	1695.67073
364.647	1664.69782
365.158	1758.74582
365.669	1829.80483
366.18	1885.73654
366.691	1807.56791
367.201	1735.75361
367.712	1863.56574
368.222	1802.57378
368.733	1846.38549
369.243	1930.3743
369.753	2001.46867
370.263	2036.51492
370.773	1951.60104
371.282	1972.42949
371.792	1987.20195
372.301	2090.3049
372.811	2115.50214
373.32	2083.88949
373.829	2112.04821
374.338	2330.75922
374.847	2255.79326
375.356	2353.73929
375.865	2444.35569
376.373	2558.34986
376.882	2583.57867
377.39	2646.3559
377.898	2671.20536
378.407	2719.97631
378.915	2987.76909
379.423	3188.70955
379.93	3218.63122
380.438	3224.60934
380.946	3423.55512
381.453	3436.57157
381.96	3603.67413
382.468	3830.04212
382.975	4235.36486
383.482	4439.08641
383.989	4428.7988
384.495	4504.77392
385.002	4659.52959
385.509	4867.09705
386.015	5172.52496
386.521	5601.31184
387.028	5606.89854
387.534	5831.70145
388.04	6208.34891
388.546	5913.25866
389.051	6198.53946
389.557	6822.3763
390.063	7893.56831
390.568	8106.54841
391.073	8078.9077
391.578	8448.95781
392.084	8503.0032
392.589	8334.51159
393.093	8942.41748
393.598	9927.24106
394.103	10792.23405
394.607	12082.54729
395.112	13244.3335
395.616	13761.90288
396.12	14527.65325
396.624	15811.31989
397.128	17791.37822
397.632	20028.78048
398.136	21344.99092
398.639	21195.15672
399.143	22581.38076
399.646	26070.50995
400.15	24249.00887
400.653	19934.5316
401.156	13866.23708
401.659	5169.95759
402.162	1054.15589
402.664	0
403.167	0
403.67	0
404.172	0
404.674	0
405.176	0
405.678	0
406.18	0
406.682	0
407.184	0
407.686	0
408.187	0
408.688	0
409.19	0
409.691	0
410.192	0
410.693	0
411.194	435.30976
411.694	4082.94878
412.195	8864.71461
412.696	12089.80453
413.196	12760.96929
413.696	12863.67595
414.196	13703.56671
414.696	17261.84252
415.196	21764.24417
415.696	29583.19008
416.196	36460.31858
416.695	35210.60681
417.195	27900.65746
417.694	26152.50745
418.194	25112.08272
418.693	22939.60351
419.192	22080.72189
419.691	21580.32787
420.19	21175.79469
420.688	21042.81016
421.187	20474.03504
421.685	19554.31898
422.184	18038.5334
422.682	15614.13502
423.18	12783.67165
423.678	11206.60844
424.176	10311.14987
424.674	9678.98857
425.172	9422.61398
425.669	9198.70216
426.167	8422.36546
426.664	7607.2071
427.161	6998.94048
427.659	6515.07729
428.156	5942.88935
428.652	5658.04503
429.149	5399.10863
429.646	5178.46526
430.143	4906.98076
430.639	4628.38815
431.135	4312.80016
431.632	4155.71454
432.128	3859.53112
432.624	3462.58291
433.12	3272.58145
433.616	3246.59371
434.111	2955.74654
434.607	2905.85296
435.103	3085.73979
435.598	3157.73455
436.093	2839.14845
436.588	2698.2613
437.083	2461.49709
437.578	2419.6387
438.073	2111.95983
438.568	2265.04136
439.062	2083.84277
439.557	2099.15723
440.051	1957.13071
440.546	1891.18839
441.04	1799.3845
441.534	1838.57774
442.028	1834.49729
442.522	1681.53379
443.015	1715.35419
443.509	1731.65366
444.002	1606.67533
444.496	1515.46668
444.989	1496.73064
445.482	1603.77414
445.975	1434.55564
446.468	1470.48487
446.961	1506.49215
447.454	1465.63466
447.947	1366.71239
448.439	1439.8329
448.931	1369.64233
449.424	1367.94664
449.916	1353.85886
450.408	1281.68305
450.9	1266.83958
451.392	1211.93168
451.884	1201.77708
452.375	1132.88244
452.867	1224.79669
453.358	1085.72899
453.849	1150.65919
454.341	1047.74018
454.832	1105.68783
455.323	995.86453
455.814	1138.84583
456.304	1103.84839
456.795	1026.81534
457.285	1129.84654
457.776	1144.91663
458.266	1009.895
458.756	1006.9465
459.247	915.86103
459.737	928.87763
460.226	932.8026
460.716	899.89526
461.206	871.90379
461.695	906.02037
462.185	843.8795
462.674	804.83205
463.163	881.83235
463.653	898.77003
464.142	802.90729
464.63	799.9512
465.119	737.8128
465.608	770.84313
466.096	775.79692
466.585	781.89383
467.073	789.96122
467.561	772.95762
468.05	738.88755
468.538	772.00691
469.026	657.86047
469.513	679.72879
470.001	676.81624
470.489	686.88311
470.976	673.85535
471.463	667.96046
471.951	642.95012
472.438	593.80858
472.925	568.7762
473.412	608.90905
473.899	592.81118
474.385	535.82279
474.872	530.75692
475.359	543.83018
475.845	571.69533
476.331	553.74163
476.817	558.87265
477.303	488.73119
477.789	504.79408
478.275	421.705
478.761	430.70176
479.247	481.71091
479.732	396.67822
480.218	460.83069
480.703	398.69227
481.188	393.57082
481.673	401.63371
482.158	309.45125
482.643	439.79904
483.128	324.52366
483.612	344.57712
484.097	346.62158
484.581	440.72574
485.066	333.59284
485.55	304.48189
486.034	293.46084
486.518	342.58445
487.002	285.52081
487.486	313.57111
487.969	268.49556
488.453	298.57616
488.936	265.45077
489.42	330.54454
489.903	305.59379
490.386	-197.27525
490.869	288.47839
491.352	303.57867
491.835	268.42358
492.318	263.45729
492.8	247.39298
493.283	180.36705
493.765	195.38325
494.247	292.53698
494.73	211.36901
495.212	219.42778
495.694	148.27901
496.175	119.22847
496.657	255.48274
497.139	253.34243
497.62	81.15792
498.102	176.35562
498.583	183.37664
499.064	184.32951
499.545	120.226
500.026	145.26563
500.507	163.31053
500.988	211.42957
501.469	86.18063
501.949	196.40022
502.43	111.21867
502.91	112.19055
503.39	138.29074
503.87	98.19256
504.35	134.26579
504.83	125.22703
505.31	112.22787
505.79	152.30191
506.269	122.24017
506.749	89.17096
507.228	103.2032
507.707	110.20441
508.187	144.29043
508.666	62.12988
509.145	83.16428
509.623	98.19502
510.102	96.19834
510.581	120.24726
511.059	92.19639
511.538	96.21389
512.016	148.29877
512.494	110.22849
512.972	40.08268
513.45	0
513.928	58.12112
514.406	48.09886
514.884	76.16863
515.361	149.30197
515.839	77.15033
516.316	38.07943
516.793	98.21464
517.27	101.21162
517.747	44.0984
518.224	70.1404
518.701	106.20219
519.178	67.14342
519.654	127.26021
520.131	64.13774
520.607	116.24901
521.083	42.08366
521.56	84.17183
522.036	100.18935
522.512	111.23792
522.987	32.06626
523.463	61.12645
523.939	86.18406
524.414	129.25713
524.89	46.09585
525.365	83.16313
525.84	-10.02094
526.315	45.09508
526.79	44.08711
527.265	69.1374
527.74	44.09433
528.215	31.06449
528.689	67.12938
529.164	112.21073
529.638	79.17875
530.112	44.09107
530.587	39.07278
531.061	31.0659
531.534	88.18728
532.008	14.02985
532.482	105.21036
532.956	-7.0159
533.429	58.12408
533.903	109.21028
534.376	87.16808
534.849	57.11668
535.322	109.22464
535.795	27.0588
536.268	91.19168
536.741	66.14021
537.213	71.14481
537.686	52.11182
538.158	48.09454
538.631	74.1594
539.103	25.04962
539.575	32.05938
540.047	55.10692
540.519	83.17529
540.991	71.15422
541.463	64.13733
541.934	58.11741
542.406	36.07618
542.877	61.12164
543.348	53.1139
543.82	128.27525
544.291	106.21772
544.762	88.18296
545.233	40.08901
545.703	101.19448
546.174	53.10903
546.645	51.10686
547.115	100.21031
547.585	145.28808
548.056	74.15522
548.526	125.25263
548.996	111.23196
549.466	214.4455
549.935	130.26304
550.405	135.25181
550.875	145.29292
551.344	196.39804
551.814	218.42027
552.283	194.35585
552.752	193.37574
553.221	143.26131
553.69	240.44023
554.159	226.46085
554.628	220.40538
555.096	236.49808
555.565	236.43551
556.033	261.51321
556.502	223.45669
556.97	223.4172
557.438	215.43453
557.906	234.47455
558.374	160.31884
558.842	212.43584
559.31	240.45957
559.777	228.47232
560.245	308.61463
560.712	307.60338
561.18	228.43236
561.647	312.58878
562.114	364.6913
562.581	343.71643
563.048	352.68481
563.514	348.71994
563.981	419.79635
564.448	495.90191
564.914	529.99957
565.381	607.0967
565.847	603.12614
566.313	622.14822
566.779	715.24233
567.245	785.39814
567.711	753.38814
568.176	787.32883
568.642	866.63476
569.108	960.73047
569.573	1021.73089
570.038	1096.57282
570.504	1167.76485
570.969	1224.11488
571.434	1317.84649
571.899	1336.08564
572.363	1472.08184
572.828	1641.22969
573.293	1639.22405
573.757	1809.32851
574.222	1808.2126
574.686	1824.23113
575.15	1971.52207
575.614	1954.38311
576.078	2115.5295
576.542	2155.43381
577.006	2253.40907
577.469	2323.86349
577.933	2358.38171
578.396	2328.66496
578.86	2385.63525
579.323	2294.64916
579.786	2306.25275
580.249	2313.45958
580.712	2347.80304
581.175	2282.81577
581.637	2329.55074
582.1	2355.35452
582.563	2295.26645
583.025	2205.71436
583.487	2185.00112
583.95	2124.20203
584.412	2129.15056
584.874	2099.68897
585.336	1990.54449
585.797	2024.21972
586.259	1903.50525
586.721	1885.45647
587.182	1863.46594
587.643	1907.36579
588.105	1779.44096
588.566	1799.06999
589.027	1693.42824
589.488	1637.22847
589.949	1649.4373
590.41	1556.7213
590.87	1554.18562
591.331	1576.0359
591.791	1447.11352
592.252	1449.08169
592.712	1401.19992
593.172	1399.0103
593.632	1374.93395
594.092	1262.87049
594.552	1287.80745
595.011	1256.92353
595.471	1344.95225
595.931	1178.78636
596.39	1199.97391
596.849	1214.92558
597.308	1188.74406
597.768	1084.9834
598.227	1138.92844
598.685	1171.86177
599.144	1108.82092
599.603	1116.86255
600.062	1112.588
600.52	1012.60463
600.978	1032.76233
601.437	1012.66807
601.895	1022.52277
602.353	1069.66884
602.811	1040.63228
603.269	1019.76381
603.727	1054.80676
604.184	1063.67962
604.642	1032.82841
605.099	1029.70885
605.557	1048.84148
606.014	1032.55446
606.471	989.79876
606.928	984.48445
607.385	1072.83968
607.842	1146.80161
608.299	1194.90448
608.755	1160.94052
609.212	1174.76126
609.668	1079.64654
610.125	1164.95996
610.581	1243.02984
611.037	1144.83054
611.493	1074.8245
611.949	1107.89036
612.405	1127.52297
612.861	1171.93824
613.316	1097.86821
613.772	1070.75627
614.227	1081.82509
614.683	1119.67472
615.138	1077.80457
615.593	1077.7928
616.048	1100.79872
616.503	1090.95243
616.958	1013.88345
617.412	1028.78178
617.867	1008.61198
618.321	994.49066
618.776	1028.65529
619.23	923.63778
619.684	991.66087
620.138	970.69517
620.592	880.65151
621.046	939.67744
621.5	888.66819
621.954	948.61671
622.407	921.56085
622.861	809.5557
623.314	903.58233
623.768	867.57163
624.221	723.12824
624.674	827.49973
625.127	802.49232
625.58	801.45837
626.033	760.35107
626.485	733.42489
626.938	734.42514
627.39	742.40304
627.843	724.36962
628.295	691.31824
628.747	677.33712
629.199	706.32053
629.651	637.21093
630.103	671.27878
630.555	655.15349
631.006	653.28844
631.458	639.27317
631.909	688.32616
632.361	651.28388
632.812	604.1902
633.263	608.11559
633.714	666.19894
634.165	627.30424
634.616	586.20503
635.067	645.22021
635.518	645.3185
635.968	659.11581
636.419	580.09193
636.869	606.24958
637.319	562.13379
637.769	597.1535
638.219	591.23362
638.669	551.15458
639.119	593.26571
639.569	568.2031
640.019	588.18905
640.468	541.0656
640.918	571.21289
641.367	576.13227
641.816	620.20346
642.265	620.24814
642.714	569.15977
643.163	622.24527
643.612	554.17443
644.061	558.0355
644.51	595.18646
644.958	568.09762
645.406	535.13976
645.855	580.25904
646.303	643.31085
646.751	590.17838
647.199	588.1771
647.647	560.14165
648.095	572.15876
648.543	645.14354
648.99	611.28332
649.438	626.2932
649.885	580.2772
650.333	609.02648
650.78	563.21145
651.227	587.26696
651.674	580.17017
652.121	616.32367
652.568	597.28472
653.015	662.47259
653.461	598.25901
653.908	600.23775
654.354	614.29785
654.801	555.16297
655.247	587.14282
655.693	553.30005
656.139	541.16703
656.585	566.21609
657.031	513.07861
657.477	478.93882
657.922	523.08566
658.368	556.23656
658.813	551.15509
659.259	511.11258
659.704	445.95498
660.149	530.11564
660.594	521.12142
661.039	510.05415
661.484	522.1344
661.929	512.0895
662.373	464.07677
662.818	495.12366
663.262	464.02695
663.707	446.04593
664.151	440.99804
664.595	449.00009
665.039	458.05402
665.483	510.18882
665.927	526.12856
666.371	404.87168
666.814	469.03394
667.258	421.92683
667.701	539.05617
668.145	481.1055
668.588	481.08874
669.031	447.97415
669.474	501.10784
669.917	540.08733
670.36	467.07241
670.803	481.07283
671.245	468.91181
671.688	489.10149
672.13	436.91005
672.573	466.10014
673.015	430.96626
673.457	501.00055
673.899	468.05217
674.341	471.05352
674.783	427.95815
675.225	448.02604
675.666	443.99241
676.108	434.88135
676.549	457.00786
676.991	466.9541
677.432	414.77247
677.873	466.00133
678.314	480.06199
678.755	429.97922
679.196	434.93038
679.637	501.13225
680.078	494.06981
680.518	502.08161
680.959	440.98751
681.399	398.93277
681.839	444.01035
682.28	430.99591
682.72	446.95403
683.16	427.99934
683.6	475.0069
684.039	429.8384
684.479	434.9996
684.919	365.79885
685.358	423.00982
685.798	388.96445
686.237	459.03675
686.676	410.89978
687.115	425.93995
687.554	408.91496
687.993	437.90708
688.432	438.93895
688.871	457.96763
689.309	421.94701
689.748	443.86781
690.186	442.992
690.625	424.93519
691.063	404.91604
691.501	481.10638
691.939	404.95274
692.377	417.9595
692.815	405.91513
693.253	406.92431
693.69	447.91955
694.128	417.95222
694.565	420.94496
695.003	435.03694
695.44	433.95644
695.877	411.90558
696.314	412.83706
696.751	430.92419
697.188	432.93248
697.625	474.01462
698.061	411.93134
698.498	460.04091
698.934	460.035
699.371	380.84973
699.807	423.94333
700.243	429.97172
700.679	449.95318
701.115	427.9487
701.551	450.99418
701.987	474.99418
702.422	434.96885
702.858	461.02518
703.294	476.00309
703.729	434.99999
704.164	421.95593
704.599	435.91018
705.035	451.94365
705.47	408.93786
705.904	432.94605
706.339	474.02817
706.774	430.94763
707.209	433.93804
707.643	450.01163
708.078	409.94185
708.512	379.90091
708.946	433.97759
709.38	430.95953
709.814	449.96232
710.248	427.98132
710.682	423.948
711.116	395.89145
711.549	430.04473
711.983	423.92068
712.416	486.06813
712.85	431.01049
713.283	438.97414
713.716	463.08861
714.149	475.0555
714.582	374.79935
715.015	446.04837
715.448	454.07218
715.881	514.03679
716.313	417.92187
716.746	462.01401
717.178	443.99975
717.61	404.97119
718.043	383.90831
718.475	405.92929
718.907	473.11907
719.339	336.72964
719.77	409.91513
720.202	379.91232
720.634	402.92518
721.065	433.96522
721.497	422.97584
721.928	348.81721
722.359	332.76716
722.79	366.83461
723.221	353.8504
723.652	420.02305
724.083	334.72221
724.514	351.77113
724.945	346.77818
725.375	338.75053
725.806	366.87252
726.236	375.916
726.666	369.83245
727.096	324.76472
727.526	367.88879
727.956	316.69089
728.386	358.84233
728.816	270.66314
729.246	295.69237
729.675	353.82976
730.105	332.78481
730.534	326.73291
730.964	347.84069
731.393	358.85084
731.822	341.83515
732.251	280.68896
732.68	384.86009
733.109	301.71609
733.537	293.68392
733.966	285.68532
734.395	277.62059
734.823	309.67259
735.251	263.61607
735.68	311.75151
736.108	264.6496
736.536	272.62329
736.964	267.60213
737.392	276.67009
737.82	290.67359
738.247	281.65256
738.675	333.76412
739.102	234.57112
739.53	228.56765
739.957	257.6432
740.384	299.71325
740.811	253.62495
741.238	223.5332
741.665	265.59688
742.092	262.60905
742.519	232.56096
742.945	238.55828
743.372	243.587
743.798	251.62864
744.225	207.48377
744.651	244.5973
745.077	241.58656
745.503	230.5492
745.929	261.609
746.355	256.62061
746.781	212.5157
747.207	189.43685
747.632	202.48364
748.058	211.51681
748.483	220.49685
748.908	203.49574
749.334	237.56862
749.759	200.46402
750.184	198.46392
750.609	172.41809
751.033	221.51263
751.458	216.47606
751.883	219.53202
752.307	163.3802
752.732	152.37611
753.156	197.47858
753.58	193.45194
754.005	170.42664
754.429	174.40434
754.853	173.42327
755.277	188.43877
755.7	180.44065
756.124	135.33313
756.548	201.46827
756.971	161.38952
757.394	207.52331
757.818	154.39245
758.241	175.43816
758.664	142.35599
759.087	113.25245
759.51	145.35833
759.933	117.28104
760.356	132.33651
760.778	164.39894
761.201	143.34584
761.623	191.45669
762.046	196.45815
762.468	175.41572
762.89	180.43852
763.312	145.35174
763.734	104.25063
764.156	151.36973
764.578	168.38283
765	127.30877
765.421	99.25118
765.843	162.41981
766.264	184.43853
766.686	135.33716
767.107	128.30893
767.528	74.18746
767.949	130.32872
768.37	142.34608
768.791	146.35077
769.212	130.32438
769.632	101.23559
770.053	128.33491
770.473	136.32885
770.894	157.38926
771.314	160.3787
771.734	121.28135
772.154	135.34422
772.575	150.34512
772.994	107.24319
773.414	164.38967
773.834	96.24007
774.254	140.34018
774.673	144.34807
775.093	110.27149
775.512	89.21954
775.931	124.31266
776.351	102.25295
776.77	93.22746
777.189	141.33289
777.607	64.1642
778.026	119.29505
778.445	91.2276
778.864	143.36346
779.282	120.28754
779.701	95.23932
780.119	108.27193
780.537	95.23683
780.955	122.30871
781.373	102.25184
781.791	144.3207
782.209	135.30918
782.627	102.26779
783.045	84.19381
783.462	109.27734
783.88	64.16609
784.297	85.2139
784.715	85.21811
785.132	119.28661
785.549	106.26421
785.966	104.26073
786.383	79.19466
786.8	125.2887
787.217	88.20877
787.633	71.17758
788.05	164.38456
788.466	154.35914
788.883	93.23663
789.299	126.30134
789.715	99.24016
790.131	111.27471
790.547	143.35338
790.963	110.27179
791.379	132.33068
791.795	92.21007
792.21	139.32192
792.626	112.26458
793.041	109.26778
793.457	94.23191
793.872	84.19767
794.287	37.08908
794.702	135.32957
795.117	81.2012
795.532	74.18559
795.947	135.32206
796.362	143.33801
796.776	141.3272
797.191	99.2416
797.605	60.14147
798.02	106.2568
798.434	115.2549
798.848	92.22606
799.262	105.2592
799.676	124.30029
800.09	104.25479
800.504	130.31269
800.918	64.1489
801.331	117.30461
801.745	72.16586
802.158	110.27338
802.572	110.26549
802.985	130.3115
803.398	97.2307
803.811	129.32869
804.224	99.24555
804.637	47.11269
805.05	119.27396
805.462	107.26161
805.875	73.18915
806.288	56.13562
806.7	91.2281
807.112	104.24015
807.525	122.29867
807.937	80.19759
808.349	88.21998
808.761	128.31196
809.173	95.2295
809.584	131.32064
809.996	35.08634
810.408	76.19593
810.819	114.26628
811.231	86.22156
811.642	94.22326
812.053	155.36296
812.464	220.50859
812.875	199.49716
813.286	145.36841
813.697	179.41061
814.108	127.30738
814.519	133.29332
814.929	133.33565
815.34	93.22484
815.75	69.17538
816.16	81.20164
816.571	130.33421
816.981	109.25585
817.391	105.25212
817.801	59.14687
818.211	125.29523
818.62	77.18524
819.03	115.2797
819.44	133.34365
819.849	96.24085
820.259	84.21452
820.668	59.14543
821.077	74.18365
821.486	107.25615
821.895	125.30595
822.304	108.28421
822.713	110.25824
823.122	90.22384
823.531	121.28423
823.939	101.24473
824.348	137.32908
824.756	109.27114
825.164	117.292
825.573	60.1508
825.981	106.26123
826.389	141.34972
826.797	86.21475
827.205	43.09927
827.612	108.26469
828.02	73.17135
828.428	119.30032
828.835	109.28476
829.243	93.22076
829.65	97.23989
830.057	94.22713
830.464	30.07363
830.871	121.287
831.278	92.22146
831.685	108.23933
832.092	86.20991
832.499	77.16832
832.905	116.29113
833.312	134.3019
833.718	97.24042
834.124	50.11477
834.531	135.33618
834.937	110.28013
835.343	130.31007
835.749	148.34052
836.155	129.33401
836.561	105.25643
836.966	88.21439
837.372	112.2827
837.777	88.21831
838.183	112.24696
838.588	44.10967
838.993	109.26332
839.399	49.12016
839.804	56.13669
840.209	93.23546
840.613	53.11831
841.018	85.21444
841.423	95.24232
841.828	88.22157
842.232	126.30869
842.637	104.24359
843.041	61.15636
843.445	95.23692
843.849	66.16331
844.253	95.22455
844.657	51.12866
845.061	119.26717
845.465	105.25165
845.869	106.24438
846.272	75.18221
846.676	130.31055
847.079	62.15762
847.483	134.32999
847.886	161.38467
848.289	54.14421
848.692	104.26139
849.095	103.24553
849.498	145.36213
849.901	107.24338
850.304	74.17651
850.707	97.24576
851.109	133.33229
851.512	100.24399
851.914	47.1187
852.316	73.18423
852.718	48.12414
853.121	106.25757
853.523	59.138
853.925	71.18479
854.326	88.21887
854.728	97.24777
855.13	62.15979
855.531	46.11022
855.933	125.29649
856.334	48.1199
856.736	77.17195
857.137	47.10959
857.538	96.23972
857.939	65.1604
858.34	104.25138
858.741	87.22628
859.142	102.2431
859.542	60.15822
859.943	84.20778
860.343	85.20944
860.744	92.22313
861.144	117.28233
861.544	74.17732
861.945	62.15789
862.345	118.28544
862.745	71.17604
863.145	142.33415
863.544	94.236
863.944	90.21137
864.344	95.23442
864.743	87.21476
865.143	83.21223
865.542	67.15517
865.941	75.18507
866.34	124.29338
866.74	87.2323
867.139	71.16958
867.537	109.27518
867.936	77.18468
868.335	95.24009
868.734	75.19103
869.132	81.18737
869.531	98.23527
869.929	34.07789
870.327	73.17449
870.726	111.27411
871.124	106.24545
871.522	107.27013
871.92	108.2639
872.318	122.29467
872.715	97.23839
873.113	42.10263
873.511	73.18133
873.908	63.15882
874.306	52.12943
874.703	118.29198
875.1	113.2862
875.497	70.16741
875.894	50.12263
876.291	100.24345
876.688	107.2735
877.085	112.26591
877.482	83.20677
877.878	84.20113
878.275	83.20984
878.671	142.31074
879.068	97.23238
879.464	53.12818
879.86	67.15812
880.256	111.27118
880.652	78.19759
881.048	89.21922
881.444	92.2175
881.84	68.17244
882.236	90.2249
882.631	108.26253
883.027	70.16907
883.422	63.16087
883.817	31.07824
884.213	68.17409
884.608	46.11299
885.003	71.17068
885.398	48.12029
885.793	80.19991
886.188	67.16618
886.582	147.37098
886.977	77.18201
887.371	74.18652
887.766	50.12445
888.16	117.28871
888.554	112.27408
888.949	115.28565
889.343	114.27545
889.737	33.08823
890.131	94.23413
890.525	72.18356
890.918	94.23489
891.312	115.27204
891.706	123.31892
892.099	109.27469
892.492	109.23252
892.886	88.21399
893.279	45.11482
893.672	87.22019
894.065	93.23126
894.458	109.27144
894.851	124.29995
895.244	24.06162
895.637	79.18941
896.029	137.32983
896.422	98.23751
896.814	68.16863
897.206	48.11445
897.599	126.30754
897.991	71.17113
898.383	90.21121
898.775	94.21048
899.167	36.08425
899.559	109.27321
899.951	105.24511
900.342	113.28436
900.734	19.04744
901.125	70.18316
901.517	68.16647
901.908	56.13424
902.299	71.17301
902.69	64.15072
903.082	110.26358
903.473	64.15295
903.863	141.35418
904.254	77.17791
904.645	138.33796
905.036	81.19509
905.426	107.2424
905.817	91.22174
906.207	91.21526
906.597	70.16318
906.987	64.16557
907.378	58.14656
907.768	66.1741
908.158	129.3101
908.547	81.20821
908.937	91.23195
909.327	103.24779
909.717	153.38156
910.106	66.15815
910.495	107.26452
910.885	84.21158
911.274	60.14977
911.663	146.36443
912.052	103.25183
912.441	110.27686
912.83	72.16467
913.219	111.2876
913.608	92.22372
913.997	68.16999
914.385	127.29914
914.774	85.20573
915.162	93.21991
915.55	116.27732
915.939	29.0735
916.327	115.28378
916.715	76.19286
917.103	159.38367
917.491	93.22839
917.878	86.21015
918.266	86.22171
918.654	81.20588
919.041	64.16671
919.429	28.0664
919.816	81.20427
920.203	73.17635
920.591	50.12404
920.978	103.24986
921.365	73.19084
921.752	80.18972
922.139	51.11078
922.525	99.23564
922.912	126.30307
923.299	90.22213
923.685	69.17946
924.072	128.29074
924.458	98.24072
924.844	65.16046
925.231	81.18745
925.617	67.16993
926.003	98.24843
926.389	98.24516
926.774	103.25864
927.16	84.2074
927.546	72.1831
927.931	101.24978
928.317	118.26824
928.702	81.19057
929.088	88.20668
929.473	84.21248
929.858	55.13287
930.243	96.22845
930.628	62.15054
931.013	69.17046
931.398	109.24783
931.783	102.26624
932.167	89.21606
932.552	90.22392
932.937	148.36083
933.321	109.27065
933.705	107.26704
934.09	100.25052
934.474	127.29728
934.858	87.22425
935.242	55.12738
935.626	54.13815
936.009	77.2039
936.393	115.28929
936.777	92.23388
937.16	83.21476
937.544	106.2471
937.927	54.13694
938.311	115.2774
938.694	113.29571
939.077	60.14339
939.46	115.27907
939.843	100.20642
940.226	86.21925
940.609	85.19381
940.991	101.2548
941.374	91.22075
941.757	93.22772
942.139	62.13894
942.522	118.27529
942.904	113.26844
943.286	101.25435
943.668	99.2543
944.05	86.21046
944.432	54.13318
944.814	90.22008
945.196	64.15557
945.578	58.13765
945.959	109.25255
946.341	109.26471
946.722	90.20964
947.104	116.27382
947.485	93.21462
947.866	43.10848
948.247	93.23286
948.628	109.26302
949.009	61.15592
949.39	68.16876
949.771	55.12784
950.152	107.25985
950.532	31.07653
950.913	65.15638
951.293	61.16449
951.674	78.18769
952.054	62.1533
952.434	71.17559
952.814	55.13076
953.194	88.22884
953.574	98.23929
953.954	76.17961
954.334	97.23971
954.714	54.13151
955.093	96.23406
955.473	83.20632
955.853	92.23644
956.232	89.24242
956.611	88.20958
956.99	85.21229
957.37	81.2053
957.749	75.1781
958.128	57.14344
958.506	64.16563
958.885	84.21074
959.264	66.16128
959.643	115.25829
960.021	58.14352
960.4	95.21337
960.778	131.3179
961.156	86.2142
961.535	48.11194
961.913	101.23401
962.291	69.17643
962.669	49.12415
963.047	80.20309
963.424	63.16041
963.802	56.13755
964.18	128.31939
964.557	74.16965
964.935	100.23468
965.312	56.14568
965.69	128.31603
966.067	116.27901
966.444	95.23218
966.821	93.23797
967.198	84.20251
967.575	99.24124
967.952	108.25167
968.329	79.19121
968.705	53.1136
969.082	89.22669
969.458	5.0121
969.835	140.33508
970.211	82.20927
970.587	91.22488
970.963	116.29416
971.339	90.2334
971.715	89.22067
972.091	91.22241
972.467	82.20335
972.843	90.22172
973.219	143.33735
973.594	65.16958
973.97	113.26575
974.345	84.19974
974.721	109.26103
975.096	53.12818
975.471	110.25794
975.846	88.2099
976.221	71.17963
976.596	100.23742
976.971	105.25662
977.346	96.2215
977.72	84.21271
978.095	94.24108
978.469	79.18753
978.844	98.24427
979.218	64.15301
979.593	115.27214
979.967	122.29322
980.341	37.08542
980.715	71.17822
981.089	55.13756
981.463	55.12617
981.837	88.21351
982.21	138.31561
982.584	54.13033
982.957	35.08764
983.331	103.24101
983.704	104.25299
984.078	64.15732
984.451	134.32962
984.824	59.14345
985.197	64.15505
985.57	113.28017
985.943	84.20618
986.316	95.23149
986.688	109.25994
987.061	101.23438
987.434	88.22782
987.806	110.26378
988.179	97.22679
988.551	117.29327
988.923	102.24878
989.295	85.21106
989.667	18.04326
990.039	80.19658
990.411	67.1537
990.783	124.28131
991.155	62.14862
991.527	148.35787
991.898	56.13938
992.27	80.19679
992.641	104.25838
993.012	117.27172
993.384	108.25474
993.755	55.14009
994.126	94.22421
994.497	77.18805
994.868	99.22519
995.239	99.23772
995.61	56.14075
995.98	51.12386
996.351	66.16295
996.722	78.1799
997.092	39.09254
997.462	14.03293
997.833	112.26232
998.203	128.30577
998.573	48.11956
998.943	69.1612
999.313	81.19294
999.683	86.20497
1000.053	82.18746
1000.423	90.21705
1000.792	86.22148
1001.162	72.17646
1001.531	102.24906
1001.901	85.21052
1002.27	138.30288
1002.639	81.20581
1003.009	112.26314
1003.378	88.22347
1003.747	69.1624
1004.116	44.10539
1004.485	108.25523
1004.853	92.23131
1005.222	97.24252
1005.591	78.18419
1005.959	54.12156
1006.328	118.26182
1006.696	65.15632
1007.064	65.16304
1007.433	83.20617
1007.801	107.25985
1008.169	76.19101
1008.537	108.23624
1008.905	40.09336
1009.273	101.24712
1009.64	75.17803
1010.008	89.21053
1010.375	139.33186
1010.743	148.33507
1011.11	69.16265
1011.478	102.24998
1011.845	93.21684
1012.212	90.20202
1012.579	120.29071
1012.946	94.2218
1013.313	98.23106
1013.68	109.242
1014.047	45.10731
1014.414	49.11573
1014.78	70.17327
1015.147	100.23953
1015.513	78.1869
1015.88	118.29806
1016.246	85.20844
1016.612	129.29057
1016.978	111.26886
1017.344	86.21108
1017.71	127.30518
1018.076	92.21514
1018.442	98.24993
1018.808	56.13979
1019.174	55.13781
1019.539	132.29885
1019.905	73.17135
1020.27	49.12092
1020.636	91.21643
1021.001	117.27645
1021.366	16.03866
1021.731	100.25485
1022.096	35.08849
1022.461	93.21821
1022.826	84.19828
1023.191	59.15451
1023.556	96.22291
1023.92	88.21479
1024.285	83.20127
1024.649	75.18289
1025.014	94.23089
1025.378	74.18519
1025.742	79.19509
1026.107	117.26095
1026.471	92.21295
1026.835	77.18987
1027.199	45.10838
1027.562	105.24135
1027.926	87.2112
1028.29	52.13149
1028.654	100.22769
1029.017	105.25538
1029.381	72.17121
1029.744	47.11988
1030.107	90.21121
1030.471	88.20909
1030.834	89.2008
1031.197	155.3658
1031.56	75.17604
1031.923	80.20567
1032.286	98.22791
1032.648	128.30144
1033.011	26.05994
1033.374	109.25315
1033.736	49.1288
1034.099	122.29322
1034.461	60.15123
1034.823	89.21994
1035.185	68.17054
1035.548	92.22204
1035.91	85.20216
1036.272	80.1809
1036.634	64.1561
1036.995	108.25087
1037.357	62.15043
1037.719	73.17669
1038.08	115.26951
1038.442	49.11627
1038.803	119.28182
1039.165	56.1411
1039.526	81.1945
1039.887	47.11247
1040.248	40.09869
1040.609	102.24952
1040.97	97.23486
1041.331	90.22612
1041.692	36.08422
1042.053	121.27144
1042.413	74.17156
1042.774	115.27614
1043.134	87.20556
1043.495	132.32674
1043.855	81.19524
1044.215	111.27229
1044.576	51.12186
1044.936	90.20459
1045.296	123.30273
1045.656	103.25014
1046.016	73.17535
1046.375	66.15953
1046.735	40.09082
1047.095	114.26334
1047.454	89.18689
1047.814	66.15809
1048.173	137.32169
1048.533	79.17984
1048.892	54.12944
1049.251	83.20699
1049.61	66.16194
1049.969	89.20809
1050.328	55.11906
1050.687	77.1863
1051.046	77.18644
1051.405	103.2536
1051.763	65.14893
1052.122	64.15912
1052.48	85.20697
1052.839	73.17088
1053.197	83.19398
1053.555	136.30452
1053.914	93.22552
1054.272	77.1851
1054.63	37.09063
1054.988	54.12811
1055.345	86.18366
1055.703	103.24525
1056.061	115.2923
1056.419	58.14984
1056.776	92.2212
1057.134	67.1545
1057.491	93.23092
1057.848	88.21743
1058.206	81.18923
1058.563	102.22227
1058.92	90.20567
1059.277	109.2658
1059.634	120.27831
1059.991	123.2904
1060.348	64.14413
1060.704	32.07647
1061.061	99.22765
1061.418	40.09712
1061.774	90.22041
1062.131	49.12949
1062.487	100.23137
1062.843	91.22505
1063.199	66.16355
1063.555	44.10201
1063.911	136.338
1064.267	148.30179
1064.623	40.09727
1064.979	143.3325
1065.335	120.28282
1065.691	83.19756
1066.046	91.19825
1066.402	71.16052
1066.757	100.24998
1067.112	110.26679
1067.468	65.15293
1067.823	146.34436
1068.178	89.21354
1068.533	95.2282
1068.888	82.19461
1069.243	75.18412
1069.598	57.13822
1069.952	31.07003
1070.307	61.15058
1070.662	72.17009
1071.016	74.16488
1071.371	99.22282
1071.725	125.29455
1072.079	81.19354
1072.434	32.07796
1072.788	81.19161
1073.142	126.30536
1073.496	39.09265
1073.85	90.20691
1074.203	74.1786
1074.557	76.20108
1074.911	110.25935
1075.265	84.19381
1075.618	94.22747
1075.971	60.14235
1076.325	56.14206
1076.678	50.11426
1077.031	130.28917
1077.385	115.24969
1077.738	84.18816
1078.091	45.10236
1078.444	90.20716
1078.796	78.19024
1079.149	71.17578
1079.502	85.19928
1079.855	43.10034
1080.207	89.21752
1080.56	40.10348
1080.912	73.17682
1081.264	112.26632
1081.617	64.15546
1081.969	62.15594
1082.321	75.18214
1082.673	33.07552
1083.025	77.18158
1083.377	-179.40286
1083.728	82.18995
1084.08	59.14693
1084.432	60.14432
1084.783	120.27709
1085.135	72.17959
1085.486	67.15265
1085.838	77.18854
1086.189	88.21191
1086.54	101.23864
1086.891	33.08364
1087.242	74.17921
1087.593	82.19828
1087.944	79.17758
1088.295	92.20719
1088.646	93.2234
1088.996	91.21735
1089.347	112.27143
1089.698	50.11807
1090.048	109.27998
1090.398	103.23618
1090.749	69.16436
1091.099	38.09568
1091.449	79.19559
1091.799	67.16709
1092.149	-13.03204
1092.499	67.16277
1092.849	97.24427
1093.199	71.17713
1093.548	76.18155
1093.898	137.33707
1094.248	78.19927
1094.597	-2.00515
1094.947	66.17544
1095.296	71.17449
1095.645	87.22464
1095.994	76.18148
1096.343	110.27358
1096.692	36.09471
1097.041	57.15401
1097.39	75.18711
1097.739	56.14528
1098.088	122.32268
1098.437	30.079
1098.785	90.24083
1099.134	83.21898
1099.482	49.13467
1099.83	76.19865
1100.179	75.1946
1100.527	82.21652
1100.875	60.15822
1101.223	62.16415
1101.571	46.12708
1101.919	39.10199
1102.267	53.14901
1102.615	3.00965
1102.962	17.05469
1103.31	3.00964
1103.658	20.06435
