Data from N2 R15 sample 2_Subt2__5__15-33-35-995.txt Node

Date: Tue Sep 02 15:33:35 PDT 2025
User: uwsun
Spectrometer: HDX01956
Trigger mode: 0
Integration Time (sec): 5.000000E-1
Scans to average: 1
Nonlinearity correction enabled: true
Boxcar width: 0
Storing dark spectrum: false
XAxis mode: Wavelengths
Number of Pixels in Spectrum: 2068
>>>>>Begin Spectral Data<<<<<
194.03	949.25596
194.578	921.55353
195.127	931.52988
195.676	932.54187
196.225	988.17269
196.773	1037.35298
197.321	1258.65158
197.87	1464.63567
198.418	1389.50326
198.966	1390.52471
199.513	1330.29774
200.061	1342.36377
200.609	1400.62088
201.156	1320.91119
201.704	1340.34315
202.251	1353.53078
202.798	1369.4858
203.345	1429.40553
203.892	1423.44312
204.438	1461.32123
204.985	1452.24744
205.532	1433.60117
206.078	1463.40094
206.624	1436.36216
207.17	1512.26816
207.716	1456.34404
208.262	1489.78869
208.808	1404.31932
209.354	1453.34769
209.899	1489.54901
210.445	1459.41675
210.99	1428.28832
211.535	1495.29654
212.08	1438.21009
212.625	1420.42699
213.17	1494.54882
213.715	1353.97208
214.259	1458.23589
214.804	1475.44877
215.348	1560.26463
215.892	1484.35074
216.436	1539.30019
216.98	1569.17725
217.524	1443.26125
218.068	1514.553
218.612	1479.52106
219.155	1415.22718
219.698	1369.22336
220.242	1403.41752
220.785	1389.19218
221.328	1393.39766
221.871	1425.50355
222.414	1347.35361
222.956	1315.19106
223.499	1396.08871
224.041	1349.1602
224.583	1393.99499
225.126	1393.0301
225.668	1383.30131
226.21	1380.40591
226.751	1315.9256
227.293	1327.07567
227.835	1374.30305
228.376	1393.17473
228.918	1392.44846
229.459	1325.30293
230	1284.13387
230.541	1378.14431
231.082	1366.27346
231.622	1382.1481
232.163	1351.25018
232.704	1402.37569
233.244	1335.30703
233.784	1424.38481
234.324	1326.9306
234.864	1426.12767
235.404	1361.21889
235.944	1378.22501
236.484	1466.4795
237.023	1373.19396
237.563	1373.12597
238.102	1400.22544
238.641	1446.49137
239.18	1295.07196
239.719	1398.4133
240.258	1411.09057
240.797	1399.2497
241.335	1396.33256
241.874	1393.65942
242.412	1446.30957
242.95	1395.22938
243.488	1477.18282
244.026	1365.10122
244.564	1425.85157
245.102	1399.05763
245.64	1389.27616
246.177	1418.07639
246.715	1483.35114
247.252	1414.1488
247.789	1524.70318
248.326	1330.16862
248.863	1452.02622
249.4	1386.08476
249.936	1413.83081
250.473	1464.21635
251.009	1415.11551
251.546	1387.98877
252.082	1465.03748
252.618	1436.05196
253.154	1457.29647
253.69	1482.12637
254.226	1456.27852
254.761	1394.04337
255.297	1415.98414
255.832	1397.19234
256.367	1440.22224
256.903	1444.01364
257.438	1479.2545
257.972	1431.04664
258.507	1380.06454
259.042	1414.96082
259.576	1436.93092
260.111	1497.21538
260.645	1479.00376
261.179	1451.18544
261.713	1485.07222
262.247	1474.18031
262.781	1418.85289
263.315	1451.33266
263.849	1507.45874
264.382	1414.11969
264.915	1499.22639
265.449	1465.29997
265.982	1536.18442
266.515	1477.34155
267.048	1499.92955
267.58	1545.07418
268.113	1415.92163
268.646	1520.41374
269.178	1513.08245
269.71	1556.0626
270.243	1491.15069
270.775	1482.48125
271.307	1541.36654
271.838	1545.33269
272.37	1476.36054
272.902	1458.10707
273.433	1486.00358
273.965	1487.33348
274.496	1483.41259
275.027	1503.40611
275.558	1543.36274
276.089	1453.29926
276.62	1563.56634
277.15	1500.39655
277.681	1513.00801
278.211	1528.39773
278.741	1446.97127
279.272	1520.13447
279.802	1504.42601
280.332	1527.23853
280.861	1538.32407
281.391	1511.10231
281.921	1505.30666
282.45	1579.49483
282.98	1515.57869
283.509	1544.10196
284.038	1546.14147
284.567	1607.28183
285.096	1547.33298
285.625	1527.10738
286.153	1531.20367
286.682	1533.12794
287.21	1544.29743
287.739	1592.27502
288.267	1471.24614
288.795	1573.65389
289.323	1563.19501
289.851	1571.22722
290.378	1597.10461
290.906	1580.31368
291.433	1593.44725
291.961	1541.07548
292.488	1560.40928
293.015	1687.28885
293.542	1607.48623
294.069	1593.3705
294.596	1596.41841
295.122	1660.32087
295.649	1651.06377
296.175	1653.38173
296.702	1601.34127
297.228	1672.40284
297.754	1626.08615
298.28	1680.14224
298.806	1691.34186
299.332	1624.01318
299.857	1640.09164
300.383	1695.55291
300.908	1594.27086
301.433	1659.33334
301.958	1768.25695
302.483	1623.39261
303.008	1747.47609
303.533	1741.67737
304.058	1729.29098
304.582	1684.22801
305.107	1694.59742
305.631	1744.17588
306.155	1669.16199
306.679	1766.22074
307.203	1784.21009
307.727	1744.27254
308.251	1747.42231
308.775	1748.23387
309.298	1760.27091
309.822	1819.53198
310.345	1872.30592
310.868	1851.31675
311.391	1850.44433
311.914	1786.44371
312.437	1853.16079
312.96	1832.22861
313.482	1834.24684
314.005	1813.45205
314.527	1859.64751
315.049	1940.55936
315.571	1824.9685
316.093	1954.43835
316.615	1844.26733
317.137	1933.9373
317.659	1938.35969
318.18	1998.34662
318.702	1998.16835
319.223	1983.72917
319.744	1943.99589
320.265	2062.29594
320.786	2031.3498
321.307	2067.4
321.828	2032.01686
322.348	2041.14653
322.869	2114.13722
323.389	1893.04767
323.909	2066.03881
324.43	2185.2857
324.95	2182.00082
325.47	2152.25564
325.989	2159.07509
326.509	2175.78425
327.029	2188.86036
327.548	2225.83559
328.067	2263.09753
328.587	2304.27497
329.106	2211.85786
329.625	2325.56349
330.144	2261.88018
330.662	2266.86781
331.181	2348.91211
331.7	2337.8996
332.218	2460.55994
332.736	2435.86112
333.255	2368.81086
333.773	2465.86022
334.291	2517.11779
334.808	2436.57486
335.326	2446.61668
335.844	2508.64492
336.361	2484.99744
336.879	2567.61304
337.396	2556.74179
337.913	2640.50742
338.43	2760.36373
338.947	2690.60147
339.464	2626.16455
339.981	2744.50126
340.497	2853.67498
341.014	2785.58297
341.53	2752.23084
342.046	2723.57519
342.562	2798.65278
343.078	2849.32898
343.594	2933.34851
344.11	2953.29922
344.626	2929.53238
345.141	2992.04401
345.657	3016.04286
346.172	2943.26976
346.687	3028.99297
347.202	3011.88213
347.717	3163.05683
348.232	3121.271
348.747	3069.89213
349.261	3034.6164
349.776	3181.88324
350.29	3139.02679
350.805	3290.05124
351.319	3167.8023
351.833	3171.61247
352.347	3344.68149
352.861	3271.65037
353.374	3328.61798
353.888	3361.75347
354.401	3402.48602
354.915	3313.35264
355.428	3384.74508
355.941	3561.34154
356.454	3620.237
356.967	3523.44276
357.48	3595.2802
357.993	3545.5578
358.505	3450.52108
359.018	3693.38249
359.53	3702.25603
360.042	3664.00163
360.554	3765.25348
361.066	3616.30487
361.578	3730.83766
362.09	3620.20283
362.602	3754.8017
363.113	3850.90371
363.625	3838.77489
364.136	3952.64426
364.647	3895.70577
365.158	3983.73893
365.669	3932.85705
366.18	3915.78996
366.691	3965.53144
367.201	3944.7662
367.712	4052.50114
368.222	4087.47671
368.733	4084.2701
369.243	4163.25225
369.753	4249.34286
370.263	4467.31567
370.773	4385.41546
371.282	4373.24041
371.792	4361.02368
372.301	4537.10272
372.811	4653.26426
373.32	4670.75199
373.829	4681.86492
374.338	4886.74929
374.847	5156.787
375.356	5194.79587
375.865	5358.87195
376.373	5602.02002
376.882	5721.03857
377.39	5736.10361
377.898	5624.08332
378.407	6061.87449
378.915	6412.73705
379.423	6561.95006
379.93	6868.13151
380.438	6867.35263
380.946	7276.31099
381.453	7510.72194
381.96	7761.90664
382.468	8218.19873
382.975	8770.58146
383.482	9116.10354
383.989	9279.14377
384.495	9453.00661
385.002	9808.02263
385.509	10351.34425
386.015	11001.3182
386.521	11445.44655
387.028	11865.43803
387.534	12246.12871
388.04	12729.32914
388.546	12915.93291
389.051	13236.12326
389.557	14294.33699
390.063	16017.85347
390.568	16387.23674
391.073	16553.81818
391.578	17270.62678
392.084	17399.25564
392.589	17933.48979
393.093	18863.44305
393.598	21023.34524
394.103	22846.15904
394.607	25089.33859
395.112	26693.09638
395.616	28118.28066
396.12	30357.53918
396.624	33621.74909
397.128	36289.75821
397.632	39822.11428
398.136	38559.59168
398.639	36234.99816
399.143	32503.66402
399.646	28888.45294
400.15	25083.82847
400.653	20124.16724
401.156	13866.23708
401.659	5169.95759
402.162	1054.15589
402.664	0
403.167	0
403.67	0
404.172	0
404.674	0
405.176	0
405.678	0
406.18	0
406.682	0
407.184	0
407.686	0
408.187	0
408.688	0
409.19	0
409.691	0
410.192	0
410.693	0
411.194	435.30976
411.694	4082.94878
412.195	8864.71461
412.696	12089.80453
413.196	12760.96929
413.696	12863.67595
414.196	13703.56671
414.696	17261.84252
415.196	21764.24417
415.696	29583.19008
416.196	36460.31858
416.695	40057.39798
417.195	41392.74103
417.694	42311.08144
418.194	43882.52025
418.693	42867.80595
419.192	41869.41631
419.691	40917.0412
420.19	40180.05099
420.688	39444.00564
421.187	37825.8648
421.685	35972.60004
422.184	33223.37471
422.682	28630.85592
423.18	24016.83321
423.678	21175.22843
424.176	19755.69232
424.674	18490.09248
425.172	17939.4388
425.669	16831.37506
426.167	15927.60996
426.664	14594.83289
427.161	13320.28635
427.659	12431.87541
428.156	11539.26683
428.652	10806.76303
429.149	10479.94315
429.646	10003.2983
430.143	9528.91695
430.639	9081.75387
431.135	8414.96741
431.632	7981.77144
432.128	7630.09488
432.624	6877.95558
433.12	6668.0845
433.616	6521.5779
434.111	6186.44538
434.607	5920.72959
435.103	6072.05561
435.598	5728.4818
436.093	5775.19751
436.588	5388.87475
437.083	5149.74984
437.578	4915.72204
438.073	4547.82161
438.568	4474.95653
439.062	4398.75508
439.557	4258.05968
440.051	3948.09844
440.546	3870.16682
441.04	3816.38121
441.534	3732.67572
442.028	3757.56062
442.522	3638.62806
443.015	3529.46641
443.509	3399.93429
444.002	3391.94679
444.496	3356.65502
444.989	3381.02558
445.482	3322.12816
445.975	3291.80804
446.468	3244.73554
446.961	3263.74198
447.454	3053.06404
447.947	2993.21741
448.439	2977.4083
448.931	2964.12219
449.424	2978.60579
449.916	2878.51533
450.408	2866.24722
450.9	2801.54617
451.392	2791.73619
451.884	2833.44535
452.375	2653.75371
452.867	2712.52955
453.358	2659.49218
453.849	2553.38991
454.341	2575.57216
454.832	2516.47225
455.323	2435.90929
455.814	2469.75662
456.304	2437.79356
456.795	2355.81378
457.285	2467.76369
457.776	2314.92749
458.266	2303.99493
458.756	2281.10224
459.247	2122.06608
459.737	2106.08684
460.226	2126.93263
460.716	2034.16521
461.206	1962.22373
461.695	2029.4048
462.185	2012.2103
462.674	2041.16447
463.163	2015.06469
463.653	1936.9369
464.142	1872.33407
464.63	1853.42937
465.119	1821.24016
465.608	1839.25053
466.096	1843.14507
466.585	1828.33856
467.073	1792.46055
467.561	1713.47003
468.05	1731.39115
468.538	1750.5815
469.026	1651.48509
469.513	1576.13557
470.001	1596.3316
470.489	1651.47038
470.976	1572.41588
471.463	1617.67699
471.951	1495.66434
472.438	1460.45705
472.925	1399.41976
473.412	1449.64041
473.899	1430.45257
474.385	1350.59633
474.872	1382.46996
475.359	1358.59426
475.845	1324.20031
476.331	1291.32735
476.817	1252.57541
477.303	1197.42279
477.789	1222.53829
478.275	1170.56764
478.761	1163.51874
479.247	1191.39194
479.732	1010.44955
480.218	1082.64774
480.703	1106.57049
481.188	1094.25514
481.673	1091.39036
482.158	976.14028
482.643	1003.56714
483.128	971.28837
483.612	1006.38817
484.097	944.43829
484.581	960.35851
485.066	930.40261
485.55	899.18588
486.034	919.18893
486.518	848.25397
487.002	814.28959
487.486	878.37464
487.969	859.3553
488.453	852.42917
488.936	786.15061
489.42	781.12888
489.903	810.38742
490.386	333.38746
490.869	772.1127
491.352	783.32134
491.835	724.99641
492.318	700.07669
492.8	769.04281
493.283	700.2577
493.765	657.14977
494.247	718.17889
494.73	631.98267
495.212	646.13315
495.694	642.06316
496.175	561.96278
496.657	681.1544
497.139	684.79739
497.62	571.98415
498.102	591.07916
498.583	616.1428
499.064	584.9389
499.545	581.971
500.026	524.8687
500.507	572.98193
500.988	575.07215
501.469	469.90181
501.949	528.99695
502.43	493.88416
502.91	550.82619
503.39	571.08682
503.87	543.95535
504.35	515.93076
504.83	491.80924
505.31	501.92905
505.79	488.89343
506.269	476.85915
506.749	498.86261
507.228	493.8837
507.707	490.82488
508.187	537.98541
508.666	435.83602
509.145	398.72973
509.623	389.72168
510.102	446.84911
510.581	447.85329
511.059	468.91744
511.538	462.95105
512.016	433.81694
512.494	481.91643
512.972	407.77203
513.45	342.62957
513.928	430.82382
514.406	352.67535
514.884	397.82185
515.361	415.78989
515.839	487.85857
516.316	387.74627
516.793	484.97347
517.27	439.85103
517.747	312.65905
518.224	404.74783
518.701	439.76987
519.178	306.62114
519.654	426.81379
520.131	330.66955
520.607	357.72648
521.083	432.7825
521.56	371.70957
522.036	364.64485
522.512	369.74679
522.987	340.65548
523.463	352.6822
523.939	347.70066
524.414	422.78389
524.89	398.76435
525.365	382.69792
525.84	321.62286
526.315	338.66823
526.79	390.70965
527.265	330.61725
527.74	348.69703
528.215	358.69051
528.689	382.68204
529.164	353.62487
529.638	319.68639
530.112	346.66769
530.587	315.54772
531.061	338.67042
531.534	399.7916
532.008	322.64048
532.482	348.65801
532.956	311.66054
533.429	364.72705
533.903	351.63786
534.376	318.58038
534.849	397.75012
535.322	378.73189
535.795	321.6553
536.268	341.67874
536.741	324.64956
537.213	391.7395
537.686	324.65587
538.158	383.69496
538.631	439.87137
539.103	378.68851
539.575	472.78028
540.047	396.70741
540.519	426.83194
540.991	425.85343
541.463	436.86036
541.934	469.86016
542.406	439.84696
542.877	432.78729
543.348	490.95376
543.82	508.00118
544.291	532.98778
544.762	476.90403
545.233	473.9577
545.703	557.9554
546.174	569.03314
546.645	534.99939
547.115	630.16882
547.585	661.15436
548.056	667.21456
548.526	761.31339
548.996	732.31802
549.466	895.58059
549.935	812.38639
550.405	869.32865
550.875	942.55658
551.344	1025.69005
551.814	1035.60802
552.283	1101.56678
552.752	1143.72935
553.221	1181.60495
553.69	1266.73672
554.159	1259.97181
554.628	1392.8331
555.096	1404.21162
555.565	1557.95673
556.033	1611.18826
556.502	1597.2759
556.97	1685.05779
557.438	1761.33577
557.906	1793.38066
558.374	1948.33565
558.842	1999.51591
559.31	2149.32447
559.777	2246.64981
560.245	2405.60289
560.712	2617.55228
561.18	2727.30613
561.647	2959.3385
562.114	3195.36903
562.581	3380.79025
563.048	3674.3
563.514	3796.58812
563.981	4203.99612
564.448	4451.73392
564.914	4817.76586
565.381	5129.46781
565.847	5430.48476
566.313	5739.31494
566.779	6090.03391
567.245	6525.15945
567.711	6937.29456
568.176	7277.13986
568.642	7847.89863
569.108	8220.19475
569.573	8759.9137
570.038	9282.10053
570.504	9849.64051
570.969	10277.74718
571.434	10975.16971
571.899	11423.83482
572.363	11947.03884
572.828	12652.46688
573.293	13210.52996
573.757	13708.48821
574.222	14201.25675
574.686	14689.77766
575.15	15086.62341
575.614	15788.60879
576.078	16287.72877
576.542	16426.89294
577.006	16762.0948
577.469	17199.10256
577.933	17521.69182
578.396	17799.64205
578.86	17588.179
579.323	17782.46521
579.786	17925.59267
580.249	17753.1708
580.712	17615.59668
581.175	17489.86018
581.637	17402.24176
582.1	17142.08962
582.563	16865.14029
583.025	16587.39021
583.487	16459.68746
583.95	15922.32528
584.412	15793.1623
584.874	15478.10512
585.336	15157.26847
585.797	14447.8763
586.259	14174.97365
586.721	13696.04703
587.182	13466.11867
587.643	13184.35818
588.105	12746.72538
588.566	12409.60453
589.027	11964.65946
589.488	11808.15742
589.949	11361.35597
590.41	10985.89401
590.87	10890.47625
591.331	10576.39427
591.791	10160.57531
592.252	9923.81651
592.712	9631.85331
593.172	9326.12654
593.632	9210.86085
594.092	8974.31366
594.552	8758.8735
595.011	8454.37884
595.471	8420.30182
595.931	8134.89643
596.39	7876.78263
596.849	7689.54835
597.308	7585.28091
597.768	7331.69394
598.227	7289.44757
598.685	7259.26135
599.144	7070.24166
599.603	7096.30934
600.062	6865.76712
600.52	6754.96311
600.978	6656.24878
601.437	6664.09013
601.895	6585.75163
602.353	6535.94617
602.811	6445.93625
603.269	6378.31243
603.727	6369.31145
604.184	6286.9976
604.642	6208.47084
605.099	6277.16086
605.557	6188.45594
606.014	6252.79445
606.471	6129.56879
606.928	6188.75754
607.385	6247.36056
607.842	6329.06306
608.299	6362.16897
608.755	6375.32704
609.212	6316.92087
609.668	6279.88618
610.125	6324.36917
610.581	6406.31776
611.037	6292.13557
611.493	6252.31602
611.949	6202.39044
612.405	6041.56018
612.861	6188.3302
613.316	6084.39684
613.772	6168.17933
614.227	6035.35138
614.683	6176.8712
615.138	6103.293
615.593	6093.26647
616.048	5943.25843
616.503	5975.67216
616.958	5789.84403
617.412	5831.47905
617.867	5662.14828
618.321	5682.86349
618.776	5677.19659
619.23	5509.59837
619.684	5421.44455
620.138	5338.66589
620.592	5324.93783
621.046	5246.78708
621.5	5123.06392
621.954	5056.66043
622.407	4910.67355
622.861	4893.21869
623.314	4864.84531
623.768	4806.01102
624.221	4708.15802
624.674	4601.07468
625.127	4618.17355
625.58	4552.0886
626.033	4460.9573
626.485	4426.43854
626.938	4351.47364
627.39	4320.34758
627.843	4301.33566
628.295	4153.41675
628.747	4168.59208
629.199	4082.36319
629.651	4076.36354
630.103	4076.4233
630.555	4011.01833
631.006	4015.62877
631.458	3982.683
631.909	4012.54236
632.361	4042.61023
632.812	3922.5987
633.263	3918.21408
633.714	3859.21955
634.165	3861.98294
634.616	3863.85474
635.067	3952.40912
635.518	3955.85906
635.968	3978.85092
636.419	3978.28432
636.869	3918.87537
637.319	3942.67132
637.769	3911.48236
638.219	4027.8826
638.669	3953.88509
639.119	4042.024
639.569	4000.95702
640.019	4131.63031
640.468	4117.41609
640.918	4173.89899
641.367	4178.42028
641.816	4241.37334
642.265	4247.58801
642.714	4404.51017
643.163	4396.47758
643.612	4359.76715
644.061	4359.97372
644.51	4365.43225
644.958	4442.16695
645.406	4522.68555
645.855	4537.87239
646.303	4547.53792
646.751	4472.37641
647.199	4515.36385
647.647	4552.41723
648.095	4587.37479
648.543	4706.65237
648.99	4596.65948
649.438	4600.56945
649.885	4571.95591
650.333	4623.40706
650.78	4620.74071
651.227	4545.83828
651.674	4598.35435
652.121	4531.85776
652.568	4506.85342
653.015	4509.18653
653.461	4417.75394
653.908	4462.59908
654.354	4374.82629
654.801	4362.69032
655.247	4462.22499
655.693	4262.56407
656.139	4315.88897
656.585	4276.91751
657.031	4158.75775
657.477	4354.17733
657.922	4327.60276
658.368	4209.17674
658.813	4239.75131
659.259	4357.88786
659.704	4191.76694
660.149	4211.76262
660.594	4228.88924
661.039	4149.64932
661.484	4235.95252
661.929	4238.79484
662.373	4147.38301
662.818	4179.24986
663.262	4134.04516
663.707	4164.42926
664.151	4150.16305
664.595	4133.06883
665.039	4290.24524
665.483	4183.4689
665.927	4261.85823
666.371	4198.74064
666.814	4329.92867
667.258	4323.83821
667.701	4320.27563
668.145	4354.23804
668.588	4333.13441
669.031	4366.78382
669.474	4346.98773
669.917	4399.39685
670.36	4311.23206
670.803	4392.99673
671.245	4447.06547
671.688	4358.09799
672.13	4334.49971
672.573	4358.42141
673.015	4446.9329
673.457	4356.31689
673.899	4324.07043
674.341	4418.98921
674.783	4394.94528
675.225	4414.13252
675.666	4386.96127
676.108	4409.285
676.549	4457.84709
676.991	4369.40197
677.432	4372.79692
677.873	4374.72444
678.314	4446.90915
678.755	4327.10758
679.196	4423.62311
679.637	4377.13029
680.078	4420.79326
680.518	4303.83105
680.959	4383.97171
681.399	4295.27585
681.839	4309.1314
682.28	4292.23528
682.72	4321.68028
683.16	4309.30224
683.6	4343.66296
684.039	4281.12228
684.479	4328.18175
684.919	4246.75635
685.358	4268.48816
685.798	4372.70229
686.237	4339.08371
686.676	4343.79004
687.115	4354.86011
687.554	4328.9468
687.993	4426.4159
688.432	4313.68734
688.871	4363.60647
689.309	4355.97427
689.748	4457.05713
690.186	4486.92063
690.625	4437.79594
691.063	4474.94489
691.501	4457.19214
691.939	4378.29276
692.377	4521.04961
692.815	4540.88569
693.253	4552.93609
693.69	4521.32091
694.128	4422.04436
694.565	4537.87836
695.003	4550.35607
695.44	4611.72493
695.877	4474.74971
696.314	4720.08214
696.751	4550.56523
697.188	4602.56834
697.625	4650.55904
698.061	4672.8434
698.498	4745.88139
698.934	4720.85292
699.371	4701.68373
699.807	4741.70597
700.243	4694.8553
700.679	4804.36723
701.115	4771.6682
701.551	4793.64982
701.987	4788.33295
702.422	4819.68594
702.858	4809.7186
703.294	4783.38205
703.729	4887.88403
704.164	4933.72685
704.599	4852.22477
705.035	4829.26075
705.47	4841.85188
705.904	4873.5154
706.339	5001.4516
706.774	4904.53928
707.209	4935.40655
707.643	4879.74233
708.078	4856.85868
708.512	4912.03118
708.946	4894.72475
709.38	4968.59243
709.814	4898.37782
710.248	4782.91248
710.682	4838.68719
711.116	4932.64289
711.549	4790.3789
711.983	4779.51272
712.416	4774.69039
712.85	4792.08593
713.283	4803.67403
713.716	4684.21663
714.149	4699.79534
714.582	4631.40162
715.015	4594.23699
715.448	4524.32306
715.881	4511.30958
716.313	4444.79808
716.746	4305.89991
717.178	4395.01057
717.61	4339.46417
718.043	4198.39014
718.475	4216.16457
718.907	4255.49713
719.339	4000.78281
719.77	3991.0922
720.202	3952.60108
720.634	3932.30584
721.065	3884.14513
721.497	3849.40022
721.928	3762.4357
722.359	3686.32261
722.79	3593.30648
723.221	3619.67108
723.652	3521.88435
724.083	3508.94556
724.514	3429.08889
724.945	3350.2481
725.375	3274.17218
725.806	3195.67604
726.236	3132.85515
726.666	3119.32894
727.096	2965.55592
727.526	2965.77509
727.956	2941.09062
728.386	2899.57243
728.816	2871.73526
729.246	2757.46339
729.675	2696.52721
730.105	2688.53448
730.534	2589.22434
730.964	2507.6368
731.393	2539.55094
731.822	2444.66505
732.251	2451.62991
732.68	2436.22523
733.109	2377.43059
733.537	2275.27559
733.966	2300.43402
734.395	2266.05495
734.823	2197.92447
735.251	2140.19201
735.68	2167.40791
736.108	2020.35034
736.536	2029.03134
736.964	1995.93628
737.392	1878.18136
737.82	1892.0106
738.247	1845.96617
738.675	1815.93527
739.102	1776.07744
739.53	1714.0963
739.957	1694.11985
740.384	1705.96604
740.811	1638.00138
741.238	1588.79942
741.665	1546.5724
742.092	1558.69257
742.519	1469.71362
742.945	1506.65276
743.372	1460.70692
743.798	1433.80782
744.225	1406.50776
744.651	1387.66301
745.077	1324.55934
745.503	1370.54953
745.929	1273.37371
746.355	1336.57158
746.781	1228.4094
747.207	1173.17597
747.632	1143.23759
748.058	1149.31474
748.483	1168.12441
748.908	1105.23612
749.334	1069.15137
749.759	1058.03245
750.184	1032.01748
750.609	1031.09466
751.033	1027.9983
751.458	1024.87337
751.883	1017.09328
752.307	940.85348
752.732	856.8391
753.156	878.85569
753.58	934.86573
754.005	853.87147
754.429	849.70633
754.853	778.68504
755.277	839.70401
755.7	827.77639
756.124	715.57185
756.548	730.52046
756.971	802.70161
757.394	696.60187
757.818	707.62106
758.241	650.48404
758.664	696.56617
759.087	606.21375
759.51	689.52858
759.933	608.32102
760.356	622.44453
760.778	608.35291
761.201	656.42966
761.623	623.36369
762.046	629.34265
762.468	622.34747
762.89	560.2645
763.312	573.2752
763.734	527.16543
764.156	531.20551
764.578	513.08524
765	554.23618
765.421	421.00427
765.843	492.19919
766.264	500.11689
766.686	466.09121
767.107	437.99265
767.528	412.98026
767.949	420.00437
768.37	374.87174
768.791	475.06728
769.212	368.8783
769.632	355.78647
770.053	389.97203
770.473	381.87844
770.894	412.97348
771.314	375.85047
771.734	342.76036
772.154	389.947
772.575	367.80763
772.994	328.71197
773.414	365.83351
773.834	333.79676
774.254	308.72471
774.673	333.77604
775.093	293.69867
775.512	269.64145
775.931	297.72553
776.351	257.61917
776.77	306.7186
777.189	307.70136
777.607	262.64872
778.026	252.60954
778.445	200.49033
778.864	270.67072
779.282	265.61736
779.701	250.61221
780.119	245.60164
780.537	215.52426
780.955	271.66744
781.373	237.57056
781.791	232.50725
782.209	259.57836
782.627	210.54117
783.045	245.5471
783.462	257.63669
783.88	201.50923
784.297	207.50946
784.715	202.50767
785.132	187.44457
785.549	184.45211
785.966	218.53524
786.383	221.53023
786.8	193.4397
787.217	187.43514
787.633	161.39611
788.05	221.51243
788.466	230.52833
788.883	152.3827
789.299	210.49415
789.715	188.44841
790.131	224.54284
790.547	204.49846
790.963	200.48596
791.379	166.4133
791.795	169.37989
792.21	240.54467
792.626	186.43307
793.041	187.45276
793.457	241.57843
793.872	189.43563
794.287	133.31437
794.702	160.38878
795.117	138.33921
795.532	155.38304
795.947	177.41885
796.362	193.45176
796.776	227.51778
797.191	149.36022
797.605	87.20405
798.02	147.35337
798.434	221.47901
798.848	181.43741
799.262	155.3791
799.676	183.43824
800.09	142.34543
800.504	165.39423
800.918	143.32751
801.331	182.46854
801.745	173.39047
802.158	194.47474
802.572	182.43326
802.985	222.52259
803.398	134.31643
803.811	165.41774
804.224	177.43274
804.637	132.31134
805.05	155.35427
805.462	144.34964
805.875	118.30336
806.288	122.29177
806.7	147.36473
807.112	142.32541
807.525	126.30823
807.937	157.38227
808.349	138.34184
808.761	150.36407
809.173	158.37714
809.584	147.35873
809.996	90.21976
810.408	107.27437
810.819	159.36809
811.231	175.44384
811.642	210.4876
812.053	263.60279
812.464	349.78605
812.875	320.78184
813.286	258.64232
813.697	238.53947
814.108	167.40114
814.519	162.3551
814.929	146.3676
815.34	159.3796
815.75	122.30717
816.16	178.43526
816.571	150.38428
816.981	164.3808
817.391	122.292
817.801	118.29059
818.211	184.4296
818.62	104.24892
819.03	180.43245
819.44	158.40648
819.849	146.36298
820.259	161.40558
820.668	137.33283
821.077	87.21539
821.486	184.43398
821.895	168.40791
822.304	157.40973
822.713	110.25824
823.122	145.35701
823.531	142.33219
823.939	130.31328
824.348	150.35942
824.756	140.34629
825.164	155.38416
825.573	100.24953
825.981	117.28776
826.389	155.38346
826.797	122.30265
827.205	150.33891
827.612	150.36475
828.02	134.31077
828.428	145.36423
828.835	94.2462
829.243	150.35215
829.65	128.31475
830.057	124.29792
830.464	138.33193
830.871	177.41529
831.278	122.292
831.685	132.29105
832.092	134.32414
832.499	124.26837
832.905	125.3132
833.312	141.31721
833.718	101.25015
834.124	131.2958
834.531	105.2629
834.937	155.39158
835.343	116.27742
835.749	162.37169
836.155	123.31881
836.561	100.24445
836.966	160.38455
837.372	141.35406
837.777	136.33442
838.183	123.27058
838.588	159.38801
838.993	117.28222
839.399	106.25718
839.804	74.18002
840.209	142.35637
840.613	90.19936
841.018	138.34484
841.423	131.33202
841.828	134.3346
842.232	184.44592
842.637	72.16969
843.041	89.22701
843.445	139.34388
843.849	115.282
844.253	137.32119
844.657	109.27213
845.061	163.36264
845.465	134.31937
845.869	154.35163
846.272	118.28436
846.676	132.31521
847.079	121.30438
847.483	170.41586
847.886	155.37076
848.289	105.27804
848.692	108.27124
849.095	111.2642
849.498	196.48497
849.901	152.34259
850.304	122.28831
850.707	108.27309
851.109	135.33716
851.512	90.22
851.914	76.19095
852.316	81.20413
852.718	81.20828
853.121	74.18089
853.523	152.34903
853.925	98.25388
854.326	104.25791
854.728	109.27783
855.13	79.203
855.531	110.26036
855.933	119.28259
856.334	93.23042
856.736	83.18512
857.137	74.17162
857.538	112.27886
857.939	130.31695
858.34	192.45637
858.741	137.35325
859.142	122.28965
859.542	114.29787
859.943	91.2248
860.343	94.23123
860.744	116.28007
861.144	120.2894
861.544	85.20325
861.945	92.23305
862.345	129.3114
862.745	123.30206
863.145	129.30433
863.544	81.20384
863.944	146.33914
864.344	96.23685
864.743	137.33507
865.143	129.32718
865.542	105.24135
865.941	102.25045
866.34	123.29107
866.74	101.26906
867.139	73.17429
867.537	121.30482
867.936	112.26684
868.335	156.38996
868.734	94.23863
869.132	150.34223
869.531	120.28688
869.929	106.2393
870.327	100.23779
870.726	170.41524
871.124	173.39525
871.522	133.33421
871.92	155.37543
872.318	125.30174
872.715	115.28169
873.113	144.34518
873.511	93.23016
873.908	58.14635
874.306	92.22731
874.703	93.23118
875.1	137.3455
875.497	146.34409
875.894	98.23822
876.291	72.1762
876.688	102.26095
877.085	122.2891
877.482	115.28482
877.878	114.27139
878.275	69.17488
878.671	153.33403
879.068	134.31876
879.464	113.2702
879.86	77.18137
880.256	125.30459
880.652	132.33116
881.048	150.3653
881.444	107.25223
881.84	134.33581
882.236	119.2958
882.631	108.26253
883.027	121.28944
883.422	148.37223
883.817	80.20013
884.213	95.24206
884.608	70.17118
885.003	120.28578
885.398	81.20179
885.793	135.33398
886.188	97.23927
886.582	158.39795
886.977	160.3721
887.371	114.28528
887.766	45.1121
888.16	94.23294
888.554	155.37628
888.949	124.3075
889.343	150.35997
889.737	50.13331
890.131	115.28534
890.525	147.36978
890.918	78.19548
891.312	143.33643
891.706	133.34425
892.099	146.36549
892.492	130.27606
892.886	103.24976
893.279	142.35612
893.672	103.25994
894.065	127.31385
894.458	97.24208
894.851	150.36106
895.244	92.23338
895.637	105.25049
896.029	106.2567
896.422	94.22798
896.814	129.31633
897.206	84.1989
897.599	129.31469
897.991	111.26552
898.383	147.34113
898.775	138.3062
899.167	85.19702
899.559	134.33436
899.951	176.4051
900.342	117.29422
900.734	61.15114
901.125	140.36193
901.517	111.26957
901.908	137.32332
902.299	83.2018
902.69	90.21088
903.082	143.34049
903.473	97.23035
903.863	165.41268
904.254	106.2435
904.645	135.3308
905.036	102.24469
905.426	147.3303
905.817	134.3239
906.207	68.16157
906.597	92.21354
906.987	112.28734
907.378	110.27537
907.768	117.30597
908.158	139.33351
908.547	35.09069
908.937	107.27196
909.327	156.37152
909.717	126.31577
910.106	125.29615
910.495	118.29112
910.885	146.36364
911.274	101.25024
911.663	137.34253
912.052	178.42911
912.441	119.29903
912.83	115.26073
913.219	123.31804
913.608	118.28555
913.997	74.18478
914.385	130.30603
914.774	87.21049
915.162	108.25464
915.55	153.36318
915.939	64.1612
916.327	135.3319
916.715	63.16024
917.103	176.42332
917.491	146.35503
917.878	120.29137
918.266	114.29247
918.654	89.22589
919.041	74.19243
919.429	98.22926
919.816	110.27597
920.203	118.28264
920.591	102.25063
920.978	139.3349
921.365	59.15461
921.752	103.24318
922.139	129.27555
922.525	63.15099
922.912	79.19171
923.299	110.27049
923.685	72.18717
924.072	137.31061
924.458	117.28637
924.844	80.19694
925.231	58.13484
925.617	88.22236
926.003	118.29806
926.389	88.22054
926.774	111.27833
927.16	136.33257
927.546	67.17054
927.931	131.32219
928.317	138.31243
928.702	137.3188
929.088	91.2136
929.473	76.19252
929.858	92.2207
930.243	91.21676
930.628	82.19836
931.013	97.23839
931.398	110.25006
931.783	138.35799
932.167	132.31786
932.552	104.25809
932.937	113.2773
933.321	82.20461
933.705	97.24252
934.09	164.40609
934.474	137.32006
934.858	101.25971
935.242	81.18663
935.626	74.18865
936.009	93.24561
936.393	114.28683
936.777	91.23138
937.16	124.31857
937.544	147.33991
937.927	62.157
938.311	151.36175
938.694	128.33411
939.077	88.20917
939.46	110.26719
939.843	137.28044
940.226	116.29416
940.609	96.21841
940.991	89.22501
941.374	104.25167
941.757	118.28759
942.139	95.21145
942.522	145.33648
942.904	123.29164
943.286	118.29625
943.668	101.25934
944.05	118.28705
944.432	143.34689
944.814	116.28229
945.196	67.16277
945.578	54.12826
945.959	113.26161
946.341	150.36147
946.722	134.30942
947.104	72.17141
947.485	118.27096
947.866	80.20049
948.247	89.223
948.628	125.30072
949.009	100.25386
949.39	92.22731
949.771	101.23262
950.152	110.26699
950.532	55.13517
950.913	99.23663
951.293	87.23361
951.674	113.2701
952.054	90.22139
952.434	78.19265
952.814	113.26565
953.194	101.26206
953.574	128.31079
953.954	118.27659
954.334	111.2736
954.714	104.25091
955.093	139.33617
955.473	95.23563
955.853	118.30188
956.232	145.39138
956.611	120.28403
956.99	84.20983
957.37	94.23769
957.749	142.33285
958.128	101.25216
958.506	84.21663
958.885	100.25016
959.264	71.17333
959.643	126.28236
960.021	84.20686
960.4	115.25723
960.778	124.30131
961.156	79.19702
961.535	107.24663
961.913	129.29722
962.291	73.18653
962.669	80.20157
963.047	86.21809
963.424	80.20309
963.802	98.23884
964.18	153.38004
964.557	143.32329
964.935	120.28051
965.312	129.33135
965.69	145.35688
966.067	132.31653
966.444	152.36754
966.821	97.24803
967.198	118.28264
967.575	125.30311
967.952	121.28124
968.329	108.25997
968.705	138.29036
969.082	115.29157
969.458	39.09375
969.835	100.24117
970.211	98.2494
970.587	101.24914
970.963	118.29912
971.339	73.18987
971.715	110.27169
972.091	129.31304
972.467	130.31955
972.843	59.14618
973.219	145.34194
973.594	76.19791
973.97	142.33206
974.345	73.17395
974.721	160.37943
975.096	68.164
975.471	102.23956
975.846	99.23564
976.221	90.22693
976.596	58.13882
976.971	114.27815
977.346	122.28003
977.72	106.26737
978.095	94.24108
978.469	129.30326
978.844	138.34147
979.218	77.18363
979.593	128.30214
979.967	64.15552
980.341	131.29677
980.715	106.2644
981.089	111.27481
981.463	91.20724
981.837	77.18721
982.21	151.34444
982.584	81.1945
982.957	86.21335
983.331	137.31842
983.704	95.23149
984.078	114.27763
984.451	169.41303
984.824	63.15306
985.197	117.28062
985.57	103.25585
985.943	181.43625
986.316	141.34062
986.688	92.22011
987.061	146.33579
987.434	82.2125
987.806	141.33612
988.179	107.24968
988.551	98.24648
988.923	110.26789
989.295	141.34652
989.667	109.25744
990.039	85.20867
990.411	70.16048
990.783	127.28794
991.155	83.19816
991.527	177.42565
991.898	70.17378
992.27	107.2619
992.641	133.32867
993.012	160.36842
993.384	82.19439
993.755	95.24027
994.126	132.31255
994.497	78.19046
994.868	106.24077
995.239	83.19991
995.61	70.17549
995.98	73.17655
996.351	54.13362
996.722	134.3056
997.092	89.20915
997.462	92.21312
997.833	98.23016
998.203	128.30577
998.573	88.21759
998.943	90.20939
999.313	79.18825
999.683	57.13661
1000.053	133.30093
1000.423	122.29244
1000.792	125.31973
1001.162	84.20541
1001.531	106.25863
1001.901	119.29289
1002.27	80.17773
1002.639	107.27061
1003.009	98.23088
1003.378	126.31781
1003.747	127.29553
1004.116	72.17154
1004.485	113.26679
1004.853	138.34409
1005.222	111.27682
1005.591	86.20277
1005.959	116.25781
1006.328	63.14139
1006.696	124.29486
1007.064	114.28343
1007.433	107.26462
1007.801	116.28123
1008.169	99.24779
1008.537	151.32729
1008.905	78.18069
1009.273	98.23991
1009.64	89.2107
1010.008	139.32562
1010.375	119.2852
1010.743	155.35042
1011.11	90.21129
1011.478	82.20171
1011.845	138.31891
1012.212	72.16221
1012.579	101.24556
1012.946	120.28172
1013.313	122.2863
1013.68	149.32805
1014.047	64.15207
1014.414	84.19705
1014.78	80.19767
1015.147	104.24892
1015.513	94.22455
1015.88	153.38405
1016.246	106.25892
1016.612	94.21325
1016.978	90.21886
1017.344	120.29268
1017.71	163.389
1018.076	118.27453
1018.442	120.30484
1018.808	72.1792
1019.174	65.16258
1019.539	195.43581
1019.905	88.20595
1020.27	73.17934
1020.636	136.32065
1021.001	81.19272
1021.366	94.22378
1021.731	126.31963
1022.096	84.21051
1022.461	128.29827
1022.826	125.29271
1023.191	103.26771
1023.556	99.22974
1023.92	141.34075
1024.285	98.23697
1024.649	128.30904
1025.014	126.30766
1025.378	100.24907
1025.742	124.30368
1026.107	121.26965
1026.471	116.26722
1026.835	89.21897
1027.199	64.15359
1027.562	124.28394
1027.926	92.22313
1028.29	107.26791
1028.654	103.23438
1029.017	159.3828
1029.381	54.12885
1029.744	93.23529
1030.107	112.26171
1030.471	91.2161
1030.834	120.26903
1031.197	141.33367
1031.56	150.34692
1031.923	78.2006
1032.286	143.32961
1032.648	136.31978
1033.011	104.23603
1033.374	149.3433
1033.736	79.2066
1034.099	99.23898
1034.461	76.19101
1034.823	69.17114
1035.185	123.30541
1035.548	99.23862
1035.91	113.26731
1036.272	81.18313
1036.634	95.23037
1036.995	131.30291
1037.357	88.21247
1037.719	84.20289
1038.08	117.27409
1038.442	83.19566
1038.803	112.26561
1039.165	76.19081
1039.526	66.15893
1039.887	91.21593
1040.248	81.19833
1040.609	118.2878
1040.97	61.1487
1041.331	71.17899
1041.692	84.19466
1042.053	97.21867
1042.413	120.27566
1042.774	94.22661
1043.134	154.35914
1043.495	96.2392
1043.855	119.28476
1044.215	102.25063
1044.576	57.13604
1044.936	134.3019
1045.296	104.25687
1045.656	105.2549
1046.016	89.21314
1046.375	92.22129
1046.735	109.24401
1047.095	77.17918
1047.454	144.29871
1047.814	113.26824
1048.173	144.33767
1048.533	94.21334
1048.892	72.172
1049.251	76.18978
1049.61	96.23423
1049.969	122.28339
1050.328	94.20179
1050.687	104.25034
1051.046	99.23871
1051.405	99.24394
1051.763	74.16924
1052.122	89.22027
1052.48	118.28555
1052.839	104.24196
1053.197	88.20547
1053.555	139.31104
1053.914	122.29422
1054.272	136.32327
1054.63	75.18241
1054.988	91.21435
1055.345	81.17317
1055.703	136.32177
1056.061	146.36905
1056.419	86.2211
1056.776	155.36821
1057.134	125.2849
1057.491	121.29891
1057.848	119.29235
1058.206	115.26687
1058.563	76.16652
1058.92	147.33206
1059.277	81.19856
1059.634	155.35698
1059.991	136.32028
1060.348	68.15301
1060.704	67.15904
1061.061	174.39409
1061.418	63.15231
1061.774	95.23244
1062.131	64.16871
1062.487	79.18355
1062.843	120.29519
1063.199	103.25351
1063.555	108.2472
1063.911	112.27957
1064.267	165.33516
1064.623	109.26163
1064.979	121.28257
1065.335	159.37189
1065.691	121.2859
1066.046	120.25982
1066.402	72.16275
1066.757	123.30619
1067.112	139.33528
1067.468	72.16917
1067.823	95.22629
1068.178	135.32107
1068.533	115.27519
1068.888	122.28731
1069.243	108.26351
1069.598	115.27582
1069.952	72.16128
1070.307	54.13347
1070.662	62.14675
1071.016	112.24758
1071.371	94.21178
1071.725	122.28764
1072.079	134.31692
1072.434	55.13342
1072.788	102.2403
1073.142	132.31954
1073.496	89.20939
1073.85	75.17294
1074.203	134.31974
1074.557	93.24536
1074.911	151.35318
1075.265	99.22774
1075.618	127.30541
1075.971	124.29054
1076.325	68.17213
1076.678	89.20179
1077.031	121.26965
1077.385	136.29396
1077.738	53.11948
1078.091	60.13606
1078.444	120.27456
1078.796	115.27855
1079.149	106.26075
1079.502	45.10633
1079.855	122.28025
1080.207	79.19344
1080.56	78.20046
1080.912	86.2078
1081.264	71.17016
1081.617	125.30015
1081.969	51.12853
1082.321	108.26066
1082.673	69.15676
1083.025	102.23937
1083.377	-129.28736
1083.728	96.22176
1084.08	80.19846
1084.432	91.21759
1084.783	123.28385
1085.135	70.17467
1085.486	68.15489
1085.838	117.28435
1086.189	105.25203
1086.54	144.3374
1086.891	112.27987
1087.242	91.21967
1087.593	92.22204
1087.944	43.09737
1088.295	119.26651
1088.646	95.22811
1088.996	73.17495
1089.347	96.23336
1089.698	74.17393
1090.048	93.23955
1090.398	117.26753
1090.749	113.26689
1091.099	70.17524
1091.449	73.18093
1091.799	96.23815
1092.149	45.10974
1092.499	115.27687
1092.849	80.20208
1093.199	146.35927
1093.548	140.33034
1093.898	110.27199
1094.248	101.25699
1094.597	52.13257
1094.947	87.23046
1095.296	112.27317
1095.645	116.29801
1095.994	66.15791
1096.343	106.26383
1096.692	68.17792
1097.041	47.1272
1097.39	101.25079
1097.739	109.28018
1098.088	128.33821
1098.437	19.05013
1098.785	119.3169
1099.134	121.31718
1099.482	91.24842
1099.83	80.20896
1100.179	62.16123
1100.527	129.33792
1100.875	38.10058
1101.223	105.27599
1101.571	88.2415
1101.919	68.17695
1102.267	55.15459
1102.615	20.06418
1102.962	43.13791
1103.31	21.06735
1103.658	52.16668
