Data from N2 R15 sample 7_Subt2__3__15-24-10-008.txt Node

Date: Tue Sep 02 15:24:10 PDT 2025
User: uwsun
Spectrometer: HDX01956
Trigger mode: 0
Integration Time (sec): 5.000000E-1
Scans to average: 1
Nonlinearity correction enabled: true
Boxcar width: 0
Storing dark spectrum: false
XAxis mode: Wavelengths
Number of Pixels in Spectrum: 2068
>>>>>Begin Spectral Data<<<<<
194.03	127.34947
194.578	132.4106
195.127	119.36519
195.676	114.35117
196.225	162.41807
196.773	165.44041
197.321	226.58382
197.87	349.80788
198.418	305.7024
198.966	303.70253
199.513	259.57549
200.061	266.60073
200.609	343.80971
201.156	229.44498
201.704	277.62034
202.251	221.52902
202.798	263.61197
203.345	370.80312
203.892	259.58361
204.438	322.67958
204.985	269.56187
205.532	293.68607
206.078	347.74727
206.624	253.55374
207.17	324.66128
207.716	291.62399
208.262	329.56359
208.808	228.49998
209.354	238.51729
209.899	367.81779
210.445	268.59066
210.99	284.60412
211.535	381.77884
212.08	289.59587
212.625	297.66128
213.17	344.76893
213.715	276.53721
214.259	367.74546
214.804	332.72556
215.348	328.65941
215.892	334.7049
216.436	350.71239
216.98	396.75868
217.524	291.60944
218.068	372.82258
218.612	335.74742
219.155	323.66987
219.698	323.67974
220.242	327.72566
220.785	277.57832
221.328	346.76254
221.871	309.70195
222.414	301.6713
222.956	215.4672
223.499	330.65394
224.041	307.63839
224.583	339.64711
225.126	296.57888
225.668	298.64465
226.21	267.60262
226.751	249.48523
227.293	293.59706
227.835	247.54221
228.376	337.6889
228.918	357.79847
229.459	262.58397
230	270.57484
230.541	280.57641
231.082	302.65051
231.622	316.64524
232.163	237.51632
232.704	303.66681
233.244	225.5041
233.784	317.69234
234.324	262.50801
234.864	271.54695
235.404	311.65708
235.944	285.60321
236.484	346.7635
237.023	280.58783
237.563	302.61554
238.102	255.53924
238.641	275.62219
239.18	254.52783
239.719	300.66976
240.258	283.56461
240.797	312.65732
241.335	285.62193
241.874	252.42714
242.412	278.5929
242.95	250.53087
243.488	313.62823
244.026	305.61727
244.564	362.64198
245.102	248.49467
245.64	308.65773
246.177	234.46869
246.715	370.77504
247.252	264.5398
247.789	411.65815
248.326	317.66447
248.863	320.6101
249.4	302.6035
249.936	297.53286
250.473	266.54808
251.009	286.5747
251.546	295.56886
252.082	333.63319
252.618	309.59929
253.154	281.59422
253.69	310.60942
254.226	333.69215
254.761	335.6522
255.297	245.47312
255.832	266.55523
256.367	322.66137
256.903	291.55737
257.438	365.74174
257.972	271.53011
258.507	314.62223
259.042	308.58066
259.576	258.48352
260.111	334.67085
260.645	366.67883
261.179	311.62999
261.713	247.48293
262.247	294.59269
262.781	336.60144
263.315	276.59247
263.849	274.60211
264.382	342.67962
264.915	341.68601
265.449	309.64856
265.982	337.66203
266.515	317.67093
267.048	350.62974
267.58	336.63345
268.113	291.54227
268.646	311.66601
269.178	300.57697
269.71	317.5963
270.243	349.68399
270.775	300.66533
271.307	374.77337
271.838	390.79381
272.37	296.63348
272.902	365.70824
273.433	297.55923
273.965	368.76574
274.496	345.74137
275.027	325.69569
275.558	298.62561
276.089	289.61141
276.62	343.75514
277.15	320.68424
277.681	313.58385
278.211	359.75516
278.741	293.55143
279.272	292.57214
279.802	329.7079
280.332	334.67054
280.861	369.75397
281.391	283.5507
281.921	327.67695
282.45	320.68987
282.98	350.78331
283.509	347.65917
284.038	291.56789
284.567	391.76993
285.096	340.6996
285.625	381.72235
286.153	317.63068
286.682	321.62108
287.21	324.66188
287.739	367.72777
288.267	335.68512
288.795	379.84732
289.323	289.57229
289.851	380.74316
290.378	381.7093
290.906	280.57537
291.433	313.66363
291.961	308.58551
292.488	357.74732
293.015	349.68334
293.542	310.66315
294.069	318.65758
294.596	350.72894
295.122	399.78457
295.649	403.7268
296.175	387.77927
296.702	395.79355
297.228	415.83219
297.754	408.74467
298.28	358.66731
298.806	320.64095
299.332	362.65133
299.857	368.67778
300.383	446.92473
300.908	285.57494
301.433	365.72651
301.958	432.80806
302.483	350.71823
303.008	439.88113
303.533	410.87894
304.058	403.77302
304.582	357.68445
305.107	351.75296
305.631	365.67884
306.155	369.69208
306.679	383.71692
307.203	443.81164
307.727	390.74393
308.251	440.86866
308.775	314.60215
309.298	353.67711
309.822	430.86725
310.345	420.78717
310.868	409.77355
311.391	444.86545
311.914	445.87668
312.437	425.76177
312.96	416.7662
313.482	430.79358
314.005	421.83213
314.527	391.81595
315.049	466.92129
315.571	374.63881
316.093	460.87833
316.615	481.88084
317.137	437.71739
317.659	531.97537
318.18	513.93614
318.702	495.85901
319.223	433.65754
319.744	440.73582
320.265	430.78444
320.786	458.84527
321.307	499.92165
321.828	485.80112
322.348	503.86179
322.869	487.83123
323.389	565.59732
323.909	499.82517
324.43	586.01314
324.95	533.85756
325.47	470.83314
325.989	501.83353
326.509	504.76021
327.029	565.85924
327.548	532.80972
328.067	509.84778
328.587	593.01466
329.106	574.86957
329.625	576.06951
330.144	524.81132
330.662	514.79489
331.181	581.89415
331.7	544.84282
332.218	650.87116
332.736	596.89971
333.255	594.88111
333.773	597.90149
334.291	619.00378
334.808	644.86825
335.326	654.89283
335.844	561.7995
336.361	597.94105
336.879	643.88667
337.396	640.92179
337.913	670.88793
338.43	728.90984
338.947	666.91698
339.464	725.82379
339.981	654.87828
340.497	741.03436
341.014	689.94412
341.53	623.76755
342.046	660.90516
342.562	756.03753
343.078	719.90013
343.594	720.91752
344.11	721.90517
344.626	732.98791
345.141	781.87701
345.657	842.92755
346.172	771.93986
346.687	715.81176
347.202	743.7947
347.717	752.88421
348.232	776.97009
348.747	754.81585
349.261	724.69463
349.776	794.86211
350.29	775.8896
350.805	868.9989
351.319	842.86457
351.833	786.7585
352.347	774.80669
352.861	834.82264
353.374	904.86519
353.888	916.93352
354.401	826.78299
354.915	895.74964
355.428	893.92003
355.941	917.81309
356.454	985.8158
356.967	879.82388
357.48	986.82899
357.993	899.88548
358.505	927.86631
359.018	910.85589
359.53	973.83881
360.042	1037.73943
360.554	992.86229
361.066	965.83495
361.578	983.66269
362.09	907.76496
362.602	986.65297
363.113	1014.73498
363.625	1007.66836
364.136	1117.65926
364.647	891.61333
365.158	1023.69344
365.669	1085.75672
366.18	1051.70882
366.691	1012.58221
367.201	1062.70782
367.712	1103.60629
368.222	1062.59521
368.733	1025.4745
369.243	1106.49188
369.753	1115.56965
370.263	1202.61742
370.773	1070.63749
371.282	1166.54241
371.792	1088.39141
372.301	1221.48778
372.811	1226.62855
373.32	1196.19937
373.829	1172.32121
374.338	1322.1704
374.847	1334.16355
375.356	1318.16578
375.865	1314.91874
376.373	1428.92241
376.882	1524.08133
377.39	1520.93212
377.898	1420.86028
378.407	1648.56985
378.915	1792.40663
379.423	1754.45846
379.93	1849.30108
380.438	1836.26731
380.946	1974.10244
381.453	1931.08069
381.96	1989.9926
382.468	2037.94917
382.975	2345.84542
383.482	2526.89905
383.989	2382.86522
384.495	2527.04788
385.002	2540.49121
385.509	2588.51894
386.015	3015.83764
386.521	3154.03267
387.028	3138.65874
387.534	3045.14202
388.04	3375.64738
388.546	3266.01163
389.051	3381.92975
389.557	3591.07393
390.063	4289.99874
390.568	4386.47686
391.073	4431.82092
391.578	4671.50266
392.084	4686.31788
392.589	4538.61701
393.093	4687.79579
393.598	5288.65444
394.103	5916.21026
394.607	6751.31779
395.112	7269.42197
395.616	7672.30024
396.12	7958.96856
396.624	8665.80648
397.128	9525.737
397.632	11278.17604
398.136	12138.18323
398.639	11163.92295
399.143	11525.79849
399.646	13421.53056
400.15	14668.60978
400.653	15449.59092
401.156	12740.71675
401.659	4828.77959
402.162	1054.15589
402.664	0
403.167	0
403.67	0
404.172	0
404.674	0
405.176	0
405.678	0
406.18	0
406.682	0
407.184	0
407.686	0
408.187	0
408.688	0
409.19	0
409.691	0
410.192	0
410.693	0
411.194	435.30976
411.694	4082.94878
412.195	8864.71461
412.696	12089.80453
413.196	12760.96929
413.696	12863.67595
414.196	13703.56671
414.696	17261.84252
415.196	21764.24417
415.696	29583.19008
416.196	30402.73689
416.695	21561.55842
417.195	16275.63526
417.694	15857.09661
418.194	14990.03441
418.693	13515.6744
419.192	13013.62148
419.691	12751.82176
420.19	12832.20832
420.688	12629.68399
421.187	12252.93675
421.685	11643.39725
422.184	11202.75675
422.682	9464.26808
423.18	7682.55926
423.678	6687.12123
424.176	6143.89059
424.674	5743.64639
425.172	5813.12902
425.669	5557.12566
426.167	5331.32572
426.664	4680.75632
427.161	4276.9968
427.659	3838.68947
428.156	3524.3873
428.652	3355.19053
429.149	3168.03094
429.646	3022.95171
430.143	3004.71005
430.639	2721.71287
431.135	2569.77084
431.632	2400.84464
432.128	2252.00789
432.624	1995.26042
433.12	1855.20962
433.616	1822.24997
434.111	1592.47102
434.607	1606.56129
435.103	1769.43528
435.598	1697.50588
436.093	1677.77903
436.588	1483.8933
437.083	1503.96824
437.578	1349.11049
438.073	1083.27034
438.568	1259.35707
439.062	1237.15789
439.557	1221.38832
440.051	1158.33308
440.546	895.35087
441.04	1037.46616
441.534	997.58943
442.028	1023.54351
442.522	1012.54308
443.015	964.42354
443.509	895.59396
444.002	836.5765
444.496	869.45257
444.989	816.59765
445.482	736.58639
445.975	813.48833
446.468	834.45211
446.961	810.45331
447.454	779.52547
447.947	684.52765
448.439	685.59003
448.931	736.51184
449.424	717.67683
449.916	713.62599
450.408	600.47103
450.9	636.57598
451.392	628.62833
451.884	676.57259
452.375	524.53584
452.867	669.57725
453.358	563.49174
453.849	557.44311
454.341	554.49818
454.832	597.48665
455.323	523.55501
455.814	567.54921
456.304	532.53014
456.795	577.56184
457.285	586.565
457.776	561.58069
458.266	462.51365
458.756	471.54788
459.247	467.52626
459.737	383.44936
460.226	475.49748
460.716	372.45315
461.206	423.51925
461.695	434.57739
462.185	328.4142
462.674	462.54482
463.163	434.49069
463.653	464.47982
464.142	376.49448
464.63	421.57038
465.119	362.45749
465.608	317.40883
466.096	433.50774
466.585	381.50191
467.073	372.52106
467.561	358.50915
468.05	420.56323
468.538	386.56987
469.026	316.46162
469.513	321.39364
470.001	334.45317
470.489	348.49993
470.976	337.47821
471.463	331.52666
471.951	318.51716
472.438	226.34526
472.925	232.3519
473.412	304.49634
473.899	293.4406
474.385	292.48129
474.872	241.37552
475.359	267.44166
475.845	195.26966
476.331	224.33326
476.817	197.34053
477.303	221.35787
477.789	178.30694
478.275	201.35689
478.761	235.40449
479.247	204.32707
479.732	131.24035
480.218	178.34464
480.703	176.32413
481.188	180.27874
481.673	137.23302
482.158	85.13274
482.643	181.35104
483.128	115.19687
483.612	129.22917
484.097	172.32282
484.581	185.32678
485.066	84.15921
485.55	86.14489
486.034	92.15314
486.518	82.14995
487.002	48.09298
487.486	66.12797
487.969	38.07431
488.453	95.19262
488.936	71.12711
489.42	113.19772
489.903	138.27935
490.386	-321.46647
490.869	100.17474
491.352	149.29519
491.835	114.18819
492.318	50.09185
492.8	88.1464
493.283	31.06536
493.765	22.045
494.247	100.19278
494.73	54.09835
495.212	29.0592
495.694	-1.00195
496.175	-30.05967
496.657	121.23658
497.139	127.17903
497.62	0
498.102	4.0084
498.583	31.06599
499.064	-27.05099
499.545	-20.03896
500.026	37.06963
500.507	20.03943
500.988	32.0678
501.469	-53.11473
501.949	21.04458
502.43	-46.09397
502.91	-4.00702
503.39	-1.00217
503.87	-13.02621
504.35	23.0468
504.83	23.04286
505.31	1.00209
505.79	5.01027
506.269	56.11196
506.749	-51.10128
507.228	-25.0508
507.707	-31.05963
508.187	52.1071
508.666	-38.08136
509.145	-39.0794
509.623	-32.06561
510.102	-29.0616
510.581	40.0839
511.059	-14.03057
511.538	-37.08471
512.016	29.06014
512.494	11.02335
512.972	-36.07568
513.45	-71.14429
513.928	-40.08535
514.406	-50.10525
514.884	-27.06119
515.361	-33.06966
515.839	2.00397
516.316	-14.0296
516.793	-14.03139
517.27	-26.05601
517.747	-20.04532
518.224	-59.12187
518.701	-6.01176
519.178	-71.15652
519.654	-25.05298
520.131	-26.05704
520.607	6.01319
521.083	-33.06688
521.56	-25.0524
522.036	-15.0292
522.512	12.02627
522.987	-40.08416
523.463	-21.04433
523.939	-54.11907
524.414	1.00205
524.89	-62.13229
525.365	-65.13221
525.84	-89.18961
526.315	-66.14284
526.79	-23.04625
527.265	-2.00405
527.74	-44.09612
528.215	-20.04208
528.689	-84.16809
529.164	-8.0155
529.638	-50.1161
530.112	-77.16369
530.587	-59.11278
531.061	-60.13008
531.534	-25.05451
532.008	-45.09716
532.482	-43.0891
532.956	-94.21723
533.429	-34.07418
533.903	-5.00991
534.376	-12.02373
534.849	-25.05213
535.322	-8.01692
535.795	-90.20086
536.268	-69.15045
536.741	-21.04546
537.213	-2.00415
537.686	-56.12322
538.158	-94.19133
538.631	-48.1061
539.103	-62.12556
539.575	-43.08128
540.047	-8.01579
540.519	22.04708
540.991	-27.05987
541.463	9.01954
541.934	-23.04742
542.406	-21.04499
542.877	-23.04676
543.348	-1.00217
543.82	9.01985
544.291	27.05645
544.762	-41.08769
545.233	-21.04732
545.703	-30.05959
546.174	-18.03762
546.645	-60.1288
547.115	49.10421
547.585	5.01026
548.056	-30.06437
548.526	35.0722
548.996	24.05112
549.466	78.1673
549.935	21.04355
550.405	64.12148
550.875	52.10729
551.344	86.17904
551.814	85.16911
552.283	125.23327
552.752	75.15012
553.221	124.22768
553.69	158.29581
554.159	105.22
554.628	136.25588
555.096	160.34332
555.565	181.33862
556.033	180.3607
556.502	173.35831
556.97	190.35836
557.438	187.38037
557.906	249.50324
558.374	227.4453
558.842	258.5249
559.31	260.49546
559.777	232.48018
560.245	339.67162
560.712	342.66662
561.18	382.69721
561.647	408.75184
562.114	443.82516
562.581	507.01865
563.048	564.04041
563.514	595.16117
563.981	647.16019
564.448	718.2334
564.914	846.47405
565.381	852.44475
565.847	940.61162
566.313	967.63376
566.779	1086.70582
567.245	1174.88517
567.711	1210.98057
568.176	1312.90887
568.642	1356.25795
569.108	1530.3666
569.573	1616.31408
570.038	1746.02434
570.504	1902.28044
570.969	1981.76745
571.434	2041.24682
571.899	2282.65382
572.363	2392.48474
572.828	2620.5376
573.293	2718.52871
573.757	2877.51814
574.222	2961.33808
574.686	3118.31606
575.15	3223.61012
575.614	3340.38562
576.078	3548.43115
576.542	3618.25098
577.006	3772.1152
577.469	3786.70491
577.933	3856.01572
578.396	4044.30975
578.86	4060.24535
579.323	4075.28315
579.786	4012.76973
580.249	4044.03217
580.712	4126.45261
581.175	4006.55621
581.637	4076.13605
582.1	4009.90057
582.563	3972.81123
583.025	3857.51815
583.487	3885.51428
583.95	3723.88891
584.412	3709.82252
584.874	3708.60432
585.336	3472.55306
585.797	3512.04761
586.259	3376.59036
586.721	3206.58069
587.182	3271.59468
587.643	3111.45742
588.105	2990.69142
588.566	2953.14036
589.027	2777.77606
589.488	2769.53403
589.949	2679.83663
590.41	2658.85153
590.87	2535.55998
591.331	2469.31545
591.791	2354.5572
592.252	2300.49728
592.712	2262.72873
593.172	2194.42939
593.632	2173.34085
594.092	2038.35389
594.552	2040.22607
595.011	1927.39792
595.471	1961.33754
595.931	1869.28208
596.39	1822.5035
596.849	1766.37721
597.308	1796.17135
597.768	1639.59058
598.227	1628.40514
598.685	1682.2989
599.144	1564.25525
599.603	1619.3421
600.062	1527.9091
600.52	1435.00791
600.978	1468.22115
601.437	1477.13026
601.895	1417.86833
602.353	1435.00918
602.811	1424.99501
603.269	1373.15808
603.727	1400.1826
604.184	1369.97854
604.642	1313.15915
605.099	1364.06114
605.557	1381.21929
606.014	1317.81964
606.471	1279.15744
606.928	1281.76601
607.385	1349.14681
607.842	1400.04352
608.299	1431.13201
608.755	1326.11892
609.212	1407.96781
609.668	1358.90637
610.125	1383.1926
610.581	1423.21046
611.037	1436.11199
611.493	1331.10715
611.949	1317.12406
612.405	1333.6839
612.861	1365.14049
613.316	1366.16114
613.772	1324.02273
614.227	1303.06956
614.683	1375.90431
615.138	1329.07643
615.593	1317.05042
616.048	1302.01108
616.503	1237.13238
616.958	1264.20505
617.412	1244.0343
617.867	1235.85065
618.321	1260.74291
618.776	1233.8731
619.23	1168.94334
619.684	1186.88414
620.138	1213.98716
620.592	1068.91292
621.046	1167.9645
621.5	1095.95389
621.954	1150.85686
622.407	1104.78024
622.861	1094.96162
623.314	1008.71845
623.768	1004.75752
624.221	903.3369
624.674	916.62407
625.127	943.69413
625.58	934.64407
626.033	929.58039
626.485	855.61436
626.938	883.65431
627.39	871.59571
627.843	820.5153
628.295	834.53662
628.747	764.47854
629.199	760.40282
629.651	731.35828
630.103	752.40535
630.555	745.28161
631.006	718.39535
631.458	704.38175
631.909	720.37731
632.361	668.31222
632.812	659.28203
633.263	706.26396
633.714	668.20193
634.165	677.39276
634.616	616.25828
635.067	634.20258
635.518	656.33769
635.968	639.08771
636.419	593.1129
636.869	569.1829
637.319	585.17405
637.769	563.09653
638.219	578.20991
638.669	508.07441
639.119	512.11169
639.569	491.05719
640.019	497.02563
640.468	490.97827
640.918	486.05111
641.367	493.98952
641.816	465.93719
642.265	429.90279
642.714	482.00152
643.163	470.97535
643.612	407.89188
644.061	390.75513
644.51	450.92885
644.958	453.90084
645.406	430.9385
645.855	415.9339
646.303	465.98757
646.751	411.85616
647.199	472.97163
647.647	392.83092
648.095	410.86262
648.543	450.83924
648.99	386.85211
649.438	417.903
649.885	422.9615
650.333	429.75945
650.78	417.92687
651.227	364.82436
651.674	314.67316
652.121	375.84874
652.568	389.87577
653.015	422.98667
653.461	354.78638
653.908	380.82377
654.354	391.86801
654.801	312.68993
655.247	409.83115
655.693	330.81076
656.139	337.75996
656.585	354.7965
657.031	314.69029
657.477	323.65759
657.922	368.79163
658.368	332.77387
658.813	377.82197
659.259	295.67287
659.704	278.61809
660.149	295.65411
660.594	326.73231
661.039	288.62595
661.484	338.76455
661.929	285.63746
662.373	256.61968
662.818	300.70919
663.262	302.6923
663.707	224.54916
664.151	265.62246
664.595	228.53211
665.039	288.68662
665.483	261.63926
665.927	325.72871
666.371	223.49982
666.814	265.6103
667.258	246.56146
667.701	349.7157
668.145	295.70451
668.588	281.66312
669.031	224.51125
669.474	231.54049
669.917	291.62049
670.36	300.7133
670.803	256.59862
671.245	231.47543
671.688	239.56686
672.13	214.46869
672.573	261.64187
673.015	251.58475
673.457	279.58689
673.899	271.63506
674.341	237.5567
674.783	216.50569
675.225	228.5463
675.666	164.38847
676.108	236.50092
676.549	221.51243
676.991	215.46521
677.432	205.40234
677.873	215.48784
678.314	201.47141
678.755	217.51648
679.196	213.4784
679.637	250.59489
680.078	204.46992
680.518	269.60961
680.959	223.52279
681.399	188.45869
681.839	177.42532
682.28	170.414
682.72	176.39846
683.16	178.43688
683.6	214.48034
684.039	190.39237
684.479	144.35082
684.919	146.33431
685.358	206.51325
685.798	170.43932
686.237	244.57638
686.676	226.51519
687.115	134.31434
687.554	204.47667
687.993	215.46839
688.432	195.43995
688.871	167.37601
689.309	206.48379
689.748	224.46155
690.186	174.41199
690.625	168.39039
691.063	167.39687
691.501	180.43966
691.939	183.45007
692.377	168.40577
692.815	157.37268
693.253	189.44915
693.69	145.31858
694.128	132.3187
694.565	161.38143
695.003	186.46545
695.44	162.37809
695.877	118.27594
696.314	156.33546
696.751	211.47488
697.188	143.32777
697.625	198.44991
698.061	151.36023
698.498	210.5003
698.934	128.30811
699.371	150.35132
699.807	178.41706
700.243	147.35203
700.679	157.35451
701.115	171.40011
701.551	187.43583
701.987	152.34147
702.422	139.32919
702.858	168.39702
703.294	142.32175
703.729	165.40055
704.164	150.35928
704.599	120.26858
705.035	118.26509
705.47	143.3461
705.904	174.40178
706.339	198.45556
706.774	147.34315
707.209	91.21151
707.643	131.31431
708.078	147.35619
708.512	105.26271
708.946	156.37209
709.38	142.33571
709.814	172.39067
710.248	130.31648
710.682	130.30889
711.116	93.2228
711.549	127.32667
711.983	113.26212
712.416	176.4127
712.85	155.38374
713.283	150.35352
713.716	198.49045
714.149	201.47288
714.582	157.35132
715.015	191.47217
715.448	154.38551
715.881	164.35797
716.313	157.36592
716.746	104.24587
717.178	157.37497
717.61	136.34353
718.043	193.47448
718.475	138.33356
718.907	165.41432
719.339	112.25481
719.77	111.26359
720.202	127.32028
720.634	103.25117
721.065	143.33788
721.497	167.40571
721.928	118.28952
722.359	63.15334
722.79	93.22374
723.221	153.38253
723.652	171.43677
724.083	135.30433
724.514	184.41844
724.945	117.27548
725.375	89.20784
725.806	98.2456
726.236	160.40645
726.666	121.28678
727.096	141.3446
727.526	125.31647
727.956	102.23309
728.386	197.47805
728.816	121.30537
729.246	70.1715
729.675	93.22966
730.105	137.33607
730.534	132.30856
730.964	136.34254
731.393	174.42817
731.822	168.42465
732.251	133.33613
732.68	155.36353
733.109	98.24223
733.537	121.29198
733.966	124.30728
734.395	154.35376
734.823	162.36363
735.251	103.24883
735.68	176.43612
736.108	135.34009
736.536	121.28567
736.964	80.1873
737.392	136.33886
737.82	134.32084
738.247	123.29456
738.675	151.35913
739.102	94.2354
739.53	75.19191
739.957	106.27252
740.384	173.42265
740.811	129.3259
741.238	100.24472
741.665	65.15239
742.092	145.34486
742.519	98.24294
742.945	107.25742
743.372	114.28208
743.798	85.21925
744.225	89.21281
744.651	101.2538
745.077	64.16091
745.503	119.29019
745.929	122.29244
746.355	182.44736
746.781	102.25322
747.207	35.08337
747.632	39.09627
748.058	76.19081
748.483	100.23137
748.908	118.29273
749.334	103.25342
749.759	91.21568
750.184	120.28546
750.609	122.29933
751.033	164.38471
751.458	131.29387
751.883	116.28724
752.307	103.24308
752.732	67.16836
753.156	133.32698
753.58	109.25944
754.005	150.3778
754.429	106.24963
754.853	86.21381
755.277	93.2211
755.7	117.28977
756.124	66.16493
756.548	75.17906
756.971	98.23991
757.394	108.27785
757.818	89.22941
758.241	78.19871
758.664	66.16773
759.087	41.09296
759.51	125.31004
759.933	73.17682
760.356	96.24629
760.778	101.24859
761.201	137.33171
761.623	86.20976
762.046	117.27773
762.468	175.41572
762.89	122.30044
763.312	130.31624
763.734	89.21509
764.156	152.37211
764.578	117.26936
765	123.29927
765.421	45.11527
765.843	110.28762
766.264	123.29658
766.686	104.2612
767.107	113.2735
767.528	50.1272
767.949	80.20409
768.37	79.1948
768.791	128.30858
769.212	55.1391
769.632	68.15964
770.053	84.22143
770.473	126.30525
770.894	127.31661
771.314	118.28156
771.734	83.19444
772.154	83.21357
772.575	129.29805
772.994	95.21644
773.414	134.32023
773.834	90.22531
774.254	89.21833
774.673	112.27235
775.093	75.1863
775.512	64.1586
775.931	94.23829
776.351	67.16721
776.77	70.17194
777.189	99.23564
777.607	78.19962
778.026	53.13299
778.445	34.08591
778.864	93.23847
779.282	70.16933
779.701	80.20208
780.119	57.14483
780.537	90.22457
780.955	115.29136
781.373	106.26152
781.791	89.20047
782.209	108.24869
782.627	93.24453
783.045	59.13681
783.462	95.24232
783.88	59.15324
784.297	69.17414
784.715	48.12396
785.132	70.17016
785.549	71.1781
785.966	63.15911
786.383	94.23098
786.8	120.27742
787.217	55.13131
787.633	47.11806
788.05	132.31146
788.466	157.36592
788.883	46.11802
789.299	72.17397
789.715	94.22824
790.131	112.27714
790.547	112.27835
790.963	95.23537
791.379	40.10187
791.795	100.22797
792.21	111.2585
792.626	69.16436
793.041	114.27981
793.457	85.21006
793.872	57.13484
794.287	64.1533
794.702	121.29616
795.117	60.14961
795.532	93.23244
795.947	132.31509
796.362	128.30343
796.776	145.33622
797.191	117.28456
797.605	62.14613
798.02	73.17795
798.434	121.26786
798.848	77.18973
799.262	58.14441
799.676	116.28134
800.09	73.17987
800.504	85.20619
800.918	26.06094
801.331	134.34785
801.745	54.12484
802.158	73.18265
802.572	90.21804
802.985	118.28339
803.398	84.20028
803.811	118.30125
804.224	81.20157
804.637	44.10555
805.05	107.24693
805.462	126.30697
805.875	44.11458
806.288	34.08268
806.7	100.25025
807.112	103.23789
807.525	102.25063
807.937	70.17321
808.349	78.19534
808.761	89.21849
809.173	55.13387
809.584	137.33495
809.996	36.08879
810.408	32.08313
810.819	95.22272
811.231	71.18339
811.642	88.20926
812.053	135.31737
812.464	166.38788
812.875	137.34611
813.286	121.30874
813.697	128.29662
814.108	109.26471
814.519	108.23943
814.929	120.30355
815.34	86.20819
815.75	60.15275
816.16	85.21144
816.571	86.22279
816.981	121.28335
817.391	94.22618
817.801	56.13948
818.211	100.23733
818.62	61.1472
819.03	103.25108
819.44	124.3209
819.849	96.24085
820.259	96.24465
820.668	85.20851
821.077	53.13203
821.486	102.24441
821.895	120.29399
822.304	81.21413
822.713	58.13755
823.122	78.19442
823.531	93.21965
823.939	74.18022
824.348	115.2774
824.756	71.17784
825.164	99.24788
825.573	75.18799
825.981	80.1981
826.389	104.25969
826.797	92.22948
827.205	74.16979
827.612	124.303
828.02	61.14352
828.428	85.21582
828.835	92.24104
829.243	99.23473
829.65	56.13953
830.057	112.2697
830.464	77.18735
830.871	101.24049
831.278	93.22382
831.685	94.20892
832.092	93.2267
832.499	128.27679
832.905	108.27144
833.312	113.25568
833.718	91.22579
834.124	105.23835
834.531	103.25799
834.937	92.23504
835.343	95.22811
835.749	137.31591
836.155	97.25254
836.561	76.18661
836.966	69.1687
837.372	89.22557
837.777	74.18405
838.183	88.19501
838.588	74.18344
838.993	49.11971
839.399	15.03701
839.804	62.15116
840.209	106.26775
840.613	90.19936
841.018	103.25901
841.423	70.17934
841.828	63.15934
842.232	146.35636
842.637	99.2321
843.041	84.21445
843.445	77.19266
843.849	79.19502
844.253	78.18498
844.657	94.23532
845.061	89.20105
845.465	52.12588
845.869	104.23986
846.272	34.08324
846.676	78.18818
847.079	65.16515
847.483	105.25996
847.886	123.29602
848.289	36.09643
848.692	99.24904
849.095	97.2315
849.498	179.44429
849.901	103.23448
850.304	91.21635
850.707	115.29043
851.109	115.28825
851.512	73.17901
851.914	30.076
852.316	90.22644
852.718	42.10873
853.121	84.20495
853.523	73.17028
853.925	53.13837
854.326	80.19926
854.728	81.20748
855.13	14.03638
855.531	88.20917
855.933	106.25235
856.334	85.21091
856.736	66.14772
857.137	72.16705
857.538	64.16074
857.939	51.12617
858.34	114.27503
858.741	84.21859
859.142	69.16549
859.542	107.27991
859.943	83.20534
860.343	85.20944
860.744	82.19925
861.144	94.22781
861.544	46.11081
861.945	95.24052
862.345	55.13462
862.745	62.15398
863.145	115.27204
863.544	65.16404
863.944	61.14408
864.344	109.26828
864.743	110.27039
865.143	53.13624
865.542	112.25708
865.941	98.2408
866.34	114.27024
866.74	108.28737
867.139	17.04102
867.537	81.20552
867.936	87.20827
868.335	94.23761
868.734	64.16333
869.132	59.13708
869.531	118.28221
869.929	61.13898
870.327	72.17213
870.726	86.21335
871.124	95.22046
871.522	92.23289
871.92	118.2878
872.318	69.16832
872.715	140.34133
873.113	64.15575
873.511	96.23746
873.908	17.04321
874.306	77.19078
874.703	122.30166
875.1	99.25136
875.497	97.23079
875.894	25.0616
876.291	81.19789
876.688	66.16992
877.085	126.29834
877.482	73.18219
877.878	36.08699
878.275	88.22229
878.671	99.21861
879.068	80.19228
879.464	85.20433
879.86	8.0191
880.256	78.19173
880.652	96.24241
881.048	88.21679
881.444	69.16385
881.84	84.21241
882.236	61.15323
882.631	82.2003
883.027	90.21656
883.422	74.18859
883.817	40.10079
884.213	48.12332
884.608	22.05428
885.003	75.18016
885.398	54.13518
885.793	88.21958
886.188	24.06
886.582	125.3167
886.977	85.2006
887.371	59.14911
887.766	50.12445
888.16	113.27905
888.554	94.23081
888.949	81.20245
889.343	116.28018
889.737	29.07759
890.131	88.21942
890.525	75.1911
890.918	52.13093
891.312	98.23259
891.706	69.18057
892.099	109.27469
892.492	89.19068
892.886	52.1273
893.279	61.15521
893.672	56.14251
894.065	53.13275
894.458	62.15572
894.851	99.24061
895.244	71.18078
895.637	76.18232
896.029	67.16345
896.422	77.18735
896.814	73.18087
897.206	54.1286
897.599	103.25248
897.991	42.10179
898.383	53.12528
898.775	93.20828
899.167	32.07495
899.559	107.2683
899.951	95.2222
900.342	96.24232
900.734	25.06235
901.125	91.23725
901.517	82.20022
901.908	146.34396
902.299	72.17541
902.69	90.21088
903.082	107.25654
903.473	19.0458
903.863	98.24807
904.254	63.14597
904.645	78.19315
905.036	58.1403
905.426	137.30846
905.817	105.25519
906.207	54.12865
906.597	78.18155
906.987	91.23432
907.378	64.16155
907.768	58.1532
908.158	72.17495
908.547	57.14713
908.937	105.26697
909.327	78.18854
909.717	103.2592
910.106	53.12731
910.495	131.32242
910.885	111.27823
911.274	94.23319
911.663	100.25169
912.052	83.20368
912.441	51.12972
912.83	86.19613
913.219	97.25194
913.608	86.20936
913.997	53.13285
914.385	100.23678
914.774	127.30495
915.162	30.0718
915.55	80.19257
915.939	72.18109
916.327	77.19133
916.715	51.13
917.103	102.24878
917.491	134.32658
917.878	67.1643
918.266	72.18607
918.654	83.21089
919.041	61.15898
919.429	57.13442
919.816	83.20924
920.203	76.1835
920.591	85.20952
920.978	101.2451
921.365	61.1598
921.752	61.14519
922.139	109.23384
922.525	89.21224
922.912	75.18214
923.299	78.19294
923.685	62.16145
924.072	110.25076
924.458	99.24313
924.844	53.13112
925.231	61.14173
925.617	27.06897
926.003	82.20846
926.389	52.13116
926.774	85.21413
927.16	93.22924
927.546	60.15291
927.931	82.2035
928.317	71.16294
928.702	138.32106
929.088	55.13
929.473	72.18252
929.858	34.08246
930.243	69.16505
930.628	63.15294
931.013	57.14112
931.398	106.24116
931.783	92.24055
932.167	81.19693
932.552	62.15504
932.937	85.20967
933.321	28.07055
933.705	41.10355
934.09	142.35304
934.474	78.18433
934.858	52.13485
935.242	57.13196
935.626	54.13815
936.009	79.20913
936.393	82.2075
936.777	71.18117
937.16	59.1533
937.544	100.23339
937.927	26.06626
938.311	95.23002
938.694	95.24937
939.077	71.16932
939.46	105.25528
939.843	80.16588
940.226	88.22427
940.609	49.11254
940.991	87.22003
941.374	35.0858
941.757	79.19394
942.139	84.18739
942.522	114.26617
942.904	71.17003
943.286	90.22709
943.668	64.1654
944.05	18.04461
944.432	95.23253
944.814	89.21768
945.196	15.0368
945.578	57.13531
945.959	92.21388
946.341	138.33331
946.722	93.2165
947.104	113.26689
947.485	78.18054
947.866	92.23006
948.247	46.11615
948.628	82.19888
949.009	81.20632
949.39	82.20298
949.771	122.2798
950.152	96.23362
950.532	16.03961
950.913	51.12302
951.293	77.2071
951.674	56.13531
952.054	59.14597
952.434	110.27009
952.814	74.17529
953.194	101.26206
953.574	148.358
953.954	115.26972
954.334	100.24699
954.714	58.14115
955.093	132.31966
955.473	64.15964
955.853	83.21365
956.232	108.29327
956.611	97.23061
956.99	56.1406
957.37	80.2028
957.749	84.19913
958.128	52.13098
958.506	26.06773
958.885	66.16612
959.264	65.15886
959.643	65.14749
960.021	68.16795
960.4	69.15581
960.778	92.22489
961.156	58.1452
961.535	78.18083
961.913	103.23855
962.291	22.05672
962.669	79.19909
963.047	41.1048
963.424	77.19557
963.802	51.12539
964.18	130.32426
964.557	116.26369
964.935	71.16756
965.312	57.14825
965.69	101.2506
966.067	81.19612
966.444	111.27048
966.821	71.18238
967.198	102.24506
967.575	126.30548
967.952	108.25167
968.329	82.19836
968.705	61.13052
969.082	64.16374
969.458	18.04344
969.835	88.21271
970.211	77.19668
970.587	116.28535
970.963	140.3535
971.339	42.10982
971.715	101.24987
972.091	85.20797
972.467	107.26413
972.843	64.15842
973.219	132.31207
973.594	50.13078
973.97	125.29329
974.345	45.10781
974.721	58.14025
975.096	40.09698
975.471	89.20956
975.846	83.19816
976.221	40.10176
976.596	51.12223
976.971	70.1722
977.346	110.25309
977.72	99.25003
978.095	70.18028
978.469	79.18753
978.844	112.27845
979.218	63.15064
979.593	122.28831
979.967	92.22238
980.341	106.24135
980.715	85.21283
981.089	102.25295
981.463	122.2761
981.837	33.08089
982.21	116.26647
982.584	64.15417
982.957	45.11247
983.331	135.3139
983.704	93.2267
984.078	76.1864
984.451	92.22806
984.824	78.18897
985.197	82.19798
985.57	84.20937
985.943	105.25672
986.316	138.33356
986.688	114.2716
987.061	74.17264
987.434	54.14062
987.806	123.29422
988.179	83.19459
988.551	88.22173
988.923	77.18868
989.295	131.32254
989.667	30.07194
990.039	66.1626
990.411	121.27456
990.783	88.2011
991.155	18.04351
991.527	126.30594
991.898	50.12458
992.27	10.02492
992.641	54.13538
993.012	106.24671
993.384	89.2107
993.755	75.19036
994.126	40.0964
994.497	58.14215
994.868	88.20061
995.239	66.15947
995.61	79.19773
995.98	21.05129
996.351	51.12627
996.722	46.10677
997.092	41.09725
997.462	29.06802
997.833	89.20939
998.203	84.20235
998.573	54.13435
998.943	84.19566
999.313	63.15059
999.683	92.21902
1000.053	56.12869
1000.423	102.24543
1000.792	74.19098
1001.162	25.0618
1001.531	113.27535
1001.901	69.17139
1002.27	92.20388
1002.639	37.09474
1003.009	71.16815
1003.378	58.14807
1003.747	95.22246
1004.116	55.13146
1004.485	70.16665
1004.853	70.17669
1005.222	83.20805
1005.591	89.20972
1005.959	36.08134
1006.328	22.04979
1006.696	87.20835
1007.064	79.19766
1007.433	95.23546
1007.801	128.30963
1008.169	74.18605
1008.537	56.12384
1008.905	59.13719
1009.273	110.26869
1009.64	59.14049
1010.008	95.22447
1010.375	92.22162
1010.743	179.4027
1011.11	66.15567
1011.478	91.22348
1011.845	75.17549
1012.212	60.13551
1012.579	69.16876
1012.946	97.22875
1013.313	123.28859
1013.68	53.11904
1014.047	50.11912
1014.414	74.17393
1014.78	70.17327
1015.147	141.33509
1015.513	87.20811
1015.88	116.29311
1016.246	119.28997
1016.612	119.2686
1016.978	72.17568
1017.344	96.23519
1017.71	114.27462
1018.076	89.20825
1018.442	93.23738
1018.808	91.22571
1019.174	83.20692
1019.539	115.26126
1019.905	88.20595
1020.27	53.13069
1020.636	126.29765
1021.001	90.21376
1021.366	72.17213
1021.731	76.1945
1022.096	45.11357
1022.461	56.13234
1022.826	82.19364
1023.191	50.13114
1023.556	40.09391
1023.92	90.21959
1024.285	108.26066
1024.649	58.14189
1025.014	76.1873
1025.378	54.13562
1025.742	58.14378
1026.107	108.24133
1026.471	126.28967
1026.835	89.21897
1027.199	46.11077
1027.562	97.22332
1027.926	85.20643
1028.29	58.14651
1028.654	97.221
1029.017	130.3147
1029.381	94.22258
1029.744	81.20537
1030.107	92.21582
1030.471	73.17395
1030.834	89.2008
1031.197	75.17975
1031.56	68.15983
1031.923	78.2006
1032.286	97.22563
1032.648	107.25301
1033.011	37.08512
1033.374	121.28035
1033.736	7.01853
1034.099	74.17948
1034.461	44.11122
1034.823	51.12691
1035.185	46.11582
1035.548	67.16247
1035.91	93.22085
1036.272	79.17868
1036.634	126.30376
1036.995	55.1291
1037.357	82.19821
1037.719	69.16713
1038.08	97.22812
1038.442	53.12567
1038.803	101.24003
1039.165	59.14858
1039.526	88.21102
1039.887	84.19959
1040.248	73.17901
1040.609	116.28303
1040.97	71.17275
1041.331	84.21127
1041.692	29.06794
1042.053	123.27581
1042.413	102.23516
1042.774	96.23135
1043.134	111.26105
1043.495	104.25875
1043.855	70.16907
1044.215	105.25786
1044.576	79.18775
1044.936	101.22909
1045.296	120.29551
1045.656	86.20952
1046.016	109.26004
1046.375	94.22601
1046.735	62.14014
1047.095	49.11466
1047.454	101.21153
1047.814	46.1106
1048.173	112.26427
1048.533	89.2022
1048.892	35.0842
1049.251	59.14778
1049.61	89.21744
1049.969	32.07565
1050.328	107.22905
1050.687	66.16001
1051.046	94.22687
1051.405	78.19294
1051.763	65.14893
1052.122	74.18365
1052.48	93.22611
1052.839	83.19391
1053.197	55.12925
1053.555	118.2652
1053.914	63.15363
1054.272	144.34175
1054.63	65.15839
1054.988	76.17954
1055.345	97.20666
1055.703	77.18426
1056.061	82.20964
1056.419	40.10366
1056.776	112.26827
1057.134	60.13855
1057.491	59.14741
1057.848	84.2077
1058.206	67.15696
1058.563	108.23504
1058.92	116.26369
1059.277	99.24187
1059.634	79.18471
1059.991	88.20917
1060.348	66.14857
1060.704	41.09781
1061.061	92.21185
1061.418	55.13317
1061.774	66.16236
1062.131	47.12425
1062.487	73.16981
1062.843	60.14923
1063.199	105.25834
1063.555	82.18867
1063.911	53.13371
1064.267	142.28995
1064.623	5.01224
1064.979	117.27344
1065.335	127.29891
1065.691	73.17409
1066.046	67.14671
1066.402	49.11128
1066.757	107.26714
1067.112	103.25014
1067.468	64.1506
1067.823	87.20755
1068.178	86.20646
1068.533	81.19509
1068.888	94.22258
1069.243	60.14771
1069.598	80.19315
1069.952	49.11028
1070.307	47.11632
1070.662	46.10922
1071.016	47.1053
1071.371	77.17408
1071.725	45.10768
1072.079	79.18883
1072.434	47.11419
1072.788	50.11899
1073.142	66.16176
1073.496	79.18623
1073.85	94.21593
1074.203	77.18574
1074.557	73.19324
1074.911	132.30989
1075.265	75.17336
1075.618	82.19888
1075.971	106.24924
1076.325	71.17963
1076.678	94.21291
1077.031	58.13094
1077.385	131.28346
1077.738	106.23637
1078.091	33.07525
1078.444	63.14579
1078.796	63.15409
1079.149	71.17578
1079.502	40.0946
1079.855	65.15102
1080.207	84.20549
1080.56	64.16488
1080.912	80.19352
1081.264	75.17961
1081.617	54.13141
1081.969	48.12103
1082.321	38.09293
1082.673	42.09594
1083.025	86.20245
1083.377	-146.32637
1083.728	112.2579
1084.08	68.16906
1084.432	75.17988
1084.783	119.27484
1085.135	85.21152
1085.486	31.07114
1085.838	56.13765
1086.189	68.16437
1086.54	97.22937
1086.891	54.13635
1087.242	34.08296
1087.593	96.23152
1087.944	55.12424
1088.295	131.29266
1088.646	86.20686
1088.996	55.13227
1089.347	87.21184
1089.698	38.08994
1090.048	91.23448
1090.398	85.19561
1090.749	85.20185
1091.099	46.11566
1091.449	63.15643
1091.799	79.19659
1092.149	30.07336
1092.499	74.17954
1092.849	47.11942
1093.199	54.13514
1093.548	50.12004
1093.898	68.16943
1094.248	62.15884
1094.597	11.02825
1094.947	93.2461
1095.296	86.21077
1095.645	74.19151
1095.994	79.18854
1096.343	75.18772
1096.692	26.06852
1097.041	26.0706
1097.39	60.1501
1097.739	52.13499
1098.088	80.21308
1098.437	25.06589
1098.785	105.28027
1099.134	68.17986
1099.482	92.25111
1099.83	63.16504
1100.179	40.10441
1100.527	72.19044
1100.875	45.11896
1101.223	68.17986
1101.571	52.14352
1101.919	34.08899
1102.267	42.11828
1102.615	-4.01287
1102.962	15.04827
1103.31	-3.00965
1103.658	17.05472
