Data from N2 R15 sample 1_Subt2__0__15-36-35-491.txt Node

Date: Tue Sep 02 15:36:35 PDT 2025
User: uwsun
Spectrometer: HDX01956
Trigger mode: 0
Integration Time (sec): 5.000000E-1
Scans to average: 1
Nonlinearity correction enabled: true
Boxcar width: 0
Storing dark spectrum: false
XAxis mode: Wavelengths
Number of Pixels in Spectrum: 2068
>>>>>Begin Spectral Data<<<<<
194.03	253.68216
194.578	288.87773
195.127	246.7422
195.676	296.88984
196.225	380.9432
196.773	354.91499
197.321	490.20495
197.87	663.43669
198.418	673.43358
198.966	644.38984
199.513	624.27926
200.061	615.28776
200.609	695.52593
201.156	638.11791
201.704	641.32571
202.251	616.36054
202.798	636.36846
203.345	703.41581
203.892	688.41193
204.438	765.45614
204.985	660.25747
205.532	706.51663
206.078	685.36623
206.624	674.34208
207.17	755.38905
207.716	700.36678
208.262	746.13554
208.808	716.40666
209.354	626.24636
209.899	785.59567
210.445	649.3141
210.99	708.36543
211.535	756.41284
212.08	763.4045
212.625	735.48578
213.17	699.44582
213.715	646.14562
214.259	743.37857
214.804	700.40879
215.348	683.25948
215.892	711.37483
216.436	734.36218
216.98	686.22113
217.524	702.33505
218.068	718.47092
218.612	739.50888
219.155	716.35314
219.698	651.26945
220.242	641.32748
220.785	658.25609
221.328	637.31625
221.871	671.41013
222.414	638.32156
222.956	561.12736
223.499	631.16108
224.041	630.21418
224.583	680.18981
225.126	630.13341
225.668	615.23834
226.21	599.25808
226.751	585.04771
227.293	654.22188
227.835	613.23997
228.376	677.27587
228.918	659.38002
229.459	604.2488
230	647.26283
230.541	683.27711
231.082	646.28684
231.622	608.15766
232.163	597.19928
232.704	628.28573
233.244	615.26504
233.784	627.2776
234.324	553.99793
234.864	625.15751
235.404	644.25964
235.944	632.23438
236.484	653.34634
237.023	727.3743
237.563	656.22805
238.102	646.24745
238.641	668.3881
239.18	652.23318
239.719	655.35289
240.258	652.18809
240.797	638.24612
241.335	630.27238
241.874	673.01099
242.412	651.27426
242.95	627.22026
243.488	635.17841
244.026	696.28126
244.564	705.13852
245.102	658.18632
245.64	644.27333
246.177	678.21746
246.715	667.30378
247.252	691.2749
247.789	741.07549
248.326	654.26716
248.863	688.19373
249.4	670.22343
249.936	705.1321
250.473	652.22536
251.009	659.20907
251.546	670.17473
252.082	671.17002
252.618	681.20251
253.154	629.22706
253.69	635.15149
254.226	679.30095
254.761	653.17398
255.297	638.11498
255.832	657.25084
256.367	655.24279
256.903	651.13746
257.438	749.38765
257.972	660.17111
258.507	649.1841
259.042	691.17962
259.576	679.13981
260.111	707.29666
260.645	727.22659
261.179	674.25062
261.713	649.14707
262.247	683.25256
262.781	620.02777
263.315	715.38786
263.849	686.37488
264.382	694.26478
264.915	715.31334
265.449	633.23195
265.982	750.32912
266.515	740.41974
267.048	776.24401
267.58	737.25228
268.113	749.23712
268.646	689.35322
269.178	667.16854
269.71	791.31464
270.243	751.33124
270.775	747.50041
271.307	732.39085
271.838	824.51057
272.37	735.422
272.902	725.28505
273.433	675.15224
273.965	736.40458
274.496	731.43854
275.027	737.43539
275.558	709.35198
276.089	699.34449
276.62	753.51317
277.15	728.4175
277.681	768.27104
278.211	753.44507
278.741	727.22194
279.272	700.23839
279.802	714.40734
280.332	792.42119
280.861	804.47976
281.391	765.3175
281.921	749.40284
282.45	768.4948
282.98	781.59041
283.509	743.27475
284.038	740.28961
284.567	793.41315
285.096	753.4041
285.625	781.33583
286.153	705.27481
286.682	751.30297
287.21	773.41725
287.739	781.39818
288.267	749.38696
288.795	809.646
289.323	774.35825
289.851	832.45265
290.378	830.37321
290.906	730.34667
291.433	839.57327
291.961	843.3944
292.488	783.48324
293.015	805.40576
293.542	792.51602
294.069	770.42983
294.596	841.55922
295.122	866.51534
295.649	821.32274
296.175	880.57059
296.702	832.50231
297.228	864.55228
297.754	816.33584
298.28	827.36257
298.806	785.40247
299.332	842.32953
299.857	841.36579
300.383	920.70471
300.908	753.35487
301.433	894.56037
301.958	873.45534
302.483	844.538
303.008	872.5747
303.533	887.7043
304.058	960.59517
304.582	823.40033
305.107	849.62413
305.631	921.47775
306.155	865.4246
306.679	919.49375
307.203	891.44889
307.727	910.51763
308.251	927.6211
308.775	888.46786
309.298	814.38758
309.822	1006.76103
310.345	975.57892
310.868	956.5676
311.391	978.66535
311.914	1011.72774
312.437	1029.5615
312.96	963.53229
313.482	1049.63936
314.005	963.66219
314.527	916.68802
315.049	985.71109
315.571	981.40637
316.093	1023.6886
316.615	1049.64885
317.137	1082.46407
317.659	1147.78505
318.18	1089.7012
318.702	1095.60321
319.223	1060.31668
319.744	1128.53881
320.265	1051.61971
320.786	1046.64932
321.307	1135.7673
321.828	1164.56981
322.348	1182.66452
322.869	1085.55935
323.389	990.87507
323.909	1216.62237
324.43	1210.75497
324.95	1179.55851
325.47	1197.72902
325.989	1271.67919
326.509	1237.4699
327.029	1282.54794
327.548	1225.49255
328.067	1305.71201
328.587	1295.8119
329.106	1221.50352
329.625	1409.08884
330.144	1313.57966
330.662	1341.58956
331.181	1354.62682
331.7	1386.63841
332.218	1419.44172
332.736	1525.69203
333.255	1389.58307
333.773	1405.62929
334.291	1511.86257
334.808	1468.47013
335.326	1553.53383
335.844	1523.5489
336.361	1458.75015
336.879	1471.51308
337.396	1606.65519
337.913	1568.49156
338.43	1662.44371
338.947	1660.59578
339.464	1653.26813
339.981	1584.51248
340.497	1668.68086
341.014	1726.62064
341.53	1662.34812
342.046	1660.58352
342.562	1770.68536
343.078	1863.47551
343.594	1804.50522
344.11	1817.47703
344.626	1724.61728
345.141	1862.30501
345.657	1904.31343
346.172	1832.45453
346.687	1890.28001
347.202	1929.18901
347.717	1946.37595
348.232	2012.52561
348.747	1877.2187
349.261	1895.99522
349.776	2033.2476
350.29	2056.34215
350.805	2152.41307
351.319	2076.17398
351.833	2031.03059
352.347	2002.15946
352.861	2140.08561
353.374	2197.07322
353.888	2101.21209
354.401	2188.99974
354.915	2153.85737
355.428	2210.19931
355.941	2173.95777
356.454	2318.8595
356.967	2300.99257
357.48	2329.88096
357.993	2321.09439
358.505	2250.03671
359.018	2437.98354
359.53	2358.90344
360.042	2401.64754
360.554	2418.91322
361.066	2353.90497
361.578	2448.51484
362.09	2434.79147
362.602	2497.47308
363.113	2441.63824
363.625	2534.47484
364.136	2523.41397
364.647	2403.49522
365.158	2588.49038
365.669	2678.53567
366.18	2734.4362
366.691	2571.28897
367.201	2551.51297
367.712	2606.28517
368.222	2593.28417
368.733	2702.01399
369.243	2774.9929
369.753	2995.01127
370.263	2886.13845
370.773	2903.20285
371.282	2908.00179
371.792	2951.71745
372.301	3041.83073
372.811	3111.0302
373.32	3164.29788
373.829	3165.48294
374.338	3382.17637
374.847	3428.14722
375.356	3577.07104
375.865	3575.77858
376.373	3839.73022
376.882	3989.86738
377.39	3901.75178
377.898	3980.63809
378.407	4207.53297
378.915	4499.59339
379.423	4640.62761
379.93	4790.78645
380.438	4896.91973
380.946	5228.47552
381.453	5304.77854
381.96	5516.59316
382.468	5765.04132
382.975	6376.83578
383.482	6521.51039
383.989	6572.06762
384.495	6777.88208
385.002	7001.96085
385.509	7434.53277
386.015	7904.383
386.521	8319.63632
387.028	8539.24484
387.534	8873.13247
388.04	9337.83956
388.546	9215.76629
389.051	9688.42782
389.557	10636.38495
390.063	12081.2092
390.568	11871.25444
391.073	12303.70927
391.578	12810.13486
392.084	13188.33009
392.589	13123.28808
393.093	14104.48545
393.598	15421.27648
394.103	17006.61798
394.607	18648.92902
395.112	20111.9621
395.616	21170.00546
396.12	22965.79644
396.624	25389.47555
397.128	27740.84052
397.632	30840.25615
398.136	33493.20547
398.639	34243.80319
399.143	31753.58057
399.646	28795.14292
400.15	25083.82847
400.653	20124.16724
401.156	13866.23708
401.659	5169.95759
402.162	1054.15589
402.664	0
403.167	0
403.67	0
404.172	0
404.674	0
405.176	0
405.678	0
406.18	0
406.682	0
407.184	0
407.686	0
408.187	0
408.688	0
409.19	0
409.691	0
410.192	0
410.693	0
411.194	435.30976
411.694	4082.94878
412.195	8864.71461
412.696	12089.80453
413.196	12760.96929
413.696	12863.67595
414.196	13703.56671
414.696	17261.84252
415.196	21764.24417
415.696	29583.19008
416.196	36460.31858
416.695	40057.39798
417.195	39542.47228
417.694	37548.37184
418.194	35692.99286
418.693	32902.83619
419.192	31696.54924
419.691	31093.81797
420.19	30821.13893
420.688	29973.84646
421.187	28981.91603
421.685	27329.32538
422.184	25218.43112
422.682	21547.18381
423.18	18104.01364
423.678	16238.75504
424.176	14999.02775
424.674	14142.95483
425.172	13688.41581
425.669	13067.18807
426.167	12246.82292
426.664	11157.28918
427.161	10144.18467
427.659	9229.26259
428.156	8523.19339
428.652	8126.24325
429.149	7641.979
429.646	7498.98574
430.143	7235.54964
430.639	6693.89205
431.135	6292.752
431.632	5967.96945
432.128	5610.79241
432.624	5157.00287
433.12	4802.9329
433.616	4693.8161
434.111	4398.58512
434.607	4389.5518
435.103	4443.57169
435.598	4362.548
436.093	4089.63749
436.588	3860.717
437.083	3803.81321
437.578	3509.04285
438.073	3250.33984
438.568	3249.5055
439.062	3174.24308
439.557	3018.68079
440.051	2953.62069
440.546	2702.79856
441.04	2759.96487
441.534	2697.24748
442.028	2727.13233
442.522	2524.23723
443.015	2591.9883
443.509	2491.41359
444.002	2374.47097
444.496	2356.19398
444.989	2412.52083
445.482	2246.64416
445.975	2262.34136
446.468	2321.22575
446.961	2238.27777
447.454	2156.48924
447.947	2129.60252
448.439	2062.77578
448.931	2103.51545
449.424	2061.94013
449.916	2006.8354
450.408	1984.61293
450.9	1942.84207
451.392	1853.0017
451.884	1885.78312
452.375	1767.97384
452.867	1854.80889
453.358	1718.77731
453.849	1789.64724
454.341	1743.80774
454.832	1720.71101
455.323	1721.03259
455.814	1729.92079
456.304	1720.94126
456.795	1586.9348
457.285	1649.92763
457.776	1612.01387
458.266	1600.0628
458.756	1631.14521
459.247	1467.06769
459.737	1413.06988
460.226	1483.96925
460.716	1391.11529
461.206	1400.15794
461.695	1306.25768
462.185	1374.14235
462.674	1391.11529
463.163	1337.02505
463.653	1280.91051
464.142	1224.17204
464.63	1242.24953
465.119	1251.11777
465.608	1182.09497
466.096	1244.04533
466.585	1248.18827
467.073	1167.23606
467.561	1162.24986
468.05	1191.20677
468.538	1164.32448
469.026	1114.24114
469.513	1139.00914
470.001	1123.14526
470.489	1102.2229
470.976	1061.17278
471.463	1029.3179
471.951	1001.32227
472.438	952.1491
472.925	895.09496
473.412	909.23698
473.899	901.11257
474.385	909.24586
474.872	855.0981
475.359	841.17314
475.845	851.93498
476.331	826.00891
476.817	795.15777
477.303	805.09187
477.789	736.08177
478.275	741.13226
478.761	704.06058
479.247	742.00965
479.732	725.13203
480.218	683.16218
480.703	668.07829
481.188	711.93268
481.673	635.93659
482.158	623.823
482.643	660.13293
483.128	545.82632
483.612	600.93678
484.097	568.96254
484.581	589.93164
485.066	547.92015
485.55	456.69146
486.034	513.75594
486.518	494.80989
487.002	489.84769
487.486	502.87232
487.969	497.8666
488.453	466.86478
488.936	469.75408
489.42	459.73045
489.903	469.8775
490.386	39.05038
490.869	473.74585
491.352	465.85325
491.835	460.68712
492.318	409.68377
492.8	441.6629
493.283	360.70405
493.765	353.66795
494.247	381.685
494.73	421.69573
495.212	384.72075
495.694	369.65797
496.175	313.57285
496.657	375.68911
497.139	355.46448
497.62	271.5045
498.102	320.62522
498.583	316.63089
499.064	314.54352
499.545	353.62683
500.026	304.53462
500.507	286.52859
500.988	322.63898
501.469	239.48503
501.949	287.57392
502.43	266.50492
502.91	239.39271
503.39	271.55424
503.87	254.48073
504.35	309.58784
504.83	234.41323
505.31	206.41013
505.79	210.41147
506.269	251.47912
506.749	172.32378
507.228	205.39473
507.707	300.53118
508.187	265.5196
508.666	167.3417
509.145	150.29223
509.623	222.42901
510.102	234.46848
510.581	269.53568
511.059	153.32228
511.538	225.48789
512.016	213.42357
512.494	182.37197
512.972	175.35076
513.45	98.19147
513.928	195.39483
514.406	163.32701
514.884	231.49598
515.361	188.3776
515.839	210.39706
516.316	186.376
516.793	212.45313
517.27	199.40791
517.747	183.3975
518.224	155.30478
518.701	194.36214
519.178	116.24568
519.654	202.40685
520.131	173.3636
520.607	179.37903
521.083	183.35254
521.56	172.34483
522.036	210.38695
522.512	183.38614
522.987	190.37951
523.463	141.28706
523.939	194.40549
524.414	182.35829
524.89	160.32493
525.365	178.342
525.84	146.29514
526.315	146.30164
526.79	195.3724
527.265	217.41724
527.74	166.3465
528.215	150.30378
528.689	194.36321
529.164	178.32947
529.638	183.40528
530.112	193.38612
530.587	149.27048
531.061	159.32857
531.534	226.4665
532.008	134.27822
532.482	240.4658
532.956	148.32551
533.429	237.48734
533.903	220.41312
534.376	239.44492
534.849	218.42997
535.322	191.38638
535.795	171.36098
536.268	167.34588
536.741	230.47113
537.213	221.43538
537.686	173.36232
538.158	187.35626
538.631	243.50441
539.103	226.42752
539.575	348.59502
540.047	268.49457
540.519	285.57521
540.991	296.61209
541.463	281.57469
541.934	317.60364
542.406	255.51371
542.877	341.63577
543.348	335.67612
543.82	385.78203
544.291	392.75319
544.762	403.779
545.233	452.91958
545.703	366.65989
546.174	473.88105
546.645	483.91532
547.115	510.9757
547.585	611.08089
548.056	523.98823
548.526	619.10817
548.996	693.26009
549.466	696.29216
549.935	719.25788
550.405	795.24172
550.875	857.44894
551.344	901.53591
551.814	923.48013
552.283	938.40205
552.752	1050.63191
553.221	1082.51689
553.69	1280.74819
554.159	1254.96676
554.628	1344.79745
555.096	1418.22493
555.565	1489.91388
556.033	1558.15147
556.502	1633.30198
556.97	1698.06455
557.438	1831.37495
557.906	2005.48585
558.374	2066.37874
558.842	2134.56847
559.31	2338.35831
559.777	2441.69259
560.245	2753.62021
560.712	2893.53389
561.18	3162.21317
561.647	3299.2434
562.114	3632.20723
562.581	3843.61833
563.048	4166.05641
563.514	4409.27944
563.981	4706.71331
564.448	5114.36678
564.914	5414.45048
565.381	5798.16936
565.847	6262.19817
566.313	6693.13937
566.779	7059.07491
567.245	7349.33552
567.711	7957.85101
568.176	8437.32162
568.642	8910.24044
569.108	9383.21264
569.573	10090.27338
570.038	10747.3078
570.504	11213.1805
570.969	11947.22582
571.434	12466.72189
571.899	13027.7295
572.363	14022.27989
572.828	14535.80292
573.293	15232.66934
573.757	15819.87036
574.222	16531.63713
574.686	17019.41787
575.15	17586.04733
575.614	18264.65252
576.078	18786.06742
576.542	19260.24843
577.006	19679.39956
577.469	19891.66499
577.933	20305.55235
578.396	20453.85157
578.86	20851.8176
579.323	20559.41006
579.786	20647.25823
580.249	20535.30053
580.712	20299.83572
581.175	20253.99292
581.637	20013.30035
582.1	19887.78353
582.563	19554.61173
583.025	19069.9622
583.487	18777.51295
583.95	18034.14714
584.412	17977.74288
584.874	17508.41955
585.336	16937.98567
585.797	16441.03196
586.259	16185.21066
586.721	15516.14022
587.182	14947.25135
587.643	14602.49071
588.105	14101.3013
588.566	13687.35935
589.027	13295.55262
589.488	12863.9449
589.949	12623.63277
590.41	12305.7339
590.87	11945.91405
591.331	11617.47403
591.791	11289.32724
592.252	10900.56132
592.712	10610.08357
593.172	10463.77776
593.632	10117.56256
594.092	9811.50592
594.552	9581.88677
595.011	9390.27335
595.471	9027.42763
595.931	8823.00329
596.39	8617.6917
596.849	8518.50077
597.308	8281.06188
597.768	8019.10701
598.227	7919.85132
598.685	7805.62265
599.144	7559.47104
599.603	7465.46391
600.062	7315.98262
600.52	7235.11553
600.978	7136.3232
601.437	6951.1317
601.895	6741.77676
602.353	6678.95514
602.811	6541.93618
603.269	6468.30086
603.727	6163.35336
604.184	6133.02263
604.642	5926.55818
605.099	6004.22304
605.557	5859.56221
606.014	5678.92487
606.471	5562.79305
606.928	5476.95191
607.385	5352.70217
607.842	5379.36604
608.299	5384.4911
608.755	5255.74126
609.212	5070.35122
609.668	4920.38512
610.125	5057.88641
610.581	4964.89373
611.037	4841.72814
611.493	4600.06696
611.949	4577.15206
612.405	4579.14451
612.861	4484.13242
613.316	4288.28474
613.772	4341.03527
614.227	4171.28169
614.683	4290.70548
615.138	4051.30082
615.593	4028.28042
616.048	3999.23929
616.503	3873.74615
616.958	3893.83635
617.412	3713.56276
617.867	3708.16042
618.321	3716.86539
618.776	3589.26839
619.23	3498.6277
619.684	3534.42651
620.138	3432.63494
620.592	3309.91288
621.046	3384.71825
621.5	3300.93018
621.954	3357.51711
622.407	3204.50196
622.861	3163.98036
623.314	3065.6624
623.768	3006.78503
624.221	2995.99985
624.674	2885.75441
625.127	2873.84446
625.58	2894.7422
626.033	2847.59541
626.485	2762.97303
626.938	2666.96263
627.39	2668.8513
627.843	2636.83187
628.295	2535.82358
628.747	2580.96981
629.199	2515.75218
629.651	2412.73389
630.103	2454.78615
630.555	2433.45172
631.006	2319.88198
631.458	2291.90045
631.909	2266.80296
632.361	2250.8553
632.812	2178.78132
633.263	2244.53052
633.714	2141.48573
634.165	2176.02435
634.616	2122.9128
635.067	2129.64291
635.518	2052.90566
635.968	2041.24512
636.419	1975.50521
636.869	1937.83743
637.319	1920.70823
637.769	1864.55097
638.219	1877.83107
638.669	1852.79526
639.119	1805.86241
639.569	1814.821
640.019	1849.6933
640.468	1789.52562
640.918	1748.78118
641.367	1709.49084
641.816	1716.48828
642.265	1754.63596
642.714	1704.60079
643.163	1666.55101
643.612	1675.69914
644.061	1573.20647
644.51	1742.57592
644.958	1666.39999
645.406	1594.62843
645.855	1643.77138
646.303	1606.57323
646.751	1584.4524
647.199	1659.52019
647.647	1585.49587
648.095	1630.52293
648.543	1606.16375
648.99	1542.5852
649.438	1619.61535
649.885	1642.82086
650.333	1595.99985
650.78	1598.68555
651.227	1597.71199
651.674	1539.43657
652.121	1536.65572
652.568	1565.67711
653.015	1595.86755
653.461	1578.61892
653.908	1565.54286
654.354	1512.57698
654.801	1541.53828
655.247	1568.36011
655.693	1586.97891
656.139	1587.66764
656.585	1477.55916
657.031	1521.50097
657.477	1526.2717
657.922	1510.45754
658.368	1521.71179
658.813	1578.57198
659.259	1521.61102
659.704	1532.52403
660.149	1583.5752
660.594	1533.59288
661.039	1525.44987
661.484	1588.6801
661.929	1527.544
662.373	1507.77858
662.818	1528.74724
663.262	1493.6033
663.707	1534.83484
664.151	1565.7395
664.595	1561.68577
665.039	1531.77285
665.483	1577.90671
665.927	1602.65328
666.371	1576.5545
666.814	1533.63591
667.258	1505.56293
667.701	1628.39356
668.145	1627.88847
668.588	1594.7985
669.031	1566.60875
669.474	1551.68673
669.917	1585.44333
670.36	1605.85212
670.803	1665.81628
671.245	1623.31635
671.688	1609.80239
672.13	1591.48259
672.573	1569.91332
673.015	1561.69567
673.457	1578.38519
673.899	1664.83486
674.341	1590.74534
674.783	1625.75254
675.225	1569.79067
675.666	1627.76036
676.108	1587.39116
676.549	1647.74104
676.991	1674.50971
677.432	1658.17273
677.873	1640.65032
678.314	1687.80664
678.755	1688.87757
679.196	1630.60326
679.637	1655.86953
680.078	1719.76767
680.518	1744.7763
680.959	1678.81347
681.399	1717.98395
681.839	1624.82206
682.28	1733.97753
682.72	1687.65365
683.16	1727.00983
683.6	1694.65644
684.039	1693.34616
684.479	1683.91079
684.919	1708.69086
685.358	1764.13292
685.798	1733.23521
686.237	1725.90302
686.676	1754.77356
687.115	1719.78463
687.554	1705.81076
687.993	1753.5932
688.432	1745.70227
688.871	1772.69331
689.309	1755.87661
689.748	1871.47189
690.186	1834.95075
690.625	1802.8423
691.063	1843.96786
691.501	1806.06479
691.939	1873.15683
692.377	1874.06364
692.815	1806.92461
693.253	1915.0417
693.69	1908.67089
694.128	1887.04212
694.565	1923.01007
695.003	1902.26509
695.44	1878.9135
695.877	2014.9763
696.314	1975.63154
696.751	1987.87357
697.188	1920.85023
697.625	2052.9416
698.061	1970.06635
698.498	2071.18119
698.934	2052.14334
699.371	2061.04014
699.807	2112.09744
700.243	2106.16995
700.679	2047.87426
701.115	2143.10165
701.551	2050.04434
701.987	2144.89545
702.422	2148.13256
702.858	2110.12781
703.294	2157.93125
703.729	2188.30356
704.164	2231.24376
704.599	2201.87308
705.035	2233.90087
705.47	2199.27319
705.904	2207.0734
706.339	2383.15148
706.774	2252.12121
707.209	2250.04437
707.643	2311.27252
708.078	2302.33654
708.512	2252.4418
708.946	2303.26287
709.38	2312.20682
709.814	2348.04824
710.248	2304.34554
710.682	2332.22935
711.116	2298.22069
711.549	2310.65423
711.983	2308.07961
712.416	2369.22189
712.85	2349.48531
713.283	2362.21918
713.716	2376.54607
714.149	2332.24953
714.582	2352.96166
715.015	2310.49381
715.448	2278.50839
715.881	2297.83404
716.313	2262.12762
716.746	2203.11942
717.178	2265.25293
717.61	2246.52147
718.043	2224.41773
718.475	2195.25941
718.907	2281.53819
719.339	2182.93312
719.77	2107.09643
720.202	2106.41227
720.634	2051.18262
721.065	2107.10198
721.497	2090.24877
721.928	2072.24052
722.359	2023.11876
722.79	2018.08681
723.221	2003.31555
723.652	1983.42233
724.083	1971.80498
724.514	1963.87967
724.945	1880.91497
725.375	1867.84724
725.806	1889.18576
726.236	1832.24955
726.666	1794.87926
727.096	1786.0177
727.526	1810.18413
727.956	1729.6664
728.386	1754.00266
728.816	1696.05286
729.246	1665.85989
729.675	1633.87698
730.105	1617.86622
730.534	1571.63346
730.964	1593.945
731.393	1603.89074
731.822	1549.93106
732.251	1562.92089
732.68	1529.61929
733.109	1507.74702
733.537	1406.55901
733.966	1441.6959
734.395	1431.44525
734.823	1471.41682
735.251	1377.51671
735.68	1335.59348
736.108	1384.6895
736.536	1316.38019
736.964	1276.28194
737.392	1258.4822
737.82	1316.43189
738.247	1233.31923
738.675	1302.40355
739.102	1199.39033
739.53	1173.40728
739.957	1181.45079
740.384	1259.44323
740.811	1174.39911
741.238	1142.24349
741.665	1068.0066
742.092	1118.15416
742.519	990.04445
742.945	1056.07518
743.372	1038.12369
743.798	1011.1756
744.225	931.86274
744.651	1011.11436
745.077	979.04644
745.503	1015.05277
745.929	941.89837
746.355	981.04703
746.781	909.91748
747.207	882.75443
747.632	846.77243
748.058	867.85996
748.483	855.67819
748.908	840.80317
749.334	814.73459
749.759	831.68391
750.184	758.57814
750.609	769.65598
751.033	807.6516
751.458	794.53596
751.883	696.53613
752.307	715.48357
752.732	656.46947
753.156	732.59612
753.58	729.52476
754.005	714.61194
754.429	635.33849
754.853	609.36605
755.277	628.33617
755.7	636.42171
756.124	577.30479
756.548	565.21941
756.971	591.31097
757.394	560.32341
757.818	571.34449
758.241	546.27235
758.664	521.21378
759.087	488.00364
759.51	522.19773
759.933	499.10892
760.356	513.21665
760.778	489.1145
761.201	483.09061
761.623	494.11028
762.046	520.1358
762.468	500.11092
762.89	439.01524
763.312	467.06171
763.734	413.93663
764.156	407.94882
764.578	415.89829
765	410.94358
765.421	413.98886
765.843	404.00044
766.264	392.89677
766.686	396.94185
767.107	365.84122
767.528	313.75891
767.949	330.80447
768.37	354.82838
768.791	316.73455
769.212	286.69333
769.632	266.60024
770.053	332.83819
770.473	328.76424
770.894	349.83472
771.314	343.78296
771.734	283.6369
772.154	264.65773
772.575	279.62533
772.994	244.53912
773.414	280.65037
773.834	252.61229
774.254	246.58583
774.673	257.6079
775.093	250.60106
775.512	212.51106
775.931	244.60195
776.351	266.63976
776.77	215.51388
777.189	213.49584
777.607	183.45967
778.026	265.63941
778.445	181.44531
778.864	231.57793
779.282	233.54623
779.701	212.52282
780.119	193.47851
780.537	207.50551
780.955	241.59684
781.373	206.49885
781.791	202.44446
782.209	212.47801
782.627	202.52128
783.045	188.42476
783.462	190.47648
783.88	185.47003
784.297	185.45717
784.715	148.37557
785.132	164.39162
785.549	161.39728
785.966	176.43549
786.383	177.42823
786.8	219.49631
787.217	140.3288
787.633	166.40803
788.05	233.53897
788.466	200.46218
788.883	135.34094
789.299	192.45338
789.715	155.37204
790.131	148.36379
790.547	190.46547
790.963	192.46723
791.379	171.42536
791.795	175.39289
792.21	156.36007
792.626	134.3152
793.041	143.3491
793.457	127.31143
793.872	126.29407
794.287	56.13434
794.702	174.42168
795.117	125.308
795.532	119.29602
795.947	205.48248
796.362	147.34719
796.776	220.50253
797.191	137.33196
797.605	57.13447
798.02	97.23539
798.434	174.38092
798.848	95.2333
799.262	119.293
799.676	121.29319
800.09	122.29789
800.504	110.26559
800.918	102.23553
801.331	163.42102
801.745	132.30043
802.158	150.37007
802.572	172.41025
802.985	182.43177
803.398	112.26561
803.811	156.39559
804.224	155.38051
804.637	99.235
805.05	108.24919
805.462	167.40373
805.875	82.21214
806.288	94.22601
806.7	114.28456
807.112	149.34097
807.525	139.33921
807.937	71.17565
808.349	129.32007
808.761	126.3072
809.173	144.34465
809.584	138.33733
809.996	107.26044
810.408	84.21626
810.819	129.30042
811.231	124.31734
811.642	190.44291
812.053	224.51743
812.464	298.6782
812.875	268.66114
813.286	202.50803
813.697	224.50919
814.108	139.33566
814.519	113.25026
814.929	141.35533
815.34	150.35874
815.75	129.32439
816.16	128.31591
816.571	114.2939
816.981	136.31753
817.391	114.27327
817.801	92.22765
818.211	131.30904
818.62	147.34894
819.03	149.36008
819.44	143.36885
819.849	118.29487
820.259	119.30203
820.668	97.23742
821.077	96.23728
821.486	152.36074
821.895	139.33933
822.304	102.2687
822.713	91.21443
823.122	92.22873
823.531	122.28653
823.939	117.28265
824.348	108.26086
824.756	108.26871
825.164	127.31638
825.573	122.3032
825.981	139.34047
826.389	120.29878
826.797	83.20737
827.205	102.23272
827.612	130.3173
828.02	73.17135
828.428	129.32497
828.835	93.24362
829.243	132.31098
829.65	100.24717
830.057	83.20097
830.464	104.25176
830.871	136.32165
831.278	65.15726
831.685	103.22849
832.092	134.32414
832.499	90.1962
832.905	118.29604
833.312	115.2601
833.718	120.29617
834.124	78.17803
834.531	97.24322
834.937	118.30008
835.343	121.28911
835.749	171.39163
836.155	93.2423
836.561	64.15749
836.966	114.27639
837.372	131.32954
837.777	69.17177
838.183	170.37028
838.588	97.23945
838.993	126.30341
839.399	93.22619
839.804	56.13669
840.209	103.26031
840.613	80.17758
841.018	109.2738
841.423	104.26485
841.828	71.17931
842.232	130.31825
842.637	124.28929
843.041	77.19682
843.445	108.26871
843.849	74.18284
844.253	119.27997
844.657	108.26968
845.061	89.20105
845.465	101.24224
845.869	82.18995
846.272	74.17981
846.676	80.19294
847.079	87.22019
847.483	108.26724
847.886	145.34751
848.289	69.18382
848.692	80.20193
849.095	117.27816
849.498	146.36457
849.901	84.19196
850.304	94.22335
850.707	94.23829
851.109	109.27351
851.512	85.20797
851.914	85.21321
852.316	93.23387
852.718	12.03123
853.121	98.23849
853.523	94.21835
853.925	80.20789
854.326	50.12522
854.728	107.27283
855.13	65.16743
855.531	72.17167
855.933	110.26167
856.334	53.13227
856.736	24.05418
857.137	97.22394
857.538	54.13587
857.939	100.24517
858.34	121.29154
858.741	83.21602
859.142	89.21265
859.542	116.30299
859.943	67.16624
860.343	84.20701
860.744	118.28479
861.144	137.32933
861.544	62.1489
861.945	101.25544
862.345	112.27123
862.745	115.28284
863.145	141.33186
863.544	73.18397
863.944	111.25962
864.344	89.21986
864.743	157.38256
865.143	68.17434
865.542	80.1848
865.941	71.17533
866.34	122.28876
866.74	97.25858
867.139	90.21418
867.537	83.21052
867.936	106.25283
868.335	119.29946
868.734	108.27348
869.132	88.20328
869.531	103.24704
869.929	71.16143
870.327	113.26803
870.726	110.27169
871.124	101.2341
871.522	50.12751
871.92	108.2639
872.318	135.32527
872.715	137.3342
873.113	104.25119
873.511	61.15185
873.908	70.17625
874.306	84.20785
874.703	128.31614
875.1	156.39207
875.497	113.26803
875.894	80.19512
876.291	116.28155
876.688	80.20546
877.085	142.33519
877.482	84.20922
877.878	110.26207
878.275	114.28662
878.671	171.37191
879.068	109.26053
879.464	86.2067
879.86	93.21838
880.256	143.34728
880.652	65.16504
881.048	125.30584
881.444	129.30279
881.84	82.20743
882.236	129.32007
882.631	114.2768
883.027	138.32903
883.422	85.2162
883.817	60.15064
884.213	53.13605
884.608	28.06901
885.003	59.14216
885.398	72.17966
885.793	90.22449
886.188	46.11453
886.582	134.33896
886.977	78.18433
887.371	133.33168
887.766	42.10469
888.16	140.344
888.554	132.32183
888.949	88.21966
889.343	109.26362
889.737	17.04557
890.131	103.25613
890.525	66.16844
890.918	95.23735
891.312	106.25118
891.706	96.25007
892.099	125.31411
892.492	147.311
892.886	106.25689
893.279	75.19036
893.672	58.14755
894.065	94.2337
894.458	93.23227
894.851	143.34467
895.244	81.20588
895.637	128.30402
896.029	67.16345
896.422	94.22798
896.814	47.117
897.206	46.10972
897.599	148.35976
897.991	68.164
898.383	84.19736
898.775	69.1553
899.167	30.07029
899.559	107.2683
899.951	110.25653
900.342	113.28436
900.734	24.05987
901.125	100.26031
901.517	93.22662
901.908	130.30722
902.299	85.20658
902.69	77.18088
903.082	132.31497
903.473	125.29523
903.863	66.16802
904.254	115.2637
904.645	146.35702
905.036	63.15225
905.426	141.31721
905.817	101.24565
906.207	62.14749
906.597	106.24535
906.987	108.27727
907.378	68.17152
907.768	78.20534
908.158	60.14612
908.547	82.21074
908.937	110.27944
909.327	100.24071
909.717	128.32066
910.106	110.26137
910.495	141.34639
910.885	95.23881
911.274	82.20387
911.663	126.31565
912.052	111.27098
912.441	124.31131
912.83	91.20733
913.219	117.30284
913.608	115.27844
913.997	47.11794
914.385	117.27612
914.774	117.28147
915.162	93.21991
915.55	121.289
915.939	54.13626
916.327	92.22798
916.715	84.21286
917.103	165.39769
917.491	110.26929
917.878	108.26282
918.266	54.13999
918.654	78.19836
919.041	44.11501
919.429	86.20166
919.816	88.22165
920.203	76.1835
920.591	74.18277
920.978	118.28544
921.365	104.27044
921.752	62.14754
922.139	120.25682
922.525	34.08194
922.912	92.22271
923.299	63.15626
923.685	63.16403
924.072	129.29295
924.458	86.21171
924.844	55.13602
925.231	77.17833
925.617	88.22236
926.003	68.1733
926.389	60.15113
926.774	84.21165
927.16	104.25583
927.546	35.08959
927.931	122.30055
928.317	118.26824
928.702	107.25047
929.088	69.16265
929.473	95.23984
929.858	50.1209
930.243	91.21676
930.628	85.2055
931.013	52.12886
931.398	154.34695
931.783	122.31736
932.167	115.27781
932.552	123.30419
932.937	97.23874
933.321	93.2316
933.705	80.20063
934.09	122.30442
934.474	104.24454
934.858	62.16051
935.242	66.15252
935.626	89.22629
936.009	93.24561
936.393	75.19002
936.777	93.23638
937.16	84.21731
937.544	88.20587
937.927	55.13945
938.311	106.25612
938.694	100.26227
939.077	69.16461
939.46	120.29093
939.843	150.30615
940.226	67.17138
940.609	68.15558
940.991	61.15499
941.374	74.18008
941.757	77.1891
942.139	113.25057
942.522	121.28213
942.904	62.14873
943.286	129.32323
943.668	86.22141
944.05	77.18875
944.432	73.17941
944.814	98.23929
945.196	59.14355
945.578	95.22386
945.959	96.223
946.341	111.26947
946.722	102.23703
947.104	111.26227
947.485	73.16914
947.866	63.15837
948.247	45.11365
948.628	108.26066
949.009	59.15086
949.39	88.21759
949.771	109.25064
950.152	95.23123
950.532	28.06916
950.913	85.20371
951.293	78.20975
951.674	83.19953
952.054	117.28637
952.434	70.17315
952.814	92.21717
953.194	75.19547
953.574	120.29181
953.954	106.24905
954.334	107.26394
954.714	79.1915
955.093	127.30784
955.473	102.25267
955.853	104.26672
956.232	61.1669
956.611	107.2539
956.99	93.23193
957.37	84.21279
957.749	70.16639
958.128	92.23006
958.506	97.2496
958.885	63.15865
959.264	50.12254
959.643	109.24512
960.021	86.21171
960.4	95.21337
960.778	93.22729
961.156	78.19456
961.535	88.20361
961.913	108.24988
962.291	59.15113
962.669	94.23625
963.047	80.20309
963.424	96.24301
963.802	91.22207
964.18	136.33886
964.557	96.21912
964.935	117.27366
965.312	93.24039
965.69	85.21152
966.067	94.22704
966.444	99.24178
966.821	56.14422
967.198	110.26388
967.575	107.26034
967.952	127.29483
968.329	79.19121
968.705	69.14739
969.082	96.24422
969.458	65.15548
969.835	110.26478
970.211	104.26438
970.587	60.14912
970.963	80.20417
971.339	82.21294
971.715	89.22067
972.091	87.21279
972.467	102.25202
972.843	55.13637
973.219	118.27973
973.594	87.22612
973.97	158.36832
974.345	69.16455
974.721	70.16888
975.096	84.20197
975.471	75.17707
975.846	77.18405
976.221	62.15711
976.596	56.13408
976.971	81.19885
977.346	119.27331
977.72	118.297
978.095	89.22845
978.469	91.21551
978.844	155.38233
979.218	53.12697
979.593	116.27445
979.967	87.21049
980.341	93.21231
980.715	55.13846
981.089	86.21389
981.463	52.11936
981.837	63.15357
982.21	136.31116
982.584	105.25097
982.957	63.15695
983.331	86.2019
983.704	96.23388
984.078	70.17188
984.451	131.32242
984.824	69.16744
985.197	108.25948
985.57	124.30683
985.943	103.25192
986.316	124.30052
986.688	84.20128
987.061	105.24347
987.434	75.1946
987.806	46.11165
988.179	62.14595
988.551	117.29327
988.923	96.23441
989.295	128.31533
989.667	37.08861
990.039	64.15773
990.411	46.10597
990.783	103.23467
991.155	59.14151
991.527	144.34846
991.898	71.17623
992.27	82.20164
992.641	79.19716
993.012	108.25127
993.384	114.26857
993.755	90.22782
994.126	72.17246
994.497	76.18564
994.868	76.17368
995.239	62.14992
995.61	73.18291
995.98	88.21223
996.351	48.1189
996.722	34.0791
997.092	66.15579
997.462	57.13296
997.833	83.1955
998.203	111.26602
998.573	97.23945
998.943	97.22537
999.313	95.22568
999.683	105.24934
1000.053	126.2855
1000.423	100.24071
1000.792	85.21895
1001.162	48.11816
1001.531	65.15981
1001.901	100.24699
1002.27	86.19082
1002.639	43.10999
1003.009	87.2054
1003.378	96.24344
1003.747	102.23853
1004.116	60.14328
1004.485	141.33108
1004.853	91.22884
1005.222	106.26459
1005.591	108.25355
1005.959	51.11488
1006.328	59.13252
1006.696	59.14205
1007.064	66.16552
1007.433	74.18411
1007.801	139.33554
1008.169	92.23056
1008.537	100.21911
1008.905	46.10723
1009.273	79.19408
1009.64	67.15929
1010.008	128.3005
1010.375	134.32023
1010.743	104.23757
1011.11	58.13702
1011.478	113.27638
1011.845	71.16626
1012.212	77.1733
1012.579	121.29308
1012.946	121.28401
1013.313	115.27025
1013.68	150.33019
1014.047	63.14972
1014.414	69.16234
1014.78	79.19523
1015.147	94.22541
1015.513	102.24329
1015.88	94.23846
1016.246	140.3398
1016.612	95.21548
1016.978	110.26649
1017.344	121.29506
1017.71	155.37048
1018.076	142.32881
1018.442	89.22733
1018.808	131.32254
1019.174	96.23876
1019.539	161.36235
1019.905	86.20135
1020.27	96.23484
1020.636	151.35498
1021.001	109.25794
1021.366	58.13903
1021.731	68.17427
1022.096	75.18826
1022.461	88.20668
1022.826	111.26064
1023.191	106.27536
1023.556	107.24791
1023.92	145.35015
1024.285	110.26538
1024.649	87.21168
1025.014	85.20913
1025.378	71.17777
1025.742	118.2893
1026.107	113.25224
1026.471	104.24015
1026.835	91.22381
1027.199	49.11793
1027.562	81.18708
1027.926	130.31304
1028.29	82.20624
1028.654	122.27655
1029.017	108.26253
1029.381	70.16652
1029.744	65.16527
1030.107	119.27768
1030.471	67.15984
1030.834	131.29302
1031.197	127.30135
1031.56	95.22211
1031.923	80.20567
1032.286	141.32513
1032.648	139.32664
1033.011	83.18918
1033.374	139.3209
1033.736	45.11836
1034.099	97.23424
1034.461	49.12375
1034.823	50.12445
1035.185	95.23709
1035.548	111.26694
1035.91	101.23947
1036.272	118.26476
1036.634	103.24939
1036.995	68.15921
1037.357	50.12159
1037.719	61.14798
1038.08	110.25804
1038.442	78.18405
1038.803	92.21902
1039.165	54.13611
1039.526	93.2228
1039.887	74.17617
1040.248	45.11092
1040.609	85.20859
1040.97	36.08817
1041.331	84.21127
1041.692	48.11203
1042.053	139.31066
1042.413	100.23064
1042.774	80.19337
1043.134	126.29546
1043.495	136.33639
1043.855	82.19761
1044.215	55.13632
1044.576	54.12895
1044.936	114.25789
1045.296	111.27381
1045.656	82.19993
1046.016	81.19428
1046.375	72.17384
1046.735	89.20006
1047.095	83.19292
1047.454	82.17246
1047.814	115.27288
1048.173	128.30109
1048.533	78.1776
1048.892	92.21893
1049.251	97.24129
1049.61	84.20541
1049.969	70.16427
1050.328	83.1786
1050.687	76.18391
1051.046	83.20074
1051.405	73.18073
1051.763	81.18499
1052.122	76.18854
1052.48	73.17815
1052.839	124.28736
1053.197	79.18478
1053.555	142.31756
1053.914	126.30364
1054.272	115.27446
1054.63	72.17522
1054.988	95.2236
1055.345	77.16476
1055.703	126.29869
1056.061	67.17174
1056.419	63.16262
1056.776	112.26827
1057.134	59.13627
1057.491	112.27714
1057.848	75.18575
1058.206	97.2259
1058.563	41.0905
1058.92	103.23476
1059.277	108.26341
1059.634	119.27604
1059.991	102.2418
1060.348	139.30822
1060.704	35.0836
1061.061	125.28594
1061.418	101.24243
1061.774	39.09642
1062.131	35.09271
1062.487	93.21548
1062.843	89.22018
1063.199	63.1562
1063.555	72.16599
1063.911	80.20085
1064.267	188.37987
1064.623	88.21207
1064.979	137.31893
1065.335	113.26668
1065.691	79.18818
1066.046	99.21532
1066.402	41.09326
1066.757	113.28181
1067.112	105.2549
1067.468	36.08518
1067.823	116.2752
1068.178	80.19228
1068.533	63.15225
1068.888	103.24346
1069.243	55.13552
1069.598	78.1884
1069.952	98.21835
1070.307	60.14814
1070.662	58.13739
1071.016	94.20857
1071.371	106.23823
1071.725	107.25301
1072.079	75.17941
1072.434	74.17887
1072.788	73.17295
1073.142	121.29352
1073.496	76.17926
1073.85	98.22494
1074.203	58.14041
1074.557	87.22976
1074.911	136.31903
1075.265	60.1391
1075.618	120.28896
1075.971	84.19836
1076.325	83.20954
1076.678	43.0984
1077.031	85.19084
1077.385	96.20928
1077.738	72.16168
1078.091	37.0843
1078.444	110.25218
1078.796	81.19745
1079.149	93.22932
1079.502	80.18774
1079.855	61.14184
1080.207	110.26779
1080.56	62.15979
1080.912	86.2078
1081.264	62.14885
1081.617	64.15546
1081.969	30.07589
1082.321	44.10748
1082.673	49.11177
1083.025	66.15598
1083.377	-170.3819
1083.728	78.18083
1084.08	54.1346
1084.432	91.21759
1084.783	126.2906
1085.135	51.1277
1085.486	55.12561
1085.838	98.23902
1086.189	76.18343
1086.54	66.157
1086.891	74.18619
1087.242	83.20066
1087.593	99.23862
1087.944	81.18201
1088.295	133.297
1088.646	107.25634
1088.996	56.13465
1089.347	54.1323
1089.698	41.09699
1090.048	93.23955
1090.398	78.17975
1090.749	69.16436
1091.099	45.11316
1091.449	73.18093
1091.799	93.23084
1092.149	52.12664
1092.499	79.1915
1092.849	44.11186
1093.199	100.24817
1093.548	100.23779
1093.898	81.20135
1094.248	78.19927
1094.597	35.0895
1094.947	87.23046
1095.296	92.22523
1095.645	92.23735
1095.994	107.25399
1096.343	109.27114
1096.692	39.10255
1097.041	37.1003
1097.39	105.26053
1097.739	85.2194
1098.088	98.26024
1098.437	49.12862
1098.785	70.18793
1099.134	116.30434
1099.482	91.24842
1099.83	112.29095
1100.179	37.09663
1100.527	23.06133
1100.875	74.19467
1101.223	88.23197
1101.571	41.11336
1101.919	44.11497
1102.267	51.14343
1102.615	6.01929
1102.962	22.07073
1103.31	15.04814
1103.658	22.07077
