Data from N2 R15 sample 6_Subt2__3__15-23-45-009.txt Node

Date: Tue Sep 02 15:23:45 PDT 2025
User: uwsun
Spectrometer: HDX01956
Trigger mode: 0
Integration Time (sec): 5.000000E-1
Scans to average: 1
Nonlinearity correction enabled: true
Boxcar width: 0
Storing dark spectrum: false
XAxis mode: Wavelengths
Number of Pixels in Spectrum: 2068
>>>>>Begin Spectral Data<<<<<
194.03	153.41927
194.578	159.49287
195.127	154.47042
195.676	165.50488
196.225	197.5053
196.773	200.53073
197.321	300.76498
197.87	386.88695
198.418	418.94084
198.966	371.84857
199.513	341.74475
200.061	316.70635
200.609	374.87756
201.156	327.62057
201.704	386.84498
202.251	360.83879
202.798	415.93658
203.345	401.86465
203.892	355.78418
204.438	399.82784
204.985	382.77788
205.532	358.82756
206.078	379.81056
206.624	349.74835
207.17	429.8547
207.716	356.75264
208.262	449.7445
208.808	362.77136
209.354	381.80285
209.899	424.93363
210.445	361.78008
210.99	357.74732
211.535	441.88923
212.08	420.84047
212.625	413.89739
213.17	421.92605
213.715	306.59134
214.259	433.86628
214.804	395.85172
215.348	408.80511
215.892	373.78046
216.436	428.85568
216.98	469.88271
217.524	413.84158
218.068	385.84901
218.612	416.91256
219.155	388.79297
219.698	403.83315
220.242	382.83799
220.785	367.75091
221.328	361.7931
221.871	401.89391
222.414	397.86777
222.956	349.73672
223.499	352.69395
224.041	413.83852
224.583	431.8044
225.126	349.67396
225.668	320.68898
226.21	363.80319
226.751	324.62013
227.293	385.76811
227.835	352.75559
228.376	408.82061
228.918	369.82327
229.459	333.73128
230	340.71284
230.541	392.78662
231.082	346.73823
231.622	381.76648
232.163	400.84121
232.704	345.75253
233.244	330.72332
233.784	389.83662
234.324	340.64697
234.864	337.66984
235.404	340.71378
235.944	356.74176
236.484	355.78188
237.023	400.8175
237.563	387.77353
238.102	394.80779
238.641	384.84946
239.18	304.62469
239.719	402.87851
240.258	379.73927
240.797	377.7829
241.335	354.76119
241.874	369.60571
242.412	461.94408
242.95	353.73273
243.488	383.75631
244.026	371.73949
244.564	419.73208
245.102	388.74874
245.64	414.86375
246.177	373.72308
246.715	467.95723
247.252	360.72007
247.789	453.71677
248.326	303.63709
248.863	373.702
249.4	414.80582
249.936	357.63064
250.473	388.77751
251.009	395.77378
251.546	429.80066
252.082	421.78339
252.618	393.74692
253.154	363.75382
253.69	398.7662
254.226	339.70367
254.761	403.7719
255.297	382.71346
255.832	358.732
256.367	370.75173
256.903	390.72913
257.438	404.81369
257.972	398.75514
258.507	372.72717
259.042	403.74206
259.576	350.64106
260.111	396.784
260.645	419.76688
261.179	396.78657
261.713	377.71442
262.247	402.79029
262.781	397.69949
263.315	392.8204
263.849	370.79662
264.382	397.7788
264.915	433.85264
265.449	348.72413
265.982	443.84853
266.515	386.80462
267.048	371.66393
267.58	423.78046
268.113	346.63597
268.646	397.83435
269.178	403.75586
269.71	408.75033
270.243	400.77449
270.775	410.88841
271.307	378.78094
271.838	433.8727
272.37	427.88791
272.902	468.88581
273.433	398.73083
273.965	440.90087
274.496	452.94888
275.027	404.85
275.558	404.82829
276.089	339.70933
276.62	451.97036
277.15	466.96489
277.681	456.82051
278.211	468.9608
278.741	420.7658
279.272	410.78095
279.802	430.90509
280.332	416.81935
280.861	457.91514
281.391	441.82592
281.921	460.92392
282.45	433.91081
282.98	456.99818
283.509	430.80034
284.038	400.76041
284.567	477.92029
285.096	444.8922
285.625	399.75316
286.153	424.82254
286.682	433.81534
287.21	395.79392
287.739	429.8384
288.267	378.76553
288.795	449.98928
289.323	421.80794
289.851	487.92831
290.378	445.81531
290.906	404.80695
291.433	412.85462
291.961	456.83567
292.488	420.86693
293.015	444.84983
293.542	443.92035
294.069	452.9066
294.596	489.98692
295.122	429.83761
295.649	476.84246
296.175	461.91247
296.702	462.91381
297.228	490.96556
297.754	460.82856
298.28	441.80512
298.806	420.82178
299.332	394.7031
299.857	454.81817
300.383	512.0441
300.908	427.8333
301.433	427.83766
301.958	576.03765
302.483	448.89899
303.008	510.00513
303.533	513.0734
304.058	532.98876
304.582	468.87325
305.107	426.89904
305.631	570.00479
306.155	455.83531
306.679	446.82188
307.203	498.89979
307.727	506.93809
308.251	523.01074
308.775	402.75454
309.298	531.97488
309.822	510.00796
310.345	596.06718
310.868	542.99183
311.391	555.05169
311.914	528.01823
312.437	576.99251
312.96	534.95452
313.482	546.97849
314.005	546.04595
314.527	544.0949
315.049	607.15884
315.571	514.84505
316.093	546.01923
316.615	512.93029
317.137	584.91974
317.659	571.03678
318.18	605.07692
318.702	596.00533
319.223	620.88959
319.744	564.91135
320.265	513.91625
320.786	599.06512
321.307	618.10609
321.828	601.96105
322.348	629.04014
322.869	585.97233
323.389	698.69934
323.909	647.02516
324.43	721.2026
324.95	681.04891
325.47	674.13047
325.989	576.93865
326.509	663.9529
327.029	645.95777
327.548	612.90951
328.067	669.06438
328.587	717.18673
329.106	701.021
329.625	774.36749
330.144	700.0274
330.662	658.97503
331.181	768.11656
331.7	672.0013
332.218	739.9617
332.736	722.04813
333.255	796.10829
333.773	759.09015
334.291	779.20746
334.808	777.00148
335.326	807.04676
335.844	781.03631
336.361	785.16998
336.879	733.98177
337.396	828.12286
337.913	830.04139
338.43	893.05216
338.947	887.13479
339.464	801.88449
339.981	824.04466
340.497	927.21896
341.014	870.12246
341.53	791.91763
342.046	938.17213
342.562	920.19712
343.078	930.07965
343.594	934.1037
344.11	962.10801
344.626	847.09969
345.141	910.97278
345.657	988.02788
346.172	961.09321
346.687	1003.01792
347.202	922.91801
347.717	1051.10357
348.232	1042.18409
348.747	980.96902
349.261	983.84116
349.776	1041.02389
350.29	989.04607
350.805	1099.15838
351.319	1133.02966
351.833	1033.89471
352.347	998.9488
352.861	1107.97077
353.374	1133.9811
353.888	1077.0267
354.401	1111.92752
354.915	1067.82265
355.428	1150.06477
355.941	1130.90787
356.454	1214.89911
356.967	1163.9597
357.48	1167.89974
357.993	1127.00658
358.505	1129.96475
359.018	1257.01071
359.53	1228.93783
360.042	1256.79435
360.554	1256.96381
361.066	1194.92724
361.578	1250.7217
362.09	1229.88505
362.602	1191.70008
363.113	1331.81007
363.625	1352.73042
364.136	1330.68576
364.647	1258.69847
365.158	1361.75712
365.669	1383.81525
366.18	1417.77021
366.691	1361.6189
367.201	1366.76156
367.712	1368.62767
368.222	1368.6228
368.733	1398.47641
369.243	1426.48601
369.753	1509.57362
370.263	1485.62221
370.773	1517.67096
371.282	1528.53112
371.792	1517.34608
372.301	1590.45181
372.811	1669.61348
373.32	1503.12453
373.829	1616.23576
374.338	1679.06088
374.847	1694.05055
375.356	1743.02965
375.865	1781.71528
376.373	1919.70061
376.882	2012.8804
377.39	2023.70001
377.898	1911.62854
378.407	2126.30617
378.915	2149.20476
379.423	2374.10938
379.93	2355.01766
380.438	2310.00307
380.946	2520.82313
381.453	2602.75893
381.96	2634.73121
382.468	2780.76882
382.975	3008.76599
383.482	3303.04093
383.989	3274.90179
384.495	3281.31932
385.002	3348.13693
385.509	3541.38533
386.015	3803.28836
386.521	3893.4808
387.028	4173.19266
387.534	4256.51379
388.04	4553.24515
388.546	4338.85179
389.051	4268.68077
389.557	4884.88395
390.063	5785.73821
390.568	5881.17776
391.073	5866.21166
391.578	6218.73601
392.084	6235.81977
392.589	5926.50389
393.093	6326.14012
393.598	7187.69942
394.103	8065.76847
394.607	9020.09893
395.112	9450.02687
395.616	10257.86995
396.12	11021.82049
396.624	11935.51086
397.128	13040.74761
397.632	15059.86502
398.136	16252.11116
398.639	15901.92001
399.143	16570.52643
399.646	19128.76021
400.15	20997.84028
400.653	19043.50194
401.156	13560.884
401.659	5169.95759
402.162	1054.15589
402.664	0
403.167	0
403.67	0
404.172	0
404.674	0
405.176	0
405.678	0
406.18	0
406.682	0
407.184	0
407.686	0
408.187	0
408.688	0
409.19	0
409.691	0
410.192	0
410.693	0
411.194	435.30976
411.694	4082.94878
412.195	8864.71461
412.696	12089.80453
413.196	12760.96929
413.696	12863.67595
414.196	13703.56671
414.696	17261.84252
415.196	21764.24417
415.696	29583.19008
416.196	36460.31858
416.695	26590.73386
417.195	20651.49926
417.694	19433.81032
418.194	18792.64134
418.693	16964.63918
419.192	16390.69114
419.691	16129.83449
420.19	15968.35659
420.688	15499.44817
421.187	15232.66873
421.685	14713.75504
422.184	13593.94211
422.682	11687.46348
423.18	9582.73433
423.678	8486.00414
424.176	7640.14997
424.674	7227.10574
425.172	7273.11086
425.669	6894.30732
426.167	6537.36995
426.664	5819.77121
427.161	5272.23538
427.659	4786.6693
428.156	4447.06365
428.652	4240.03696
429.149	4016.64215
429.646	4025.58866
430.143	3774.88201
430.639	3428.67642
431.135	3396.57425
431.632	3055.61869
432.128	2870.71486
432.624	2596.92913
433.12	2448.88949
433.616	2358.95398
434.111	2177.14189
434.607	2117.27861
435.103	2216.18297
435.598	2230.20718
436.093	2094.56639
436.588	2023.63782
437.083	1903.7943
437.578	1807.94567
438.073	1519.18921
438.568	1697.26694
439.062	1596.05384
439.557	1509.34872
440.051	1522.27439
440.546	1376.33103
441.04	1378.46611
441.534	1376.63258
442.028	1395.56578
442.522	1209.5665
443.015	1277.43014
443.509	1279.67255
444.002	1172.66441
444.496	1162.48843
444.989	1113.69212
445.482	1103.72529
445.975	1051.5419
446.468	1129.49658
446.961	1035.49721
447.454	1078.60929
447.947	995.65026
448.439	1075.7638
448.931	917.57578
449.424	982.82319
449.916	973.75504
450.408	932.6136
450.9	918.72891
451.392	859.77871
451.884	917.69052
452.375	797.72592
452.867	874.68371
453.358	725.58658
453.849	771.54945
454.341	779.63071
454.832	776.57841
455.323	731.71268
455.814	829.71527
456.304	737.67266
456.795	744.67389
457.285	792.69758
457.776	774.7333
458.266	723.72484
458.756	738.7752
459.247	591.63498
459.737	627.6706
460.226	617.60976
460.716	568.64406
461.206	633.71994
461.695	628.78226
462.185	637.71956
462.674	535.61417
463.163	583.62238
463.653	648.62076
464.142	525.65621
464.63	565.72971
465.119	486.588
465.608	506.61092
466.096	532.60129
466.585	596.72924
467.073	526.70092
467.561	468.6427
468.05	545.70094
468.538	533.75189
469.026	510.70091
469.513	503.57734
470.001	434.56969
470.489	458.6355
470.976	486.65748
471.463	398.62117
471.951	405.64262
472.438	420.60496
472.925	372.5408
473.412	405.64262
473.899	432.62265
474.385	361.58365
474.872	382.57087
475.359	359.57878
475.845	336.44362
476.331	330.47524
476.817	353.58493
477.303	340.53215
477.789	263.44325
478.275	237.41688
478.761	278.47301
479.247	262.41314
479.732	243.43327
480.218	313.58646
480.703	230.41785
481.188	332.49131
481.673	231.38295
482.158	192.29052
482.643	269.51074
483.128	203.33932
483.612	200.34875
484.097	198.36924
484.581	261.45189
485.066	192.35431
485.55	183.30018
486.034	158.25823
486.518	157.28166
487.002	162.30525
487.486	158.29962
487.969	159.30203
488.453	143.28676
488.936	133.23431
489.42	174.29956
489.903	188.37621
490.386	-291.41892
490.869	235.39606
491.352	206.40267
491.835	191.30858
492.318	135.24269
492.8	147.24059
493.283	160.32775
493.765	109.21858
494.247	208.39058
494.73	127.22702
495.212	170.33593
495.694	112.21301
496.175	42.08214
496.657	144.28001
497.139	117.16546
497.62	25.04939
498.102	92.18948
498.583	138.28691
499.064	67.12361
499.545	167.31088
500.026	121.22301
500.507	110.21226
500.988	131.27156
501.469	55.11631
501.949	180.36888
502.43	109.21483
502.91	143.24126
503.39	186.38773
503.87	128.24973
504.35	158.31163
504.83	157.28283
505.31	207.41202
505.79	181.35708
506.269	248.47374
506.749	192.35965
507.228	210.40387
507.707	241.43327
508.187	294.57251
508.666	199.40422
509.145	246.46832
509.623	289.54952
510.102	351.68368
510.581	368.71594
511.059	395.78769
511.538	475.97495
512.016	466.8721
512.494	573.06577
512.972	525.96726
513.45	577.9998
513.928	658.18995
514.406	608.09319
514.884	737.40819
515.361	808.39065
515.839	820.32
516.316	900.52227
516.793	920.66412
517.27	993.67149
517.747	976.76117
518.224	1124.71207
518.701	1102.60218
519.178	1060.78323
519.654	1190.85827
520.131	1157.9076
520.607	1170.94349
521.083	1202.75832
521.56	1131.77023
522.036	1165.64298
522.512	1203.97397
522.987	1050.6823
523.463	1063.71335
523.939	1094.83267
524.414	1045.64348
524.89	979.61838
525.365	904.43519
525.84	865.46092
526.315	887.52821
526.79	882.40574
527.265	809.3343
527.74	835.48357
528.215	764.32944
528.689	723.1769
529.164	693.11782
529.638	672.33436
530.112	613.10587
530.587	556.90552
531.061	551.03697
531.534	605.14105
532.008	545.02616
532.482	488.89118
532.956	444.91564
533.429	424.83511
533.903	486.853
534.376	429.76103
534.849	417.78405
535.322	439.83761
535.795	391.78551
536.268	363.71883
536.741	406.79853
537.213	404.76166
537.686	360.72274
538.158	323.59504
538.631	328.66792
539.103	278.5192
539.575	323.55598
540.047	318.5795
540.519	379.74841
540.991	326.66959
541.463	284.58043
541.934	326.61942
542.406	277.55521
542.877	311.58415
543.348	324.65557
543.82	342.7015
544.291	344.66861
544.762	287.57019
545.233	321.67256
545.703	281.51765
546.174	381.72588
546.645	294.58287
547.115	361.71554
547.585	364.68624
548.056	328.64937
548.526	399.75574
548.996	381.74847
549.466	454.89462
549.935	427.80523
550.405	481.82054
550.875	470.87872
551.344	498.94168
551.814	551.97755
552.283	571.94852
552.752	604.05987
553.221	612.98676
553.69	662.08488
554.159	661.21335
554.628	690.12146
555.096	757.41366
555.565	853.33265
556.033	901.50545
556.502	909.57288
556.97	970.48335
557.438	1018.68078
557.906	1096.78817
558.374	1189.8101
558.842	1241.96586
559.31	1338.89701
559.777	1404.1536
560.245	1516.1946
560.712	1662.25361
561.18	1827.17158
561.647	1981.28486
562.114	2066.38049
562.581	2236.79109
563.048	2426.54219
563.514	2587.82972
563.981	2790.51476
564.448	2984.38054
564.914	3362.49083
565.381	3526.31184
565.847	3838.33909
566.313	4142.14901
566.779	4377.82825
567.245	4678.877
567.711	4871.91
568.176	5090.38442
568.642	5559.83316
569.108	5934.55007
569.573	6447.21612
570.038	6834.75776
570.504	7230.10529
570.969	7723.81546
571.434	8105.8144
571.899	8571.60323
572.363	9008.38458
572.828	9563.73741
573.293	10248.92319
573.757	10675.58016
574.222	11006.22405
574.686	11558.00535
575.15	12151.92991
575.614	12572.97214
576.078	13080.32336
576.542	13487.8068
577.006	13786.43313
577.469	14219.68868
577.933	14472.72445
578.396	14782.56225
578.86	15256.41685
579.323	15395.70984
579.786	15500.59552
580.249	15728.0917
580.712	15803.4065
581.175	15739.58859
581.637	15895.51278
582.1	15858.0329
582.563	15752.25562
583.025	15837.98461
583.487	15727.26119
583.95	15556.3002
584.412	15649.58135
584.874	15455.87468
585.336	15197.676
585.797	14888.14828
586.259	14571.57293
586.721	14403.18768
587.182	14150.83426
587.643	13728.70017
588.105	13609.17221
588.566	13268.92087
589.027	12828.15126
589.488	12689.71883
589.949	12384.08295
590.41	11874.91064
590.87	11634.14946
591.331	11300.77312
591.791	11033.10012
592.252	10637.43018
592.712	10348.10017
593.172	9992.06798
593.632	9744.32855
594.092	9423.38663
594.552	9168.77815
595.011	8703.79083
595.471	8483.40068
595.931	8297.114
596.39	8059.95944
596.849	7800.63961
597.308	7668.351
597.768	7316.68895
598.227	7207.41759
598.685	6997.16935
599.144	6985.21948
599.603	6616.24675
600.062	6461.69493
600.52	6347.95013
600.978	6167.3085
601.437	5955.18417
601.895	5868.81442
602.353	5769.0803
602.811	5780.06461
603.269	5562.57377
603.727	5524.58867
604.184	5364.29132
604.642	5258.86366
605.099	5246.53616
605.557	5229.85686
606.014	5065.19464
606.471	4975.10387
606.928	4895.23164
607.385	4955.91536
607.842	4854.64072
608.299	4869.76367
608.755	4801.99106
609.212	4718.54345
609.668	4772.4666
610.125	4675.10212
610.581	4831.96853
611.037	4745.78224
611.493	4696.01247
611.949	4566.15828
612.405	4629.11665
612.861	4584.07602
613.316	4448.19675
613.772	4402.00124
614.227	4484.1104
614.683	4559.55311
615.138	4368.13134
615.593	4443.05681
616.048	4345.0546
616.503	4331.5211
616.958	4249.6663
617.412	4176.34173
617.867	4076.97566
618.321	4003.71698
618.776	4034.05566
619.23	3860.47942
619.684	3945.24264
620.138	3942.42468
620.592	3727.77746
621.046	3698.6058
621.5	3575.84998
621.954	3545.45004
622.407	3450.42314
622.861	3336.94433
623.314	3320.60016
623.768	3201.74937
624.221	3165.94538
624.674	2999.74144
625.127	3008.83189
625.58	3002.72931
626.033	2918.58687
626.485	2801.97395
626.938	2773.96886
627.39	2756.85421
627.843	2627.83119
628.295	2579.82889
628.747	2586.97068
629.199	2510.75155
629.651	2438.73861
630.103	2426.78094
630.555	2266.4284
631.006	2334.88652
631.458	2229.87829
631.909	2260.80102
632.361	2115.80122
632.812	2122.75859
633.263	2123.49627
633.714	2157.49053
634.165	1965.90692
634.616	1915.7962
635.067	1898.53727
635.518	1872.79439
635.968	1909.20065
636.419	1820.426
636.869	1773.72247
637.319	1751.59641
637.769	1631.39441
638.219	1741.72865
638.669	1655.63987
639.119	1660.73818
639.569	1594.63274
640.019	1613.51438
640.468	1547.34542
640.918	1564.61528
641.367	1500.32244
641.816	1493.30949
642.265	1440.36228
642.714	1456.38082
643.163	1367.27328
643.612	1338.3567
644.061	1303.98139
644.51	1395.27471
644.958	1340.1209
645.406	1340.36146
645.855	1308.40271
646.303	1335.29974
646.751	1228.09498
647.199	1270.14737
647.647	1274.18197
648.095	1230.12193
648.543	1253.88007
648.99	1195.18955
649.438	1241.21401
649.885	1210.3141
650.333	1192.69994
650.78	1209.24295
651.227	1163.20213
651.674	1164.0373
652.121	1112.13542
652.568	1097.10806
653.015	1141.28604
653.461	1060.00612
653.908	1136.06393
654.354	1038.99252
654.801	1053.96667
655.247	1091.87389
655.693	1030.19527
656.139	977.91258
656.585	958.88637
657.031	953.81201
657.477	932.63456
657.922	968.81252
658.368	980.9893
658.813	976.85626
659.259	859.73358
659.704	934.79174
660.149	882.71459
660.594	904.78741
661.039	880.67015
661.484	924.83807
661.929	859.6916
662.373	752.64668
662.818	822.74332
663.262	827.69334
663.707	816.77639
664.151	798.67621
664.595	738.54667
665.039	749.6246
665.483	743.65324
665.927	794.60629
666.371	709.42791
666.814	738.53646
667.258	666.38885
667.701	734.373
668.145	742.61726
668.588	658.43645
669.031	648.35008
669.474	634.36356
669.917	661.29448
670.36	653.44445
670.803	682.45874
671.245	632.18187
671.688	633.38444
672.13	582.17367
672.573	612.40449
673.015	611.31995
673.457	642.2409
673.899	568.25126
674.341	592.29167
674.783	512.12679
675.225	552.2383
675.666	499.10295
676.108	556.09597
676.549	578.24297
676.991	506.02483
677.432	526.95428
677.873	476.02067
678.314	468.03798
678.755	463.0475
679.196	427.91676
679.637	470.06876
680.078	475.03275
680.518	514.10467
680.959	465.03623
681.399	431.00143
681.839	479.08245
682.28	395.92121
682.72	381.82647
683.16	374.88441
683.6	459.97823
684.039	403.79244
684.479	359.83925
684.919	341.75011
685.358	425.01422
685.798	371.92506
686.237	382.87811
686.676	455.98905
687.115	375.83803
687.554	342.77738
687.993	323.68752
688.432	375.81484
688.871	330.71814
689.309	351.8009
689.748	370.73732
690.186	344.78762
690.625	328.73801
691.063	304.70331
691.501	366.86282
691.939	297.71498
692.377	267.63278
692.815	292.67502
693.253	343.79084
693.69	330.69676
694.128	260.6125
694.565	281.65024
695.003	283.6957
695.44	257.58857
695.877	289.65307
696.314	325.67341
696.751	349.76319
697.188	281.62618
697.625	345.7605
698.061	228.53587
698.498	315.73526
698.934	292.68092
699.371	244.56093
699.807	302.69036
700.243	249.58465
700.679	255.56425
701.115	298.67985
701.551	254.58415
701.987	281.6145
702.422	211.49273
702.858	264.61224
703.294	249.55189
703.729	218.52393
704.164	254.59627
704.599	253.5507
705.035	214.47126
705.47	221.52701
705.904	215.49239
706.339	251.57137
706.774	239.54779
707.209	220.49827
707.643	209.494
708.078	202.48438
708.512	166.41074
708.946	204.48209
709.38	214.49885
709.814	209.47115
710.248	188.4527
710.682	199.46653
711.116	135.32083
711.549	208.52743
711.983	188.42961
712.416	220.51142
712.85	208.50994
713.283	204.47573
713.716	216.53327
714.149	244.56922
714.582	189.42013
715.015	251.61363
715.448	193.47973
715.881	213.46009
716.313	198.45774
716.746	183.42601
717.178	146.34944
717.61	172.43166
718.043	165.40775
718.475	175.42004
718.907	232.5755
719.339	124.28142
719.77	160.37635
720.202	171.42784
720.634	144.34846
721.065	154.36309
721.497	169.41041
721.928	122.29911
722.359	114.27483
722.79	122.29189
723.221	214.52911
723.652	186.47383
724.083	128.28897
724.514	204.46204
724.945	128.30074
725.375	87.20325
725.806	152.37721
726.236	161.40892
726.666	135.3191
727.096	159.38729
727.526	163.40988
727.956	111.2532
728.386	180.43819
728.816	95.24086
729.246	115.27939
729.675	126.30926
730.105	157.3837
730.534	121.28346
730.964	157.39395
731.393	149.36835
731.822	177.44668
732.251	132.33366
732.68	185.43134
733.109	107.26404
733.537	143.34363
733.966	158.38909
734.395	130.30006
734.823	147.33098
735.251	127.30541
735.68	183.45289
736.108	170.42556
736.536	142.33389
736.964	116.26967
737.392	127.31695
737.82	123.29512
738.247	150.35736
738.675	184.43483
739.102	108.26978
739.53	107.27225
739.957	133.34031
740.384	160.39183
740.811	147.37018
741.238	166.40124
741.665	58.13617
742.092	162.38403
742.519	87.2161
742.945	127.30437
743.372	143.35196
743.798	107.27494
744.225	135.31996
744.651	96.24145
745.077	158.39052
745.503	157.38013
745.929	134.32047
746.355	174.42833
746.781	135.33313
747.207	88.20748
747.632	51.12562
748.058	146.36192
748.483	110.254
748.908	101.25134
749.334	82.20253
749.759	65.15483
750.184	65.15626
750.609	110.27049
751.033	187.43669
751.458	155.34599
751.883	151.37151
752.307	93.21991
752.732	52.13102
753.156	105.25948
753.58	159.3748
754.005	102.25912
754.429	96.22652
754.853	59.14741
755.277	144.33899
755.7	120.29704
756.124	105.26053
756.548	65.15548
756.971	113.27586
757.394	152.38804
757.818	107.27494
758.241	80.20373
758.664	107.26994
759.087	73.16443
759.51	85.21237
759.933	102.24571
760.356	130.33153
760.778	84.2074
761.201	105.25576
761.623	114.27659
762.046	167.39259
762.468	156.37194
762.89	149.3651
763.312	171.41278
763.734	94.22696
764.156	128.31475
764.578	124.28508
765	116.28261
765.421	77.19613
765.843	107.27991
766.264	148.35517
766.686	85.21421
767.107	89.21638
767.528	79.19994
767.949	81.20661
768.37	114.27929
768.791	132.31798
769.212	47.11904
769.632	94.21956
770.053	69.18235
770.473	117.28393
770.894	114.28487
771.314	166.39244
771.734	78.1829
772.154	82.21104
772.575	118.27323
772.994	62.1422
773.414	151.35968
773.834	102.25479
774.254	91.22315
774.673	134.32451
775.093	117.28839
775.512	93.22924
775.931	99.25074
776.351	97.24077
776.77	68.16709
777.189	95.22629
777.607	66.16927
778.026	134.33133
778.445	43.10848
778.864	118.30125
779.282	92.22162
779.701	92.23189
780.119	53.13476
780.537	49.12318
780.955	127.32108
781.373	61.15174
781.791	100.22474
782.209	141.32254
782.627	81.21341
783.045	128.29274
783.462	100.25485
783.88	90.23251
784.297	70.17663
784.715	87.22316
785.132	121.29132
785.549	73.18305
785.966	105.26319
786.383	85.20921
786.8	89.20702
787.217	85.20177
787.633	49.12304
788.05	115.27225
788.466	136.31828
788.883	60.15356
789.299	91.21909
789.715	119.28759
790.131	59.14741
790.547	78.19505
790.963	68.16931
791.379	88.22221
791.795	119.27024
792.21	85.19897
792.626	101.2391
793.041	84.20732
793.457	90.22221
793.872	56.1325
794.287	86.20513
794.702	84.20701
795.117	64.15947
795.532	82.20535
795.947	137.32671
796.362	132.31267
796.776	181.41669
797.191	106.25834
797.605	23.05462
798.02	84.20434
798.434	123.27218
798.848	72.17757
799.262	68.169
799.676	162.3895
800.09	93.22831
800.504	75.18228
800.918	78.18097
801.331	103.26881
801.745	85.1953
802.158	115.28555
802.572	142.34064
802.985	105.2528
803.398	104.24702
803.811	147.37336
804.224	112.27714
804.637	54.1293
805.05	125.28743
805.462	134.32597
805.875	63.16352
806.288	72.17384
806.7	76.19101
807.112	81.1879
807.525	96.23615
807.937	62.15364
808.349	96.23963
808.761	97.23777
809.173	83.20097
809.584	89.21954
809.996	66.16188
810.408	55.14231
810.819	114.26628
811.231	65.16807
811.642	102.24189
812.053	139.32651
812.464	196.45528
812.875	193.4827
813.286	144.36594
813.697	150.34609
814.108	95.23132
814.519	120.26537
814.929	117.29612
815.34	92.22246
815.75	82.20794
816.16	85.21144
816.571	69.17928
816.981	117.27419
817.391	99.23799
817.801	80.19839
818.211	110.26056
818.62	92.2207
819.03	95.23192
819.44	112.29045
819.849	86.21615
820.259	64.16402
820.668	56.13811
821.077	56.13943
821.486	146.3469
821.895	121.29638
822.304	76.20108
822.713	97.2283
823.122	42.10537
823.531	99.23355
823.939	66.16098
824.348	109.26322
824.756	94.23447
825.164	124.30907
825.573	78.19541
825.981	123.30218
826.389	125.31094
826.797	74.18519
827.205	68.15621
827.612	134.32682
828.02	78.1829
828.428	70.1782
828.835	123.32056
829.243	90.21376
829.65	93.23016
830.057	92.22238
830.464	94.22798
830.871	108.25681
831.278	107.25683
831.685	147.32311
832.092	106.25776
832.499	90.1962
832.905	112.28129
833.312	44.10095
833.718	110.27199
834.124	93.21163
834.531	75.18881
834.937	103.26263
835.343	109.26103
835.749	102.23684
836.155	76.19858
836.561	100.24445
836.966	100.24308
837.372	85.21559
837.777	65.16193
838.183	113.24911
838.588	93.22974
838.993	55.13422
839.399	84.20465
839.804	42.10278
840.209	75.1905
840.613	70.15571
841.018	103.25901
841.423	85.21719
841.828	69.17432
842.232	125.30629
842.637	75.17666
843.041	72.1842
843.445	90.22466
843.849	92.22656
844.253	111.26156
844.657	61.15362
845.061	104.23421
845.465	92.22104
845.869	75.17398
846.272	62.15099
846.676	96.23082
847.079	90.22766
847.483	89.22099
847.886	133.31948
848.289	47.12567
848.692	90.22677
849.095	82.19626
849.498	146.36457
849.901	128.28991
850.304	107.2536
850.707	111.28053
851.109	125.31275
851.512	69.16933
851.914	51.12871
852.316	50.1267
852.718	10.02603
853.121	91.22174
853.523	60.14031
853.925	58.15129
854.326	78.19435
854.728	84.21505
855.13	89.22829
855.531	90.21385
855.933	126.29881
856.334	50.12485
856.736	41.09224
857.137	56.13034
857.538	81.20281
857.939	67.16527
858.34	136.32674
858.741	98.2544
859.142	56.13465
859.542	75.19727
859.943	76.18826
860.343	35.08703
860.744	98.23742
861.144	94.22781
861.544	51.12274
861.945	77.19557
862.345	95.2308
862.745	104.2563
863.145	95.2256
863.544	108.27046
863.944	78.18362
864.344	73.18087
864.743	117.28722
865.143	77.1971
865.542	79.18253
865.941	59.14602
866.34	117.2772
866.74	91.24282
867.139	31.07461
867.537	81.20552
867.936	77.18468
868.335	126.31668
868.734	62.15828
869.132	116.26647
869.531	119.28454
869.929	88.1994
870.327	79.18861
870.726	94.23285
871.124	110.25451
871.522	85.21543
871.92	104.25432
872.318	103.24967
872.715	109.26729
873.113	62.15094
873.511	113.27864
873.908	21.05334
874.306	90.22245
874.703	80.19933
875.1	111.28123
875.497	68.16269
875.894	34.08364
876.291	113.27442
876.688	58.14953
877.085	86.20521
877.482	64.15999
877.878	89.21289
878.275	109.2743
878.671	123.27024
879.068	82.19701
879.464	91.21851
879.86	57.13478
880.256	125.30459
880.652	75.19009
881.048	106.26027
881.444	128.3005
881.84	105.26451
882.236	99.24699
882.631	117.28393
883.027	103.24723
883.422	96.2437
883.817	46.11578
884.213	98.24957
884.608	65.1591
885.003	78.18726
885.398	43.10786
885.793	100.24898
886.188	22.05502
886.582	123.31174
886.977	104.24454
887.371	126.31463
887.766	86.21265
888.16	96.23781
888.554	143.34793
888.949	117.29051
889.343	136.32724
889.737	41.10948
890.131	69.17264
890.525	118.29838
890.918	51.12843
891.312	125.29512
891.706	83.21669
892.099	119.29935
892.492	119.25331
892.886	102.24739
893.279	55.14009
893.672	35.0894
894.065	76.18957
894.458	113.2812
894.851	89.21671
895.244	79.20087
895.637	95.22707
896.029	107.25907
896.422	104.25176
896.814	85.21013
897.206	81.19191
897.599	110.26929
897.991	66.15923
898.383	73.17188
898.775	111.24767
899.167	30.07029
899.559	104.26092
899.951	99.23138
900.342	97.2448
900.734	19.04744
901.125	78.20381
901.517	93.22662
901.908	123.29107
902.299	36.0883
902.69	101.23614
903.082	93.22357
903.473	62.14822
903.863	72.1831
904.254	64.14826
904.645	89.21994
905.036	51.12353
905.426	119.26892
905.817	73.17848
906.207	40.09556
906.597	75.17467
906.987	99.25456
907.378	53.13404
907.768	77.20274
908.158	105.25356
908.547	62.1599
908.937	75.19171
909.327	106.25486
909.717	109.274
910.106	59.14156
910.495	91.22563
910.885	111.27823
911.274	74.18425
911.663	104.26157
912.052	99.24223
912.441	77.19495
912.83	95.21626
913.219	110.28506
913.608	84.20457
913.997	70.17492
914.385	76.18079
914.774	112.2697
915.162	72.17095
915.55	74.17833
915.939	68.17115
916.327	73.18153
916.715	91.23031
917.103	80.19592
917.491	117.28605
917.878	84.20534
918.266	89.22933
918.654	85.21589
919.041	35.09162
919.429	72.1693
919.816	119.29806
920.203	58.14051
920.591	61.15102
920.978	153.36766
921.365	77.20116
921.752	89.2107
922.139	69.1493
922.525	70.16754
922.912	91.22033
923.299	58.14399
923.685	49.12788
924.072	81.18574
924.458	13.03243
924.844	68.16777
925.231	84.19428
925.617	33.0842
926.003	100.25341
926.389	45.11365
926.774	100.25124
927.16	94.23166
927.546	23.059
927.931	116.28609
928.317	62.14254
928.702	113.2642
929.088	71.1673
929.473	101.25471
929.858	49.11851
930.243	77.18391
930.628	23.05625
931.013	67.16558
931.398	139.31412
931.783	116.30206
932.167	69.16814
932.552	53.13275
932.937	104.25564
933.321	86.21444
933.705	49.12357
934.09	153.37962
934.474	120.28128
934.858	40.10395
935.242	56.12967
935.626	45.11531
936.009	54.14355
936.393	66.16749
936.777	96.24388
937.16	80.20711
937.544	146.33766
937.927	77.19447
938.311	84.20381
938.694	68.17931
939.077	105.24877
939.46	106.25767
939.843	128.26255
940.226	57.14606
940.609	58.13297
940.991	63.16002
941.374	48.11738
941.757	86.21085
942.139	79.17642
942.522	108.25246
942.904	76.18183
943.286	82.2072
943.668	83.2138
944.05	105.25605
944.432	44.10872
944.814	105.25605
945.196	58.14115
945.578	24.05733
945.959	52.12184
946.341	123.29792
946.722	103.23931
947.104	67.15966
947.485	102.23497
947.866	60.15091
948.247	64.16109
948.628	109.26302
949.009	47.12043
949.39	117.28776
949.771	94.2168
950.152	92.22405
950.532	27.0667
950.913	89.21314
951.293	74.19913
951.674	88.21135
952.054	27.06719
952.434	81.19995
952.814	99.23337
953.194	83.21602
953.574	98.23929
953.954	86.20285
954.334	29.07256
954.714	47.11461
955.093	112.27225
955.473	16.04026
955.853	72.18569
956.232	75.20475
956.611	109.25854
956.99	82.20491
957.37	79.2003
957.749	77.18278
958.128	93.23252
958.506	27.07032
958.885	68.17109
959.264	30.0738
959.643	125.28018
960.021	61.15086
960.4	77.17359
960.778	108.26322
961.156	44.11043
961.535	104.23986
961.913	86.19985
962.291	61.1562
962.669	88.22141
963.047	69.1755
963.424	73.18555
963.802	57.13998
964.18	103.25817
964.557	100.22806
964.935	127.29646
965.312	49.12762
965.69	130.32085
966.067	51.12418
966.444	93.22738
966.821	78.20011
967.198	108.25918
967.575	58.14241
967.952	130.30162
968.329	88.21263
968.705	92.19554
969.082	56.14347
969.458	44.10567
969.835	99.2388
970.211	48.12323
970.587	67.1663
970.963	86.21925
971.339	45.1176
971.715	82.20357
972.091	76.18626
972.467	85.21067
972.843	87.21445
973.219	120.28436
973.594	63.16442
973.97	128.30015
974.345	73.17395
974.721	88.21159
975.096	66.15923
975.471	120.28084
975.846	74.17698
976.221	65.16463
976.596	121.28612
976.971	97.23742
977.346	90.2079
977.72	69.17519
978.095	63.16245
978.469	102.24105
978.844	126.31246
979.218	57.13645
979.593	117.27677
979.967	95.2295
980.341	108.24581
980.715	84.21036
981.089	72.17953
981.463	89.20277
981.837	42.10278
982.21	82.18965
982.584	66.15893
982.957	34.08515
983.331	106.24788
983.704	60.14716
984.078	73.17914
984.451	146.35835
984.824	38.09275
985.197	120.28765
985.57	61.15268
985.943	145.35187
986.316	93.2267
986.688	94.22481
987.061	94.21844
987.434	72.18691
987.806	71.17152
988.179	56.13198
988.551	133.33241
988.923	74.18143
989.295	115.28398
989.667	67.15953
990.039	78.19173
990.411	69.15822
990.783	132.29897
991.155	21.05073
991.527	152.36726
991.898	84.20801
992.27	52.12858
992.641	119.29483
993.012	131.3034
993.384	65.15459
993.755	60.15269
994.126	86.20544
994.497	40.09836
994.868	87.19837
995.239	88.21175
995.61	87.21744
995.98	77.18609
996.351	71.17514
996.722	35.08141
997.092	41.09725
997.462	43.10058
997.833	101.23707
998.203	115.2754
998.573	62.15403
998.943	74.17271
999.313	108.25592
999.683	44.10571
1000.053	99.22555
1000.423	114.27368
1000.792	74.19098
1001.162	67.16436
1001.531	58.14278
1001.901	77.19099
1002.27	91.2017
1002.639	55.14039
1003.009	66.15646
1003.378	75.1909
1003.747	88.20635
1004.116	52.12436
1004.485	77.18306
1004.853	124.30997
1005.222	116.28903
1005.591	97.22821
1005.959	33.07461
1006.328	56.12586
1006.696	28.06781
1007.064	60.15064
1007.433	116.2864
1007.801	85.20728
1008.169	37.09365
1008.537	127.27668
1008.905	81.18752
1009.273	84.20618
1009.64	73.17335
1010.008	114.26837
1010.375	162.38506
1010.743	128.29097
1011.11	70.16498
1011.478	78.19202
1011.845	88.20539
1012.212	80.17994
1012.579	99.24079
1012.946	111.26105
1013.313	134.31373
1013.68	91.2028
1014.047	78.18483
1014.414	63.1484
1014.78	35.08719
1015.147	118.28167
1015.513	102.24329
1015.88	84.21347
1016.246	123.29949
1016.612	100.22659
1016.978	108.26174
1017.344	82.20142
1017.71	102.24627
1018.076	111.25861
1018.442	122.30981
1018.808	91.22571
1019.174	43.10798
1019.539	175.39273
1019.905	80.18752
1020.27	80.19629
1020.636	110.26066
1021.001	76.181
1021.366	73.17449
1021.731	94.23981
1022.096	55.13856
1022.461	72.16963
1022.826	101.23762
1023.191	84.21904
1023.556	124.28633
1023.92	129.31246
1024.285	85.20604
1024.649	90.21886
1025.014	97.23813
1025.378	74.18519
1025.742	57.14133
1026.107	115.2566
1026.471	119.27396
1026.835	106.25998
1027.199	50.12031
1027.562	108.24809
1027.926	102.24692
1028.29	77.19384
1028.654	83.18963
1029.017	130.3147
1029.381	111.26196
1029.744	27.06911
1030.107	112.26171
1030.471	81.19272
1030.834	93.20965
1031.197	88.21038
1031.56	85.19912
1031.923	78.2006
1032.286	121.28013
1032.648	66.1573
1033.011	74.16897
1033.374	117.2713
1033.736	30.07911
1034.099	58.14109
1034.461	55.13876
1034.823	48.11951
1035.185	85.21252
1035.548	101.24335
1035.91	60.14339
1036.272	82.18535
1036.634	100.24226
1036.995	78.18226
1037.357	37.09019
1037.719	76.18384
1038.08	90.21195
1038.442	101.23725
1038.803	109.25864
1039.165	76.19081
1039.526	62.14941
1039.887	42.1006
1040.248	14.03471
1040.609	128.31161
1040.97	61.1487
1041.331	53.13404
1041.692	42.09814
1042.053	103.23191
1042.413	75.17384
1042.774	86.20764
1043.134	125.29317
1043.495	89.22204
1043.855	101.24252
1044.215	75.18521
1044.576	37.08864
1044.936	87.19789
1045.296	99.24474
1045.656	89.21671
1046.016	94.2249
1046.375	56.13562
1046.735	57.12897
1047.095	57.13317
1047.454	88.18483
1047.814	60.14388
1048.173	101.23883
1048.533	59.13486
1048.892	46.11043
1049.251	104.25838
1049.61	76.18613
1049.969	66.15501
1050.328	65.14041
1050.687	62.15043
1051.046	96.23161
1051.405	66.16361
1051.763	54.124
1052.122	44.10979
1052.48	68.1661
1052.839	56.13152
1053.197	55.12925
1053.555	136.30452
1053.914	89.21598
1054.272	85.20402
1054.63	39.09549
1054.988	58.13749
1055.345	28.06055
1055.703	25.06042
1056.061	74.18945
1056.419	61.15751
1056.776	87.20938
1057.134	79.18173
1057.491	111.27471
1057.848	110.27069
1058.206	82.19153
1058.563	92.2009
1058.92	93.2124
1059.277	41.10125
1059.634	102.2374
1059.991	99.23482
1060.348	59.13301
1060.704	28.06697
1061.061	101.23215
1061.418	68.16424
1061.774	77.18903
1062.131	48.12687
1062.487	60.13993
1062.843	76.18847
1063.199	57.14148
1063.555	56.12952
1063.911	93.23294
1064.267	141.28798
1064.623	55.13337
1064.979	121.28257
1065.335	119.28052
1065.691	69.16467
1066.046	87.1897
1066.402	89.20047
1066.757	61.15356
1067.112	72.17587
1067.468	72.16917
1067.823	89.21224
1068.178	99.23709
1068.533	87.2093
1068.888	86.20395
1069.243	67.16472
1069.598	62.1502
1069.952	34.07676
1070.307	69.17008
1070.662	41.09744
1071.016	96.21292
1071.371	55.1249
1071.725	83.19718
1072.079	44.10587
1072.434	54.13102
1072.788	48.11427
1073.142	102.24831
1073.496	54.12791
1073.85	111.25412
1074.203	62.14998
1074.557	84.22195
1074.911	119.28008
1075.265	55.12763
1075.618	118.28425
1075.971	89.20996
1076.325	60.1521
1076.678	43.0984
1077.031	84.18863
1077.385	124.26871
1077.738	40.09041
1078.091	46.10461
1078.444	103.23647
1078.796	74.18062
1079.149	80.19774
1079.502	59.13903
1079.855	48.1119
1080.207	86.2103
1080.56	69.17761
1080.912	93.22441
1081.264	95.22664
1081.617	76.18419
1081.969	55.13851
1082.321	111.26775
1082.673	51.11629
1083.025	67.15831
1083.377	-131.29193
1083.728	75.17398
1084.08	63.15677
1084.432	72.17279
1084.783	104.24091
1085.135	43.10782
1085.486	33.0757
1085.838	99.24142
1086.189	56.13567
1086.54	78.18512
1086.891	68.17128
1087.242	71.17204
1087.593	123.29512
1087.944	67.15098
1088.295	86.19391
1088.646	104.2493
1088.996	-18.04389
1089.347	63.15409
1089.698	40.09464
1090.048	51.13233
1090.398	71.16385
1090.749	65.15495
1091.099	27.06812
1091.449	117.28765
1091.799	101.25033
1092.149	49.1194
1092.499	75.18194
1092.849	65.16463
1093.199	83.20662
1093.548	61.14614
1093.898	51.12747
1094.248	74.18919
1094.597	22.05638
1094.947	86.22785
1095.296	64.15749
1095.645	86.2221
1095.994	83.19793
1096.343	98.24427
1096.692	29.07638
1097.041	36.0976
1097.39	74.18465
1097.739	106.27261
1098.088	53.1418
1098.437	46.12081
1098.785	111.29599
1099.134	112.29404
1099.482	94.25649
1099.83	101.26287
1100.179	64.16637
1100.527	57.15114
1100.875	53.13992
1101.223	73.19292
1101.571	47.12983
1101.919	29.07597
1102.267	57.16016
1102.615	4.01286
1102.962	23.07394
1103.31	5.01607
1103.658	6.01934
