Data from N2 R15 sample 5_Subt2__3__15-23-23-508.txt Node

Date: Tue Sep 02 15:23:23 PDT 2025
User: uwsun
Spectrometer: HDX01956
Trigger mode: 0
Integration Time (sec): 5.000000E-1
Scans to average: 1
Nonlinearity correction enabled: true
Boxcar width: 0
Storing dark spectrum: false
XAxis mode: Wavelengths
Number of Pixels in Spectrum: 2068
>>>>>Begin Spectral Data<<<<<
194.03	70.19436
194.578	81.25359
195.127	94.28942
195.676	77.23833
196.225	138.35762
196.773	115.3095
197.321	151.39515
197.87	210.49953
198.418	258.59975
198.966	204.48227
199.513	166.37598
200.061	203.46435
200.609	210.50854
201.156	179.35197
201.704	167.38247
202.251	200.48068
202.798	225.52748
203.345	280.61943
203.892	226.51269
204.438	254.54407
204.985	175.37315
205.532	225.53387
206.078	236.52036
206.624	209.4617
207.17	251.52078
207.716	201.43938
208.262	274.47629
208.808	196.43271
209.354	231.50282
209.899	307.6926
210.445	228.50672
210.99	230.495
211.535	313.64971
212.08	283.58429
212.625	255.57272
213.17	286.64695
213.715	220.43392
214.259	274.56838
214.804	274.60616
215.348	268.54624
215.892	281.59995
216.436	293.60412
216.98	304.59537
217.524	250.52832
218.068	273.61616
218.612	291.65517
219.155	248.52295
219.698	250.53457
220.242	259.58289
220.785	273.57048
221.328	211.47818
221.871	217.50216
222.414	253.56986
222.956	223.48376
223.499	226.45875
224.041	204.43395
224.583	255.49668
225.126	209.41717
225.668	175.38853
226.21	195.44659
226.751	181.35842
227.293	231.47736
227.835	214.47304
228.376	276.57201
228.918	253.57801
229.459	186.4211
230	198.42815
230.541	234.48671
231.082	183.40426
231.622	250.51813
232.163	213.4664
232.704	170.38457
233.244	212.47625
233.784	255.56425
234.324	188.37098
234.864	215.43951
235.404	203.43906
235.944	233.49876
236.484	242.54564
237.023	243.51432
237.563	212.44095
238.102	221.47083
238.641	240.54688
239.18	183.38631
239.719	223.50579
240.258	244.49121
240.797	219.47082
241.335	259.56831
241.874	259.43818
242.412	238.512
242.95	177.38184
243.488	255.51868
244.026	214.44213
244.564	279.50546
245.102	184.37247
245.64	239.51802
246.177	247.49324
246.715	326.68953
247.252	251.51473
247.789	348.56724
248.326	202.43418
248.863	202.39617
249.4	297.59419
249.936	289.51957
250.473	218.45403
251.009	236.4797
251.546	258.50193
252.082	280.53928
252.618	277.54134
253.154	238.50803
253.69	208.41874
254.226	215.45864
254.761	229.45709
255.297	243.46948
255.832	233.48992
256.367	208.43822
256.903	244.47266
257.438	264.54886
257.972	235.46361
258.507	172.35217
259.042	221.42554
259.576	239.45001
260.111	244.50026
260.645	296.55858
261.179	224.46279
261.713	217.4273
262.247	248.50525
262.781	268.48813
263.315	262.56411
263.849	210.46769
264.382	240.48828
264.915	258.52897
265.449	209.44836
265.982	275.54814
266.515	268.57331
267.048	267.49063
267.58	297.56528
268.113	240.4529
268.646	283.60972
269.178	271.52484
269.71	269.51199
270.243	240.48249
270.775	216.48742
271.307	273.57731
271.838	347.7132
272.37	227.49306
272.902	251.5003
273.433	251.47796
273.965	247.52782
274.496	267.5834
275.027	276.59706
275.558	245.52037
276.089	211.45402
276.62	323.7141
277.15	268.57951
277.681	289.54229
278.211	278.59522
278.741	220.42147
279.272	203.40613
279.802	288.62515
280.332	232.47674
280.861	233.49078
281.391	166.33203
281.921	271.56806
282.45	282.61291
282.98	279.63355
283.509	254.49344
284.038	261.51297
284.567	296.5959
285.096	317.65566
285.625	293.56744
286.153	217.44179
286.682	271.53061
287.21	203.42609
287.739	291.58732
288.267	245.51129
288.795	304.69018
289.323	175.3558
289.851	368.72174
290.378	260.49859
290.906	234.48584
291.433	276.58991
291.961	249.48015
292.488	281.59813
293.015	252.50475
293.542	226.49225
294.069	294.61122
294.596	321.67286
295.122	300.60367
295.649	282.52432
296.175	291.59892
296.702	315.64452
297.228	306.62908
297.754	255.48345
298.28	317.59689
298.806	255.51844
299.332	277.50926
299.857	279.52533
300.383	341.72362
300.908	255.51797
301.433	250.51094
301.958	302.58305
302.483	296.61483
303.008	291.60404
303.533	310.67892
304.058	367.71008
304.582	258.50648
305.107	249.54591
305.631	337.63112
306.155	264.50797
306.679	292.55888
307.203	253.48575
307.727	332.64221
308.251	271.55625
308.775	313.60038
309.298	249.48962
309.822	297.61732
310.345	330.63222
310.868	298.57892
311.391	301.60666
311.914	301.61308
312.437	333.611
312.96	310.58615
313.482	288.55042
314.005	317.64185
314.527	280.59872
315.049	348.70703
315.571	288.50329
316.093	366.71476
316.615	296.56736
317.137	377.62921
317.659	383.72969
318.18	351.66677
318.702	309.56267
319.223	379.58478
319.744	360.61522
320.265	344.64121
320.786	332.63206
321.307	343.65824
321.828	332.57163
322.348	357.63558
322.869	349.61779
323.389	408.45843
323.909	385.65672
324.43	401.72837
324.95	380.63788
325.47	355.64809
325.989	362.6253
326.509	366.57487
327.029	398.63532
327.548	363.58025
328.067	406.69535
328.587	361.65704
329.106	415.6585
329.625	443.85099
330.144	401.64322
330.662	387.62076
331.181	444.71082
331.7	384.62279
332.218	475.67337
332.736	488.76041
333.255	458.70738
333.773	382.61395
334.291	487.82005
334.808	466.665
335.326	504.72155
335.844	446.65853
336.361	391.65295
336.879	474.68922
337.396	473.71662
337.913	499.69894
338.43	440.60538
338.947	441.65134
339.464	450.56449
339.981	475.67551
340.497	541.80409
341.014	451.66571
341.53	503.64594
342.046	532.75978
342.562	513.76011
343.078	581.76224
343.594	465.6446
344.11	538.71837
344.626	563.80185
345.141	569.6904
345.657	586.70929
346.172	599.77479
346.687	529.64268
347.202	544.62758
347.717	597.74171
348.232	590.78533
348.747	506.60077
349.261	524.54605
349.776	641.73737
350.29	568.70235
350.805	615.7744
351.319	647.71699
351.833	552.58612
352.347	620.68616
352.861	619.66571
353.374	662.69947
353.888	640.72599
354.401	631.64864
354.915	578.55774
355.428	651.73656
355.941	602.61082
356.454	728.67732
356.967	683.69487
357.48	668.64672
357.993	667.72098
358.505	713.72857
359.018	703.72067
359.53	680.66636
360.042	728.60578
360.554	687.68161
361.066	706.68432
361.578	693.54379
362.09	650.61511
362.602	671.52477
363.113	681.58157
363.625	728.56017
364.136	773.55453
364.647	611.48633
365.158	756.58918
365.669	769.62934
366.18	758.5956
366.691	859.54195
367.201	777.60169
367.712	734.50243
368.222	770.51365
368.733	769.42509
369.243	862.45615
369.753	902.52892
370.263	845.54202
370.773	883.58653
371.282	808.47764
371.792	734.35171
372.301	751.4217
372.811	857.55248
373.32	859.23005
373.829	808.31599
374.338	1011.2209
374.847	879.22471
375.356	1024.21516
375.865	960.02488
376.373	1025.04689
376.882	1105.18433
377.39	1085.06917
377.898	996.00258
378.407	1083.83151
378.915	1216.70548
379.423	1239.72097
379.93	1217.64241
380.438	1241.59426
380.946	1288.48805
381.453	1359.40195
381.96	1356.33533
382.468	1312.29915
382.975	1642.12623
383.482	1725.09372
383.989	1603.14047
384.495	1745.13426
385.002	1651.34141
385.509	1903.33631
386.015	1851.79113
386.521	2153.94523
387.028	1998.18366
387.534	2198.7641
388.04	2272.71752
388.546	1960.19785
389.051	2082.22755
389.557	2376.70287
390.063	3094.41493
390.568	3010.33848
391.073	2927.90464
391.578	3157.69803
392.084	3042.41356
392.589	2681.92938
393.093	2772.40975
393.598	3188.24861
394.103	3734.70688
394.607	4258.54837
395.112	4644.31104
395.616	4787.6446
396.12	4986.39996
396.624	5599.01131
397.128	6094.43601
397.632	7231.79593
398.136	7615.21742
398.639	6207.69169
399.143	6369.2427
399.646	7565.85089
400.15	8667.36802
400.653	8543.82238
401.156	9173.4263
401.659	4069.92199
402.162	1051.0788
402.664	0
403.167	0
403.67	0
404.172	0
404.674	0
405.176	0
405.678	0
406.18	0
406.682	0
407.184	0
407.686	0
408.187	0
408.688	0
409.19	0
409.691	0
410.192	0
410.693	0
411.194	435.30976
411.694	4082.94878
412.195	8864.71461
412.696	12089.80453
413.196	12760.96929
413.696	12863.67595
414.196	13703.56671
414.696	17261.84252
415.196	21764.24417
415.696	28288.52076
416.196	23876.2916
416.695	16210.20845
417.195	11979.97246
417.694	11122.90691
418.194	10979.85108
418.693	9736.68024
419.192	9222.35766
419.691	9153.59685
420.19	9016.52194
420.688	9009.05341
421.187	9060.24875
421.685	8707.06706
422.184	8062.30572
422.682	7001.49421
423.18	5583.41191
423.678	4631.82758
424.176	4325.19527
424.674	4281.25744
425.172	4185.201
425.669	4045.69935
426.167	3858.38107
426.664	3587.50451
427.161	3082.63964
427.659	2769.54761
428.156	2547.51232
428.652	2351.96439
429.149	2226.95432
429.646	2159.95616
430.143	2196.88407
430.639	1924.0145
431.135	1803.14877
431.632	1717.19951
432.128	1628.35714
432.624	1402.58661
433.12	1312.51391
433.616	1269.55689
434.111	1125.70866
434.607	1099.80072
435.103	1137.75412
435.598	1174.7636
436.093	1139.9878
436.588	1055.03391
437.083	1032.10312
437.578	979.18161
438.073	751.26678
438.568	974.36448
439.062	818.20538
439.557	800.36553
440.051	711.30852
440.546	684.31744
441.04	618.36961
441.534	707.49394
442.028	642.43037
442.522	574.40052
443.015	625.34914
443.509	626.47958
444.002	551.44052
444.496	550.35042
444.989	535.45059
445.482	493.44048
445.975	512.36543
446.468	586.37084
446.961	514.34399
447.454	518.40135
447.947	429.37433
448.439	478.45177
448.931	429.34955
449.424	495.5126
449.916	452.44489
450.408	467.39121
450.9	366.37211
451.392	327.36858
451.884	450.42223
452.375	327.36154
452.867	467.44114
453.358	364.34745
453.849	372.32341
454.341	335.33137
454.832	302.28215
455.323	281.32715
455.814	364.38335
456.304	376.39921
456.795	295.32208
457.285	399.4157
457.776	351.39446
458.266	273.32567
458.756	312.38438
459.247	182.22752
459.737	277.33771
460.226	273.30932
460.716	225.28854
461.206	203.26877
461.695	271.38013
462.185	204.26874
462.674	289.3625
463.163	243.29475
463.653	233.26377
464.142	230.31735
464.63	243.34849
465.119	178.23939
465.608	184.24812
466.096	235.29577
466.585	195.27298
467.073	198.29278
467.561	175.26328
468.05	260.36715
468.538	199.31061
469.026	147.22596
469.513	166.21484
470.001	158.22678
470.489	160.2434
470.976	206.30443
471.463	140.23497
471.951	200.33605
472.438	176.27286
472.925	83.13151
473.412	173.29283
473.899	155.24277
474.385	117.20224
474.872	116.18735
475.359	127.21823
475.845	182.25274
476.331	165.24988
476.817	99.1756
477.303	111.18533
477.789	97.17088
478.275	68.12492
478.761	98.17486
479.247	108.17789
479.732	82.15231
480.218	36.07207
480.703	78.14719
481.188	72.11503
481.673	72.12462
482.158	-2.0032
482.643	78.155
483.128	25.04383
483.612	83.14921
484.097	111.21147
484.581	63.11483
485.066	9.01737
485.55	74.12508
486.034	42.07088
486.518	19.0353
487.002	-8.0157
487.486	-32.0635
487.969	3.00592
488.453	24.04945
488.936	-7.01278
489.42	63.11168
489.903	21.04365
490.386	-423.63429
490.869	51.09027
491.352	70.14125
491.835	18.03051
492.318	59.10814
492.8	3.00511
493.283	17.03595
493.765	-27.05585
494.247	59.11486
494.73	-31.05768
495.212	86.17329
495.694	6.01171
496.175	-48.09588
496.657	71.14046
497.139	99.1408
497.62	-37.07416
498.102	-8.01685
498.583	23.04904
499.064	82.15071
499.545	41.07872
500.026	34.06403
500.507	54.1056
500.988	111.23113
501.469	46.09747
501.949	126.26137
502.43	61.12159
502.91	161.2703
503.39	129.27232
503.87	136.26483
504.35	190.37193
504.83	215.38156
505.31	218.4328
505.79	230.44852
506.269	296.55885
506.749	304.5537
507.228	315.5905
507.707	358.62432
508.187	492.91304
508.666	515.97073
509.145	526.93342
509.623	579.02202
510.102	643.16425
510.581	753.32995
511.059	760.38602
511.538	913.68794
512.016	962.58098
512.494	1130.81724
512.972	1194.83657
513.45	1246.78426
513.928	1352.02347
514.406	1450.06191
514.884	1652.47778
515.361	1665.23661
515.839	1869.16574
516.316	1932.40183
516.793	2050.69239
517.27	2266.58305
517.747	2291.82829
518.224	2387.38866
518.701	2428.22064
519.178	2393.67239
519.654	2592.55191
520.131	2510.71227
520.607	2524.75537
521.083	2542.33808
521.56	2466.49432
522.036	2407.1855
522.512	2503.7403
522.987	2340.48126
523.463	2276.50196
523.939	2228.65025
524.414	2186.38551
524.89	2101.46231
525.365	2009.24386
525.84	1815.31286
526.315	1809.38504
526.79	1754.13432
527.265	1571.06564
527.74	1588.28891
528.215	1536.14639
528.689	1410.86949
529.164	1400.82415
529.638	1348.26166
530.112	1239.88673
530.587	1230.63473
531.061	1120.81937
531.534	1050.76826
532.008	1042.7272
532.482	972.55947
532.956	901.66654
533.429	889.55936
533.903	885.39166
534.376	842.33411
534.849	832.40465
535.322	698.24704
535.795	694.29548
536.268	637.17919
536.741	653.20827
537.213	671.18111
537.686	586.11353
538.158	594.01883
538.631	595.13644
539.103	494.87342
539.575	570.91689
540.047	518.89632
540.519	523.99791
540.991	515.01096
541.463	437.86213
541.934	447.82434
542.406	374.73281
542.877	411.753
543.348	436.85956
543.82	410.82806
544.291	417.7964
544.762	352.68873
545.233	381.78767
545.703	316.57702
546.174	350.67184
546.645	323.63603
547.115	328.65515
547.585	392.73395
548.056	311.61816
548.526	314.6071
548.996	394.77164
549.466	406.80906
549.935	304.59058
550.405	313.5581
550.875	375.71757
551.344	392.76046
551.814	428.78356
552.283	471.80391
552.752	360.67303
553.221	374.64362
553.69	418.73245
554.159	417.8134
554.628	456.79067
555.096	478.9552
555.565	443.77526
556.033	524.96663
556.502	507.9716
556.97	511.8882
557.438	557.03595
557.906	566.05926
558.374	615.09477
558.842	662.2216
559.31	702.19363
559.777	670.24936
560.245	827.45111
560.712	822.41932
561.18	872.39529
561.647	944.50751
562.114	1019.62918
562.581	1104.91798
563.048	1160.82793
563.514	1179.988
563.981	1337.98438
564.448	1418.9953
564.914	1543.21022
565.381	1617.19654
565.847	1847.43305
566.313	1940.45709
566.779	2135.40488
567.245	2166.56258
567.711	2306.70045
568.176	2431.4239
568.642	2541.96148
569.108	2851.87985
569.573	3015.66186
570.038	3190.03656
570.504	3279.28825
570.969	3550.86636
571.434	3722.98317
571.899	4018.32291
572.363	4215.95792
572.828	4514.84094
573.293	4652.75457
573.757	4930.60388
574.222	5186.27646
574.686	5359.21046
575.15	5664.42161
575.614	5819.16701
576.078	6014.22503
576.542	6390.0176
577.006	6417.96033
577.469	6735.45137
577.933	6752.93263
578.396	7030.27261
578.86	7073.2444
579.323	7162.30396
579.786	7313.04018
580.249	7281.18228
580.712	7306.48912
581.175	7377.5478
581.637	7454.34909
582.1	7345.13064
582.563	7417.11873
583.025	7186.40122
583.487	7143.76523
583.95	7025.87694
584.412	7108.86878
584.874	6803.34316
585.336	6795.22626
585.797	6639.81922
586.259	6571.22362
586.721	6283.19914
587.182	6230.23948
587.643	6003.11565
588.105	5788.40792
588.566	5728.83257
589.027	5505.6056
589.488	5320.40482
589.949	5188.84277
590.41	4968.76047
590.87	4982.60986
591.331	4890.34778
591.791	4660.81429
592.252	4488.84234
592.712	4443.21061
593.172	4208.93548
593.632	4098.87593
594.092	3989.00914
594.552	3845.89237
595.011	3643.30839
595.471	3575.22436
595.931	3515.2246
596.39	3438.63802
596.849	3267.54462
597.308	3236.21047
597.768	3106.07496
598.227	3063.78836
598.685	2997.56754
599.144	2834.65248
599.603	2834.72427
600.062	2673.16023
600.52	2622.42474
600.978	2592.72622
601.437	2558.56737
601.895	2479.22302
602.353	2431.42193
602.811	2371.40633
603.269	2363.73173
603.727	2216.68981
604.184	2220.42444
604.642	2186.77689
605.099	2077.51244
605.557	2038.69912
606.014	2069.21512
606.471	2021.7576
606.928	2019.16599
607.385	1993.61985
607.842	2052.4332
608.299	1977.48742
608.755	2009.6206
609.212	1956.28568
609.668	1886.22853
610.125	1981.63114
610.581	1949.58759
611.037	1851.39508
611.493	1847.5119
611.949	1761.49937
612.405	1772.91797
612.861	1798.4825
613.316	1674.42353
613.772	1737.34426
614.227	1695.40271
614.683	1782.16162
615.138	1655.351
615.593	1619.3077
616.048	1596.26105
616.503	1582.48471
616.958	1562.51755
617.412	1563.33647
617.867	1498.07275
618.321	1517.93195
618.776	1525.12206
619.23	1394.17819
619.684	1451.13493
620.138	1422.19676
620.592	1276.16453
621.046	1337.14809
621.5	1261.15444
621.954	1320.0308
622.407	1237.92153
622.861	1202.09533
623.314	1203.9456
623.768	1122.9043
624.221	1104.53716
624.674	1106.86595
625.127	1037.81878
625.58	1104.85854
626.033	1052.73139
626.485	978.79173
626.938	1083.93043
627.39	1028.81001
627.843	979.7383
628.295	960.71373
628.747	961.77332
629.199	890.59011
629.651	819.48896
630.103	900.62124
630.555	832.39857
631.006	850.60059
631.458	817.56131
631.909	815.52368
632.361	822.55687
632.812	725.38857
633.263	741.31484
633.714	750.32154
634.165	704.43961
634.616	705.41138
635.067	719.33594
635.518	716.44038
635.968	706.18041
636.419	664.22468
636.869	609.25493
637.319	615.22584
637.769	611.17665
638.219	632.30736
638.669	582.21131
639.119	610.29726
639.569	566.19938
640.019	623.24987
640.468	558.09476
640.918	575.22034
641.367	511.01962
641.816	597.16508
642.265	525.07964
642.714	542.1114
643.163	524.07249
643.612	489.05108
644.061	427.81946
644.51	484.9914
644.958	513.00418
645.406	464.00345
645.855	468.0397
646.303	509.06877
646.751	457.94224
647.199	466.96058
647.647	467.97367
648.095	460.95716
648.543	500.92095
648.99	416.91256
649.438	498.05782
649.885	447.01124
650.333	473.82778
650.78	406.90449
651.227	415.93008
651.674	438.91382
652.121	420.94186
652.568	412.92317
653.015	445.03362
653.461	437.95397
653.908	408.87918
654.354	388.86189
654.801	411.89001
655.247	402.81823
655.693	399.96771
656.139	375.83907
656.585	379.84837
657.031	326.71486
657.477	339.68765
657.922	368.79163
658.368	341.79343
658.813	404.87579
659.259	331.74948
659.704	387.84091
660.149	331.72842
660.594	356.79476
661.039	370.79012
661.484	386.86457
661.929	373.81911
662.373	321.76747
662.818	317.7469
663.262	306.70091
663.707	335.8043
664.151	330.76527
664.595	307.70532
665.039	338.79807
665.483	334.80692
665.927	285.64429
666.371	223.49982
666.814	297.67962
667.258	274.62182
667.701	367.74955
668.145	329.78058
668.588	272.64301
669.031	240.546
669.474	229.53602
669.917	321.67999
670.36	285.6796
670.803	265.61857
671.245	324.65287
671.688	297.69652
672.13	209.45822
672.573	249.61372
673.015	247.57588
673.457	285.59872
673.899	281.6572
674.341	227.53425
674.783	233.54367
675.225	208.50028
675.666	228.53336
676.108	204.43603
676.549	250.57633
676.991	222.47964
677.432	239.4653
677.873	155.35599
678.314	235.54747
678.755	224.53242
679.196	225.5041
679.637	259.61524
680.078	196.45222
680.518	244.55577
680.959	205.48229
681.399	164.40193
681.839	181.4346
682.28	177.43048
682.72	183.41372
683.16	178.43688
683.6	224.50176
684.039	200.41209
684.479	163.3957
684.919	141.32318
685.358	249.61552
685.798	197.50671
686.237	199.47418
686.676	198.45392
687.115	185.42964
687.554	216.50351
687.993	210.45799
688.432	157.35697
688.871	169.38036
689.309	184.43398
689.748	200.41432
690.186	195.45984
690.625	170.39489
691.063	185.43812
691.501	183.44674
691.939	135.33496
692.377	205.49166
692.815	129.30787
693.253	160.38236
693.69	138.30365
694.128	151.36326
694.565	141.33534
695.003	150.3778
695.44	147.34409
695.877	108.25305
696.314	199.42396
696.751	178.40332
697.188	153.34998
697.625	216.48901
698.061	94.2267
698.498	188.44978
698.934	134.32218
699.371	127.29879
699.807	166.38986
700.243	118.28415
700.679	148.3348
701.115	160.37518
701.551	143.33617
701.987	204.45338
702.422	105.2503
702.858	178.41983
703.294	118.26868
703.729	152.36989
704.164	132.31726
704.599	131.29254
705.035	128.28696
705.47	117.28456
705.904	143.33224
706.339	191.44007
706.774	144.33634
707.209	97.22519
707.643	149.35628
708.078	118.28748
708.512	95.23812
708.946	169.40209
709.38	141.33341
709.814	122.27992
710.248	129.3141
710.682	153.36192
711.116	90.21574
711.549	114.2939
711.983	104.24168
712.416	129.30527
712.85	126.3136
713.283	129.30527
713.716	173.43049
714.149	182.42977
714.582	128.28814
715.015	176.43628
715.448	145.36358
715.881	155.33897
716.313	139.32511
716.746	107.25282
717.178	126.30272
717.61	127.32131
718.043	135.33545
718.475	147.35471
718.907	153.38501
719.339	101.23029
719.77	86.20521
720.202	119.30053
720.634	100.24399
721.065	133.31486
721.497	128.31324
721.928	81.2001
722.359	80.1941
722.79	119.28487
723.221	112.2821
723.652	180.45903
724.083	96.21814
724.514	115.26518
724.945	86.20371
725.375	118.27399
725.806	108.27017
726.236	143.36436
726.666	115.27288
727.096	126.3088
727.526	107.27177
727.956	81.18589
728.386	115.28336
728.816	69.17575
729.246	49.12051
729.675	69.17114
730.105	125.30732
730.534	126.29488
730.964	153.38419
731.393	162.39953
731.822	122.31091
732.251	73.18647
732.68	75.17865
733.109	82.20328
733.537	78.18975
733.966	94.23421
734.395	84.19566
734.823	115.26063
735.251	133.31948
735.68	146.36377
736.108	92.23355
736.536	108.25563
736.964	100.23321
737.392	108.27046
737.82	112.26929
738.247	120.28754
738.675	149.35451
739.102	64.16114
739.53	89.22717
739.957	102.26241
740.384	145.35609
740.811	93.23646
741.238	87.21342
741.665	109.25335
742.092	132.31472
742.519	64.15964
742.945	96.23143
743.372	70.17461
743.798	100.25727
744.225	84.20105
744.651	87.21917
745.077	142.35201
745.503	96.23511
745.929	114.27368
746.355	130.32261
746.781	128.31626
747.207	67.15861
747.632	75.18392
748.058	96.24015
748.483	78.18126
748.908	88.2195
749.334	97.23892
749.759	68.16188
750.184	58.13961
750.609	138.33758
751.033	147.34598
751.458	142.31782
751.883	130.32108
752.307	80.18965
752.732	52.13102
753.156	58.14457
753.58	120.28502
754.005	115.29147
754.429	123.28871
754.853	85.21137
755.277	89.21175
755.7	109.27035
756.124	69.17233
756.548	75.17906
756.971	165.3989
757.394	78.20172
757.818	89.22941
758.241	97.24628
758.664	43.10972
759.087	40.09071
759.51	130.32214
759.933	73.17682
760.356	103.26393
760.778	61.15125
761.201	73.17888
761.623	139.33566
762.046	156.36752
762.468	132.31617
762.89	138.33884
763.312	158.38234
763.734	73.17695
764.156	131.32195
764.578	122.28059
765	106.25873
765.421	54.1381
765.843	130.33875
766.264	144.34583
766.686	96.24145
767.107	56.13699
767.528	70.17745
767.949	73.18647
768.37	84.20694
768.791	107.25898
769.212	49.12406
769.632	98.22872
770.053	69.18235
770.473	97.23628
770.894	121.30198
771.314	142.33727
771.734	94.21973
772.154	126.32178
772.575	89.20727
772.994	74.16931
773.414	123.29456
773.834	13.033
774.254	74.18203
774.673	82.20052
775.093	76.18875
775.512	40.09956
775.931	97.24576
776.351	69.17214
776.77	105.25624
777.189	78.1864
777.607	71.18193
778.026	92.22923
778.445	38.09595
778.864	91.23342
779.282	110.26408
779.701	100.25169
780.119	61.15488
780.537	35.0882
780.955	101.25653
781.373	65.16158
781.791	43.09777
782.209	89.20572
782.627	62.16388
783.045	82.18927
783.462	61.15653
783.88	58.15067
784.297	67.16915
784.715	70.18009
785.132	75.18214
785.549	98.24462
785.966	91.22867
786.383	96.2358
786.8	104.2412
787.217	98.23205
787.633	80.19977
788.05	157.36865
788.466	153.35687
788.883	53.13581
789.299	78.18825
789.715	61.14903
790.131	104.25772
790.547	75.18765
790.963	60.14961
791.379	66.16731
791.795	89.20334
792.21	127.29483
792.626	111.26227
793.041	84.20732
793.457	85.21006
793.872	93.21846
794.287	29.06993
794.702	107.26258
795.117	72.17914
795.532	38.09592
795.947	109.26133
796.362	83.19847
796.776	146.33847
797.191	71.17417
797.605	16.03805
798.02	58.14178
798.434	134.29583
798.848	59.14586
799.262	86.21304
799.676	101.24565
800.09	91.22348
800.504	93.22526
800.918	59.1374
801.331	82.21477
801.745	64.14767
802.158	56.14055
802.572	115.27729
802.985	112.26929
803.398	119.28182
803.811	127.32371
804.224	96.23824
804.637	52.12455
805.05	95.21976
805.462	70.17232
805.875	27.07051
806.288	73.17622
806.7	36.09113
807.112	87.20157
807.525	61.15102
807.937	47.11679
808.349	86.21506
808.761	55.13587
809.173	64.15552
809.584	102.251
809.996	69.16914
810.408	37.09604
810.819	57.13463
811.231	80.20632
811.642	53.12688
812.053	141.33108
812.464	162.37883
812.875	179.44882
813.286	119.30375
813.697	149.34385
814.108	105.25519
814.519	131.28903
814.929	89.22637
815.34	86.20819
815.75	60.15275
816.16	108.26753
816.571	94.24318
816.981	79.18652
817.391	62.15009
817.801	106.26162
818.211	103.24431
818.62	55.13287
819.03	97.23672
819.44	101.26242
819.849	70.17644
820.259	106.26966
820.668	35.08665
821.077	81.20076
821.486	78.18776
821.895	125.30595
822.304	55.14603
822.713	76.17961
823.122	62.15499
823.531	98.23124
823.939	108.26135
824.348	99.23952
824.756	67.16794
825.164	103.25771
825.573	54.13587
825.981	131.32135
826.389	119.29634
826.797	70.1753
827.205	90.20583
827.612	104.25508
828.02	38.0898
828.428	72.18323
828.835	59.15545
829.243	49.1173
829.65	43.10739
830.057	78.18904
830.464	58.14162
830.871	128.3032
831.278	73.17635
831.685	78.17393
832.092	104.25299
832.499	117.2536
832.905	92.23189
833.312	83.18895
833.718	129.31785
834.124	49.11249
834.531	127.31672
834.937	105.26764
835.343	88.21159
835.749	113.26181
836.155	50.13123
836.561	43.10623
836.966	110.26689
837.372	63.16041
837.777	68.16931
838.183	100.22105
838.588	50.12449
838.993	96.23248
839.399	22.05422
839.804	48.11734
840.209	89.22549
840.613	85.18848
841.018	88.22189
841.423	53.13619
841.828	71.17931
842.232	147.35873
842.637	71.16737
843.041	58.14875
843.445	65.16299
843.849	70.17308
844.253	93.21991
844.657	89.223
845.061	88.19883
845.465	87.20922
845.869	41.09575
846.272	61.14859
846.676	104.24968
847.079	81.20522
847.483	103.2551
847.886	126.30307
848.289	70.18645
848.692	86.21685
849.095	71.17029
849.498	164.40817
849.901	103.23448
850.304	113.26751
850.707	68.17317
851.109	115.28825
851.512	87.21279
851.914	75.18847
852.316	57.14426
852.718	9.02343
853.121	67.16399
853.523	83.19322
853.925	59.15387
854.326	83.20662
854.728	78.1999
855.13	35.09063
855.531	48.11497
855.933	64.15359
856.334	56.13969
856.736	62.13888
857.137	48.1119
857.538	53.13338
857.939	39.0967
858.34	89.21574
858.741	63.16453
859.142	89.21265
859.542	58.153
859.943	60.14907
860.343	46.11416
860.744	81.19686
861.144	61.14875
861.544	30.07249
861.945	99.25047
862.345	81.1973
862.745	95.23451
863.145	121.2859
863.544	62.15655
863.944	87.20445
864.344	86.21257
864.743	132.32315
865.143	96.24491
865.542	85.19616
865.941	84.20694
866.34	86.20497
866.74	86.22967
867.139	94.22352
867.537	80.20301
867.936	113.26917
868.335	73.18522
868.734	92.23363
869.132	58.13478
869.531	95.2282
869.929	42.09606
870.327	96.22845
870.726	78.19378
871.124	118.27258
871.522	72.18291
871.92	67.16497
872.318	105.25442
872.715	64.15825
873.113	54.13166
873.511	46.11482
873.908	14.0356
874.306	43.1072
874.703	82.20424
875.1	86.21886
875.497	53.12717
875.894	52.12749
876.291	125.30288
876.688	56.14442
877.085	80.19111
877.482	109.27026
877.878	78.18697
878.275	61.15483
878.671	107.23588
879.068	89.21354
879.464	68.164
879.86	64.15113
880.256	103.25201
880.652	61.15499
881.048	99.2434
881.444	99.23374
881.84	94.23727
882.236	50.12585
882.631	107.26015
883.027	61.14759
883.422	46.11781
883.817	53.13323
884.213	80.20438
884.608	38.09348
885.003	76.18253
885.398	29.07293
885.793	65.16287
886.188	35.08732
886.582	135.34143
886.977	109.25605
887.371	81.20391
887.766	50.12445
888.16	119.29354
888.554	104.25489
888.949	96.23928
889.343	123.29669
889.737	27.07226
890.131	60.15037
890.525	72.18356
890.918	100.24962
891.312	86.20458
891.706	76.19865
892.099	95.24001
892.492	89.19068
892.886	57.13941
893.279	92.2328
893.672	60.15259
894.065	61.15257
894.458	85.2126
894.851	72.17587
895.244	56.14297
895.637	103.24582
896.029	66.16104
896.422	57.13921
896.814	41.10218
897.206	42.10026
897.599	127.30993
897.991	59.14253
898.383	48.11357
898.775	69.1553
899.167	36.08425
899.559	83.20902
899.951	87.20381
900.342	75.19002
900.734	42.10442
901.125	87.22698
901.517	45.11064
901.908	133.31413
902.299	57.13926
902.69	95.22238
903.082	120.28699
903.473	82.19529
903.863	52.13271
904.254	94.21645
904.645	104.2563
905.036	72.17371
905.426	106.24018
905.817	84.20495
906.207	55.13101
906.597	94.21809
906.987	102.26214
907.378	70.1765
907.768	68.17931
908.158	59.14371
908.547	72.18536
908.937	102.25948
909.327	106.25486
909.717	139.34753
910.106	56.13444
910.495	112.27663
910.885	100.25115
911.274	63.15717
911.663	100.25169
912.052	86.21093
912.441	78.19745
912.83	88.20061
913.219	100.2596
913.608	91.22133
913.997	56.14029
914.385	103.24374
914.774	113.27206
915.162	100.23614
915.55	80.19257
915.939	41.10369
916.327	65.16187
916.715	90.22782
917.103	115.2798
917.491	100.24526
917.878	136.32923
918.266	83.21409
918.654	58.14802
919.041	65.16929
919.429	55.12975
919.816	97.24392
920.203	73.17635
920.591	77.19008
920.978	78.1901
921.365	94.24486
921.752	52.12398
922.139	85.18329
922.525	109.25894
922.912	82.19888
923.299	79.19537
923.685	61.15887
924.072	101.23067
924.458	46.11408
924.844	64.15802
925.231	72.16692
925.617	51.12972
926.003	93.23596
926.389	22.05579
926.774	103.25864
927.16	99.24376
927.546	50.12765
927.931	101.24978
928.317	97.22144
928.702	72.16969
929.088	61.14402
929.473	69.17501
929.858	22.05348
930.243	81.19331
930.628	89.21501
931.013	53.13131
931.398	99.22555
931.783	63.16554
932.167	61.14886
932.552	110.27268
932.937	89.21938
933.321	24.06052
933.705	93.23269
934.09	119.2971
934.474	99.23301
934.858	72.18607
935.242	57.13196
935.626	65.16597
936.009	102.26897
936.393	42.10704
936.777	66.16856
937.16	77.19944
937.544	88.20587
937.927	69.17451
938.311	102.24664
938.694	97.25453
939.077	83.19748
939.46	100.24336
939.843	47.09817
940.226	68.17391
940.609	87.19829
940.991	80.20258
941.374	39.09553
941.757	58.14294
942.139	58.13008
942.522	100.23413
942.904	98.23348
943.286	92.23206
943.668	81.20872
944.05	78.19117
944.432	87.21326
944.814	86.21046
945.196	24.05878
945.578	45.10707
945.959	74.17264
946.341	124.30029
946.722	90.20964
947.104	87.20652
947.485	76.17598
947.866	97.24235
948.247	85.21313
948.628	47.11474
949.009	66.16856
949.39	61.15158
949.771	91.21001
950.152	77.18805
950.532	55.13517
950.913	80.19191
951.293	94.25211
951.674	99.23727
952.054	77.18987
952.434	66.16337
952.814	102.2403
953.194	85.22115
953.574	104.25366
953.954	88.20748
954.334	85.21052
954.714	6.01474
955.093	129.31257
955.473	39.09772
955.853	87.22379
956.232	94.25583
956.611	113.26782
956.99	52.13065
957.37	54.13752
957.749	105.2479
958.128	45.11349
958.506	75.19373
958.885	48.1212
959.264	37.0909
959.643	80.18098
960.021	68.16795
960.4	96.21558
960.778	131.3179
961.156	56.14024
961.535	73.16941
961.913	83.19299
962.291	65.16632
962.669	35.0889
963.047	92.23305
963.424	46.11748
963.802	93.22687
964.18	125.31207
964.557	51.11746
964.935	138.32144
965.312	69.17909
965.69	114.28219
966.067	96.23178
966.444	96.23458
966.821	73.18745
967.198	98.23563
967.575	123.29837
967.952	90.21047
968.329	75.18166
968.705	91.19345
969.082	7.01809
969.458	-2.00485
969.835	104.25063
970.211	72.18407
970.587	106.26123
970.963	97.24681
971.339	60.1564
971.715	73.18153
972.091	30.07415
972.467	106.26171
972.843	84.20717
973.219	141.33276
973.594	55.14374
973.97	97.22884
974.345	62.14805
974.721	90.21631
975.096	91.21851
975.471	60.14207
975.846	73.17462
976.221	54.13704
976.596	104.24673
976.971	100.24463
977.346	98.22602
977.72	78.19773
978.095	68.17519
978.469	83.19687
978.844	112.27845
979.218	48.1151
979.593	98.23267
979.967	78.18904
980.341	45.10373
980.715	117.29126
981.089	82.20409
981.463	78.1781
981.837	60.14634
982.21	108.24849
982.584	70.16844
982.957	41.10255
983.331	77.18109
983.704	77.18826
984.078	75.18398
984.451	115.28388
984.824	67.16265
985.197	68.16462
985.57	90.22409
985.943	97.23751
986.316	122.29578
986.688	44.10624
987.061	110.25481
987.434	94.2431
987.806	101.24261
988.179	87.20381
988.551	96.24154
988.923	68.1669
989.295	87.21595
989.667	29.06956
990.039	85.20867
990.411	41.09454
990.783	120.27246
991.155	-8.01943
991.527	116.28219
991.898	39.09737
992.27	60.14814
992.641	88.21926
993.012	119.27626
993.384	68.16164
993.755	85.21536
994.126	49.11788
994.497	66.16152
994.868	59.13529
995.239	58.14035
995.61	61.15318
995.98	51.12386
996.351	41.10169
996.722	59.13659
997.092	88.20684
997.462	24.05634
997.833	103.24167
998.203	91.21892
998.573	77.19078
998.943	48.1126
999.313	55.13166
999.683	58.13898
1000.053	70.16042
1000.423	90.21705
1000.792	98.25186
1001.162	53.13035
1001.531	62.15252
1001.901	85.21052
1002.27	109.24069
1002.639	81.20581
1003.009	48.11418
1003.378	68.1733
1003.747	123.28645
1004.116	31.07444
1004.485	55.13131
1004.853	90.22636
1005.222	110.27438
1005.591	111.26044
1005.959	57.12824
1006.328	66.14803
1006.696	74.17766
1007.064	90.22474
1007.433	99.24519
1007.801	99.24079
1008.169	121.30165
1008.537	120.26182
1008.905	34.07945
1009.273	81.19892
1009.64	49.1169
1010.008	84.1989
1010.375	141.3365
1010.743	145.32848
1011.11	71.1673
1011.478	63.15552
1011.845	60.14081
1012.212	74.16665
1012.579	86.20968
1012.946	107.25184
1013.313	129.30232
1013.68	92.20498
1014.047	19.04554
1014.414	83.19474
1014.78	71.17572
1015.147	114.27233
1015.513	60.14426
1015.88	130.32767
1016.246	73.17941
1016.612	104.23546
1016.978	42.10305
1017.344	90.22074
1017.71	86.20827
1018.076	57.13421
1018.442	82.20971
1018.808	71.17675
1019.174	68.16999
1019.539	146.3296
1019.905	59.13887
1020.27	51.1258
1020.636	88.20942
1021.001	53.12678
1021.366	86.20505
1021.731	79.20207
1022.096	33.08346
1022.461	64.15101
1022.826	76.17968
1023.191	63.16487
1023.556	112.25924
1023.92	86.20999
1024.285	134.32182
1024.649	115.27834
1025.014	96.23572
1025.378	47.11819
1025.742	106.26046
1026.107	115.2566
1026.471	118.27172
1026.835	54.13372
1027.199	14.03392
1027.562	66.15289
1027.926	112.27062
1028.29	106.26545
1028.654	128.28979
1029.017	112.27205
1029.381	67.15947
1029.744	43.10976
1030.107	102.23881
1030.471	96.22775
1030.834	70.15855
1031.197	121.28745
1031.56	79.18529
1031.923	66.1701
1032.286	119.2756
1032.648	115.27151
1033.011	88.20037
1033.374	92.21438
1033.736	27.07123
1034.099	72.17469
1034.461	59.14874
1034.823	78.19315
1035.185	85.21252
1035.548	70.16965
1035.91	88.20917
1036.272	104.23402
1036.634	77.18735
1036.995	54.12678
1037.357	37.09019
1037.719	61.14798
1038.08	78.18412
1038.442	53.12567
1038.803	77.18384
1039.165	46.11611
1039.526	82.19686
1039.887	90.2136
1040.248	55.13532
1040.609	102.24952
1040.97	98.23724
1041.331	69.17401
1041.692	59.1374
1042.053	103.23191
1042.413	108.24869
1042.774	81.19575
1043.134	132.30916
1043.495	98.24409
1043.855	112.26837
1044.215	84.20709
1044.576	30.07197
1044.936	94.21351
1045.296	113.27864
1045.656	85.20712
1046.016	102.24366
1046.375	63.15237
1046.735	79.17795
1047.095	105.24299
1047.454	120.25026
1047.814	69.16518
1048.173	103.24346
1048.533	77.17536
1048.892	73.17435
1049.251	115.28513
1049.61	59.14495
1049.969	82.19198
1050.328	129.27483
1050.687	67.16241
1051.046	67.16253
1051.405	81.20025
1051.763	90.20517
1052.122	53.13203
1052.48	56.1371
1052.839	58.13617
1053.197	62.1455
1053.555	136.30452
1053.914	96.23266
1054.272	73.17562
1054.63	47.11491
1054.988	55.13046
1055.345	51.10974
1055.703	97.23123
1056.061	74.18945
1056.419	64.16517
1056.776	115.2753
1057.134	21.04887
1057.491	49.12265
1057.848	86.21257
1058.206	90.20989
1058.563	71.15573
1058.92	103.23476
1059.277	124.30153
1059.634	83.19391
1059.991	111.26268
1060.348	55.12409
1060.704	40.09545
1061.061	88.2028
1061.418	48.11637
1061.774	68.16721
1062.131	79.20772
1062.487	88.20409
1062.843	56.13938
1063.199	99.24385
1063.555	77.17734
1063.911	95.23787
1064.267	135.2761
1064.623	92.22154
1064.979	154.3573
1065.335	112.26438
1065.691	86.20458
1066.046	72.15749
1066.402	57.12923
1066.757	108.26958
1067.112	116.28102
1067.468	13.0309
1067.823	76.18169
1068.178	88.21118
1068.533	115.27519
1068.888	99.23419
1069.243	98.23956
1069.598	48.11659
1069.952	52.11696
1070.307	63.15546
1070.662	66.1561
1071.016	47.1053
1071.371	107.24043
1071.725	75.17845
1072.079	73.17469
1072.434	60.14541
1072.788	100.23568
1073.142	94.22918
1073.496	68.16064
1073.85	93.21368
1074.203	104.24958
1074.557	52.13814
1074.911	138.3236
1075.265	96.22097
1075.618	74.17975
1075.971	54.12826
1076.325	78.1971
1076.678	87.19733
1077.031	47.10634
1077.385	117.25392
1077.738	68.15283
1078.091	11.02519
1078.444	107.24545
1078.796	75.18303
1079.149	66.16355
1079.502	54.12737
1079.855	90.20807
1080.207	60.14743
1080.56	52.13425
1080.912	94.22678
1081.264	68.16306
1081.617	39.09518
1081.969	27.06834
1082.321	91.22033
1082.673	29.06642
1083.025	65.15364
1083.377	104.22046
1083.728	81.18767
1084.08	38.09499
1084.432	45.10855
1084.783	133.30632
1085.135	76.18943
1085.486	42.09617
1085.838	70.17162
1086.189	84.20243
1086.54	91.21543
1086.891	81.20354
1087.242	62.15049
1087.593	87.21017
1087.944	87.19525
1088.295	84.18948
1088.646	81.19501
1088.996	31.07489
1089.347	78.19024
1089.698	11.02617
1090.048	98.25221
1090.398	54.12504
1090.749	85.20185
1091.099	24.06058
1091.449	67.16624
1091.799	81.20149
1092.149	-6.01477
1092.499	103.24854
1092.849	65.16463
1093.199	78.19435
1093.548	88.20974
1093.898	74.18418
1094.248	60.15377
1094.597	20.05128
1094.947	52.13855
1095.296	95.23244
1095.645	74.19151
1095.994	96.22837
1096.343	71.17784
1096.692	48.12602
1097.041	42.11376
1097.39	82.20432
1097.739	71.18371
1098.088	83.22096
1098.437	27.07114
1098.785	61.16401
1099.134	91.23976
1099.482	39.10735
1099.83	80.20896
1100.179	61.15865
1100.527	78.2061
1100.875	33.08742
1101.223	46.12212
1101.571	57.1572
1101.919	12.03153
1102.267	46.12947
1102.615	0
1102.962	14.04506
1103.31	3.00964
1103.658	17.05472
