Data from N2 R15 sample 8_Subt2__1__15-24-23-507.txt Node

Date: Tue Sep 02 15:24:23 PDT 2025
User: uwsun
Spectrometer: HDX01956
Trigger mode: 0
Integration Time (sec): 5.000000E-1
Scans to average: 1
Nonlinearity correction enabled: true
Boxcar width: 0
Storing dark spectrum: false
XAxis mode: Wavelengths
Number of Pixels in Spectrum: 2068
>>>>>Begin Spectral Data<<<<<
194.03	105.28994
194.578	101.31541
195.127	109.33494
195.676	105.32383
196.225	146.37783
196.773	160.42742
197.321	211.54649
197.87	314.73192
198.418	247.57543
198.966	275.64115
199.513	214.47995
200.061	217.49498
200.609	292.69615
201.156	241.46696
201.704	252.56726
202.251	252.59965
202.798	276.64057
203.345	304.66915
203.892	284.63666
204.438	316.66779
204.985	264.55204
205.532	249.58807
206.078	313.67898
206.624	311.67234
207.17	275.56752
207.716	247.53467
208.262	385.64964
208.808	282.61135
209.354	259.56041
209.899	358.79923
210.445	271.59689
210.99	236.50726
211.535	311.64584
212.08	305.6266
212.625	310.68837
213.17	335.7502
213.715	214.42268
214.259	337.68922
214.804	329.71946
215.348	308.62205
215.892	270.57784
216.436	302.62142
216.98	361.69747
217.524	284.5957
218.068	283.63742
218.612	315.70571
219.155	301.62731
219.698	241.51634
220.242	321.71323
220.785	303.62895
221.328	285.63615
221.871	296.6742
222.414	293.65454
222.956	227.49201
223.499	243.49134
224.041	296.61703
224.583	332.63482
225.126	261.51466
225.668	204.45018
226.21	317.70815
226.751	208.40928
227.293	230.4754
227.835	286.62266
228.376	323.66238
228.918	284.64478
229.459	245.548
230	258.55072
230.541	336.68296
231.082	277.59987
231.622	263.54349
232.163	237.51632
232.704	226.5054
233.244	219.49126
233.784	281.6184
234.324	246.47881
234.864	261.52798
235.404	267.56956
235.944	311.65449
236.484	285.63693
237.023	244.51632
237.563	208.43301
238.102	260.54921
238.641	263.5965
239.18	186.39239
239.719	303.67604
240.258	286.5702
240.797	310.65339
241.335	302.65665
241.874	328.54455
242.412	306.64864
242.95	248.52685
243.488	256.52059
244.026	270.55082
244.564	308.55387
245.102	275.54508
245.64	294.62974
246.177	276.54744
246.715	315.66787
247.252	254.52053
247.789	345.56282
248.326	229.48935
248.863	254.49203
249.4	333.66066
249.936	312.55761
250.473	292.59813
251.009	301.60275
251.546	264.51287
252.082	287.55183
252.618	264.51752
253.154	288.60809
253.69	305.6003
254.226	241.5112
254.761	293.57614
255.297	262.50388
255.832	274.57092
256.367	268.55717
256.903	315.59984
257.438	305.6283
257.972	274.5356
258.507	208.4224
259.042	294.55617
259.576	279.52017
260.111	257.52537
260.645	336.62785
261.179	296.60166
261.713	245.47925
262.247	278.5625
262.781	338.60471
263.315	316.67247
263.849	304.66381
264.382	325.6484
264.915	291.59217
265.449	247.52553
265.982	335.65841
266.515	297.63136
267.048	299.54501
267.58	375.70021
268.113	300.5578
268.646	276.59553
269.178	220.43127
269.71	341.63767
270.243	317.62597
270.775	290.6445
271.307	350.72764
271.838	318.65788
272.37	333.70695
272.902	332.64929
273.433	248.47259
273.965	340.71189
274.496	294.63872
275.027	332.70959
275.558	285.60004
276.089	225.48268
276.62	281.6267
277.15	308.6603
277.681	328.60956
278.211	349.73575
278.741	245.46653
279.272	280.55018
279.802	282.61291
280.332	355.70924
280.861	317.65537
281.391	262.51238
281.921	312.64807
282.45	363.77534
282.98	288.6528
283.509	308.59064
284.038	317.61481
284.567	330.65914
285.096	326.67291
285.625	284.5512
286.153	274.55059
286.682	312.60496
287.21	294.60468
287.739	294.59296
288.267	306.62993
288.795	363.81423
289.323	259.51649
289.851	334.66032
290.378	311.58905
290.906	304.6213
291.433	353.74189
291.961	339.63957
292.488	302.63989
293.015	305.60341
293.542	290.62305
294.069	349.71667
294.596	386.79747
295.122	311.62422
295.649	341.62473
296.175	377.76088
296.702	306.62738
297.228	332.67853
297.754	304.56945
298.28	364.67748
298.806	328.65576
299.332	325.59031
299.857	350.64753
300.383	365.77049
300.908	262.53134
301.433	302.60994
301.958	418.78458
302.483	325.6707
303.008	364.74325
303.533	335.72979
304.058	341.66388
304.582	330.63681
305.107	307.66483
305.631	377.69906
306.155	374.70059
306.679	365.68627
307.203	281.53587
307.727	317.61539
308.251	320.64955
308.775	332.6339
309.298	275.53743
309.822	400.81231
310.345	377.71407
310.868	408.77185
311.391	393.77533
311.914	400.79637
312.437	412.74094
312.96	347.65017
313.482	372.6965
314.005	390.77646
314.527	393.81976
315.049	440.87519
315.571	439.73677
316.093	415.80104
316.615	391.73226
317.137	402.66635
317.659	460.86002
318.18	437.81277
318.702	403.71638
319.223	478.71619
319.744	425.71365
320.265	441.80227
320.786	416.77582
321.307	460.85789
321.828	476.78821
322.348	430.75111
322.869	458.78782
323.389	482.52642
323.909	503.83087
324.43	558.97328
324.95	499.81056
325.47	494.87024
325.989	497.82778
326.509	468.71349
327.029	507.78429
327.548	476.73651
328.067	540.89179
328.587	532.92643
329.106	505.78073
329.625	566.05351
330.144	516.8008
330.662	459.72125
331.181	528.8252
331.7	516.80596
332.218	568.78178
332.736	546.8365
333.255	532.80394
333.773	522.80585
334.291	623.00915
334.808	550.76433
335.326	633.87002
335.844	545.78058
336.361	550.87866
336.879	579.81481
337.396	574.84363
337.913	601.8147
338.43	623.80701
338.947	604.84817
339.464	563.67868
339.981	595.8145
340.497	647.93102
341.014	571.81224
341.53	614.75885
342.046	615.85567
342.562	664.93915
343.078	640.82316
343.594	690.88828
344.11	686.87163
344.626	663.91491
345.141	756.85692
345.657	774.87477
346.172	722.89535
346.687	677.77953
347.202	670.73713
347.717	726.86169
348.232	786.9792
348.747	750.81278
349.261	680.66466
349.776	804.86961
350.29	703.82848
350.805	807.94957
351.319	791.82889
351.833	689.6923
352.347	664.72254
352.861	760.77274
353.374	878.84956
353.888	750.81598
354.401	815.7762
354.915	771.68366
355.428	848.88943
355.941	802.74807
356.454	869.75938
356.967	818.78691
357.48	884.77878
357.993	805.82391
358.505	780.7755
359.018	874.83474
359.53	829.76218
360.042	903.68984
360.554	913.82222
361.066	872.78668
361.578	970.65862
362.09	886.75457
362.602	843.60346
363.113	901.69186
363.625	879.6255
364.136	990.62986
364.647	809.58196
365.158	994.68452
365.669	1015.73453
366.18	1007.69562
366.691	1014.58263
367.201	1005.69109
367.712	877.55352
368.222	988.57988
368.733	954.46495
369.243	1040.48583
369.753	1150.57363
370.263	1057.59665
370.773	1081.63977
371.282	1102.5367
371.792	1010.3891
372.301	1126.48522
372.811	1163.62166
373.32	1102.21375
373.829	1113.32536
374.338	1220.19201
374.847	1226.18711
375.356	1206.18941
375.865	1193.96041
376.373	1354.94978
376.882	1381.12482
377.39	1448.95958
377.898	1297.90811
378.407	1454.66819
378.915	1500.56495
379.423	1706.48472
379.93	1716.3762
380.438	1565.42015
380.946	1790.20539
381.453	1756.17729
381.96	1801.08935
382.468	1768.06534
382.975	2230.87997
383.482	2252.93352
383.989	2327.877
384.495	2199.0457
385.002	2314.40376
385.509	2472.46493
386.015	2577.30303
386.521	2765.50009
387.028	2748.01054
387.534	2868.79309
388.04	3192.23591
388.546	2806.80321
389.051	3002.63692
389.557	3179.37994
390.063	4119.08211
390.568	3925.79916
391.073	3944.59075
391.578	4086.33785
392.084	4031.13023
392.589	3754.85077
393.093	3956.60429
393.598	4652.34246
394.103	5020.80184
394.607	5760.4577
395.112	6159.43136
395.616	6327.76088
396.12	6559.18488
396.624	7257.73275
397.128	8422.35166
397.632	9616.21885
398.136	10148.22866
398.639	9205.08654
399.143	9161.04135
399.646	10715.93716
400.15	12104.22763
400.653	12431.92642
401.156	12205.11922
401.659	4530.18829
402.162	1054.15589
402.664	0
403.167	0
403.67	0
404.172	0
404.674	0
405.176	0
405.678	0
406.18	0
406.682	0
407.184	0
407.686	0
408.187	0
408.688	0
409.19	0
409.691	0
410.192	0
410.693	0
411.194	435.30976
411.694	4082.94878
412.195	8864.71461
412.696	12089.80453
413.196	12760.96929
413.696	12863.67595
414.196	13703.56671
414.696	17261.84252
415.196	21764.24417
415.696	29583.19008
416.196	29935.45013
416.695	20593.17698
417.195	15298.64445
417.694	14279.53908
418.194	13928.19766
418.693	12425.39852
419.192	11953.82751
419.691	11873.60695
420.19	11641.03813
420.688	11854.65161
421.187	11748.77687
421.685	11140.56577
422.184	10502.66708
422.682	9002.70769
423.18	7155.07317
423.678	6170.77853
424.176	5449.75965
424.674	5244.77284
425.172	5259.34145
425.669	5011.08514
426.167	4687.37695
426.664	4284.40809
427.161	3807.88455
427.659	3662.42732
428.156	3298.10893
428.652	3006.03482
429.149	2934.96056
429.646	2819.91366
430.143	2751.73206
430.639	2425.7996
431.135	2333.87357
431.632	2225.9275
432.128	1985.15493
432.624	1892.31887
433.12	1610.34861
433.616	1644.35092
434.111	1461.5415
434.607	1454.63913
435.103	1631.51067
435.598	1605.55499
436.093	1558.83287
436.588	1435.91229
437.083	1383.01112
437.578	1278.12892
438.073	1045.27302
438.568	1120.36624
439.062	1157.17364
439.557	1086.39214
440.051	960.33651
440.546	941.35453
441.04	863.43987
441.534	912.56736
442.028	894.51607
442.522	852.50607
443.015	837.40433
443.509	775.5493
444.002	806.56495
444.496	842.44657
444.989	777.5807
445.482	741.58893
445.975	671.43834
446.468	751.42957
446.961	719.42616
447.454	688.4878
447.947	662.51636
448.439	655.57204
448.931	651.47386
449.424	625.61351
449.916	640.58068
450.408	534.4331
450.9	593.54737
451.392	513.53782
451.884	603.52835
452.375	413.44156
452.867	583.52318
453.358	526.46727
453.849	511.4158
454.341	549.49479
454.832	435.38279
455.323	437.47961
455.814	503.50051
456.304	456.46883
456.795	513.51309
457.285	503.50221
457.776	582.59733
458.266	439.49238
458.756	440.51768
459.247	359.42117
459.737	377.4433
460.226	369.40297
460.716	379.46053
461.206	356.44739
461.695	382.51699
462.185	378.46908
462.674	413.49576
463.163	393.45123
463.653	347.37594
464.142	310.41672
464.63	318.44538
465.119	316.40572
465.608	267.35022
466.096	320.39087
466.585	348.4635
467.073	348.49117
467.561	288.41863
468.05	278.39033
468.538	293.44485
469.026	273.40409
469.513	308.37944
470.001	258.35877
470.489	236.35091
470.976	294.42285
471.463	265.42961
471.951	319.51864
472.438	218.33382
472.925	145.22565
473.412	241.40042
473.899	251.3822
474.385	208.35083
474.872	171.27189
475.359	205.34492
475.845	260.35202
476.331	235.34846
476.817	214.36824
477.303	157.25882
477.789	143.24889
478.275	131.23683
478.761	150.26405
479.247	191.30736
479.732	95.17588
480.218	132.25839
480.703	181.33292
481.188	182.28167
481.673	143.24283
482.158	63.09902
482.643	161.31374
483.128	118.20185
483.612	141.2497
484.097	133.25202
484.581	83.15051
485.066	105.19799
485.55	80.135
486.034	77.1287
486.518	93.1696
487.002	72.13867
487.486	56.10884
487.969	70.13586
488.453	56.11456
488.936	76.13589
489.42	123.21465
489.903	67.13784
490.386	-408.60901
490.869	119.2069
491.352	119.23741
491.835	129.21207
492.318	90.16367
492.8	66.11047
493.283	3.00636
493.765	41.08351
494.247	105.20218
494.73	62.11269
495.212	79.15944
495.694	-36.07094
496.175	-54.10801
496.657	38.07576
497.139	107.15179
497.62	-47.09442
498.102	-26.05497
498.583	-25.05386
499.064	-35.06622
499.545	6.01162
500.026	-19.03625
500.507	-4.00793
500.988	13.02766
501.469	-36.07765
501.949	-9.01923
502.43	-92.18991
502.91	1.00175
503.39	3.00651
503.87	-37.07502
504.35	11.02245
504.83	-7.01314
505.31	-16.0335
505.79	-15.03096
506.269	33.06633
506.749	-43.08523
507.228	-24.04876
507.707	-21.0403
508.187	41.08465
508.666	-56.12037
509.145	-37.07529
509.623	-20.04089
510.102	-46.09807
510.581	24.05052
511.059	-63.139
511.538	-22.05021
512.016	-44.09274
512.494	-22.04704
512.972	-18.03769
513.45	-85.17329
513.928	-18.03822
514.406	-137.2939
514.884	-31.07031
515.361	-25.05268
515.839	-25.04999
516.316	-22.0466
516.793	-21.04715
517.27	-25.05384
517.747	-73.16719
518.224	-38.07812
518.701	-39.07701
519.178	-73.161
519.654	-55.11733
520.131	-23.05043
520.607	-43.09547
521.083	-110.22686
521.56	-41.08625
522.036	-48.09418
522.512	15.03282
522.987	-80.16981
523.463	-21.04433
523.939	-48.10571
524.414	40.08138
524.89	-46.09781
525.365	-29.0585
525.84	-78.16578
526.315	-51.11002
526.79	-4.00801
527.265	21.04229
527.74	-40.08731
528.215	-14.02942
528.689	-114.22971
529.164	-21.04081
529.638	-30.06938
530.112	-94.20057
530.587	-60.11472
531.061	-113.24775
531.534	-2.00434
532.008	-74.16077
532.482	-24.04952
532.956	-102.23609
533.429	-34.07418
533.903	-47.09407
534.376	-54.10786
534.849	-38.07946
535.322	-37.07876
535.795	-24.05283
536.268	-96.21052
536.741	-28.0607
537.213	-39.08153
537.686	-72.15896
538.158	-119.2436
538.631	-33.07272
539.103	-80.16269
539.575	-23.04326
540.047	-43.08555
540.519	-30.06493
540.991	-11.02431
541.463	-38.08333
541.934	-17.035
542.406	-4.00854
542.877	-15.03044
543.348	4.00869
543.82	-5.01106
544.291	-18.03801
544.762	-17.03617
545.233	-38.08593
545.703	-31.06159
546.174	5.0104
546.645	-4.00848
547.115	25.05345
547.585	48.09752
548.056	9.01915
548.526	50.10279
548.996	34.07226
549.466	93.19882
549.935	76.15568
550.405	100.18815
550.875	119.24183
551.344	54.11322
551.814	122.24063
552.283	184.33836
552.752	133.26263
553.221	200.3602
553.69	219.40384
554.159	190.39061
554.628	199.36861
555.096	271.56755
555.565	258.47349
556.033	328.63477
556.502	328.65576
556.97	328.59773
557.438	269.53693
557.906	400.78042
558.374	352.67013
558.842	411.80703
559.31	503.9021
559.777	473.92615
560.245	544.02453
560.712	621.12891
561.18	632.07953
561.647	701.1961
562.114	744.28159
562.581	863.59373
563.048	968.60851
563.514	998.76436
563.981	1010.64546
564.448	1154.757
564.914	1304.00364
565.381	1356.99526
565.847	1539.22899
566.313	1660.29749
566.779	1785.26448
567.245	1857.43201
567.711	1956.56913
568.176	2143.37483
568.642	2368.9223
569.108	2489.85608
569.573	2747.68838
570.038	2904.11933
570.504	3085.34557
570.969	3306.93635
571.434	3527.07267
571.899	3732.45773
572.363	4017.06454
572.828	4243.99273
573.293	4506.83747
573.757	4676.74629
574.222	4931.40997
574.686	5066.35588
575.15	5438.52308
575.614	5528.28033
576.078	5907.25765
576.542	6013.08244
577.006	6177.98727
577.469	6438.47523
577.933	6543.91211
578.396	6775.23068
578.86	6774.18703
579.323	6903.23848
579.786	6907.85417
580.249	6947.05501
580.712	7030.40731
581.175	7096.45418
581.637	7036.16346
582.1	7041.98439
582.563	6998.89825
583.025	6944.34259
583.487	6790.60615
583.95	6646.77412
584.412	6722.73456
584.874	6569.34282
585.336	6462.22602
585.797	6334.80903
586.259	6241.26333
586.721	6055.24996
587.182	5845.34866
587.643	5740.19992
588.105	5571.49834
588.566	5540.89841
589.027	5310.70185
589.488	5131.50083
589.949	5064.91032
590.41	4927.78084
590.87	4785.7194
591.331	4663.47371
591.791	4520.89377
592.252	4400.89204
592.712	4264.30868
593.172	4079.00582
593.632	4081.88512
594.092	3894.05783
594.552	3747.94129
595.011	3622.31738
595.471	3558.23153
595.931	3513.22542
596.39	3373.65875
596.849	3300.5349
597.308	3285.19378
597.768	3104.07521
598.227	3071.78705
598.685	3050.55748
599.144	2926.64271
599.603	2900.71878
600.062	2808.13936
600.52	2832.40704
600.978	2768.72966
601.437	2746.56608
601.895	2638.21526
602.353	2666.42505
602.811	2537.41705
603.269	2580.76544
603.727	2521.75708
604.184	2430.45738
604.642	2456.85408
605.099	2493.60788
605.557	2413.82883
606.014	2403.26606
606.471	2346.88805
606.928	2345.22243
607.385	2387.75687
607.842	2477.52537
608.299	2467.62335
608.755	2450.76099
609.212	2357.38352
609.668	2351.34834
610.125	2429.78558
610.581	2442.75553
611.037	2477.58598
611.493	2436.73017
611.949	2255.73809
612.405	2329.02411
612.861	2387.72098
613.316	2309.73424
613.772	2251.56421
614.227	2297.68461
614.683	2343.32269
615.138	2219.63254
615.593	2215.6089
616.048	2216.56998
616.503	2247.89462
616.958	2137.91631
617.412	2093.65947
617.867	2021.35661
618.321	2051.16603
618.776	2018.39319
619.23	2084.64321
619.684	1926.44552
620.138	1971.58166
620.592	1897.70264
621.046	1886.58171
621.5	1747.61055
621.954	1681.32335
622.407	1736.32089
622.861	1654.55162
623.314	1646.34166
623.768	1594.3713
624.221	1554.8663
624.674	1488.25704
625.127	1441.26586
625.58	1485.2478
626.033	1496.16795
626.485	1370.26651
626.938	1396.29087
627.39	1295.1235
627.843	1302.12149
628.295	1201.0121
628.747	1181.06018
629.199	1164.93559
629.651	1143.9104
630.103	1137.92623
630.555	1115.73297
631.006	1078.91804
631.458	1001.8289
631.909	1028.82225
632.361	992.80195
632.812	960.73576
633.263	991.64642
633.714	950.58803
634.165	935.81303
634.616	836.6235
635.067	870.55669
635.518	913.75433
635.968	862.38079
636.419	826.46262
636.869	766.52342
637.319	767.47551
637.769	746.39068
638.219	831.64329
638.669	704.42596
639.119	722.49845
639.569	681.40729
640.019	698.3764
640.468	703.33274
640.918	679.40879
641.367	657.26721
641.816	648.24953
642.265	660.3166
642.714	634.27344
643.163	634.26582
643.612	562.18934
644.061	578.06736
644.51	576.15357
644.958	573.10598
645.406	593.24765
645.855	600.29699
646.303	588.2135
646.751	549.10676
647.199	603.203
647.647	515.06046
648.095	513.05302
648.543	607.08664
648.99	512.09848
649.438	596.23939
649.885	543.20486
650.333	557.95335
650.78	514.11746
651.227	559.21365
651.674	476.98472
652.121	521.14207
652.568	462.02252
653.015	490.12824
653.461	492.05958
653.908	496.0467
654.354	440.96682
654.801	429.92541
655.247	498.99148
655.693	467.11591
656.139	459.0072
656.585	469.02833
657.031	394.85156
657.477	414.82539
657.922	387.8291
658.368	440.00163
658.813	483.02746
659.259	401.89502
659.704	413.89243
660.149	384.83563
660.594	381.84617
661.039	346.74271
661.484	421.93615
661.929	366.80492
662.373	333.79433
662.818	340.7975
663.262	371.83867
663.707	340.81552
664.151	343.79336
664.595	327.74825
665.039	337.79586
665.483	329.79559
665.927	335.74959
666.371	284.62854
666.814	380.85498
667.258	255.58094
667.701	406.82186
668.145	370.87089
668.588	339.79096
669.031	257.58266
669.474	284.65757
669.917	337.71139
670.36	315.7468
670.803	306.7085
671.245	287.58323
671.688	242.57365
672.13	261.56594
672.573	259.63718
673.015	254.59138
673.457	257.54323
673.899	271.63506
674.341	239.56118
674.783	231.53922
675.225	243.58057
675.666	226.52889
676.108	252.53302
676.549	292.6675
676.991	259.55514
677.432	246.47813
677.873	260.58455
678.314	195.45787
678.755	203.48446
679.196	244.54453
679.637	246.58583
680.078	276.62662
680.518	257.58384
680.959	213.50033
681.399	198.48218
681.839	171.41137
682.28	172.41872
682.72	216.48503
683.16	204.49828
683.6	237.52945
684.039	209.42977
684.479	137.3342
684.919	159.36312
685.358	219.54435
685.798	208.53397
686.237	225.53346
686.676	268.60574
687.115	179.4162
687.554	193.45194
687.993	198.43291
688.432	185.41824
688.871	185.415
689.309	187.4408
689.748	221.45567
690.186	202.4757
690.625	155.36111
691.063	175.41524
691.501	178.43494
691.939	184.45244
692.377	150.36352
692.815	181.42765
693.253	194.46059
693.69	155.33983
694.128	162.38891
694.565	172.40663
695.003	145.36554
695.44	146.34182
695.877	118.27594
696.314	204.43414
696.751	156.35505
697.188	170.38754
697.625	205.46515
698.061	128.30671
698.498	161.38717
698.934	136.32687
699.371	114.26889
699.807	151.35567
700.243	130.31233
700.679	179.40237
701.115	214.49649
701.551	125.29489
701.987	183.40849
702.422	146.3453
702.858	166.39244
703.294	166.37429
703.729	149.3628
704.164	159.38019
704.599	162.35944
705.035	168.37353
705.47	106.25834
705.904	146.33901
706.339	161.37317
706.774	134.3136
707.209	94.21835
707.643	143.34232
708.078	108.26361
708.512	99.24797
708.946	125.29992
709.38	136.3219
709.814	164.37311
710.248	185.44573
710.682	102.24366
711.116	85.20395
711.549	104.26858
711.983	101.23485
712.416	116.2752
712.85	158.39095
713.283	110.26127
713.716	167.41602
714.149	161.38173
714.582	157.35132
715.015	130.32497
715.448	118.29732
715.881	230.495
716.313	121.28401
716.746	127.29891
717.178	108.26036
717.61	131.33119
718.043	104.25988
718.475	98.23867
718.907	196.4894
719.339	77.17642
719.77	120.28447
720.202	111.28073
720.634	128.31068
721.065	126.29869
721.497	164.39865
721.928	95.23408
722.359	55.13407
722.79	110.26378
723.221	161.40195
723.652	127.3269
724.083	98.2226
724.514	125.28766
724.945	114.26857
725.375	103.23987
725.806	114.28487
726.236	116.29697
726.666	109.25894
727.096	113.27761
727.526	124.314
727.956	107.24427
728.386	168.4099
728.816	84.21339
729.246	89.21727
729.675	101.24905
730.105	153.37421
730.534	158.36745
730.964	128.32286
731.393	169.41625
731.822	135.34325
732.251	116.29405
732.68	192.44704
733.109	109.26887
733.537	108.26125
733.966	127.31454
734.395	127.29332
734.823	119.26947
735.251	107.25829
735.68	170.42172
736.108	133.33517
736.536	136.32015
736.964	144.33291
737.392	91.22859
737.82	116.2787
738.247	126.30157
738.675	182.43027
739.102	113.28201
739.53	106.26976
739.957	109.28008
740.384	117.28882
740.811	79.20137
741.238	84.20618
741.665	85.1985
742.092	177.41837
742.519	88.21855
742.945	77.1863
743.372	124.30626
743.798	113.29005
744.225	81.19398
744.651	129.32253
745.077	64.16091
745.503	143.34715
745.929	110.26428
746.355	147.36367
746.781	125.30902
747.207	67.15861
747.632	42.10362
748.058	153.37879
748.483	116.26754
748.908	84.20968
749.334	113.27751
749.759	101.23892
750.184	81.19413
750.609	137.3352
751.033	147.34598
751.458	148.33084
751.883	122.30177
752.307	66.15688
752.732	84.21044
753.156	92.2279
753.58	142.33584
754.005	112.28402
754.429	52.12375
754.853	101.25042
755.277	78.18598
755.7	100.24844
756.124	90.22392
756.548	60.14366
756.971	132.32111
757.394	87.22464
757.818	116.2976
758.241	106.26871
758.664	92.23272
759.087	73.16443
759.51	78.19512
759.933	98.23626
760.356	84.21596
760.778	138.33733
761.201	113.27484
761.623	139.33566
762.046	123.29164
762.468	121.29043
762.89	129.31727
763.312	123.2996
763.734	100.24117
764.156	90.22286
764.578	129.29627
765	95.23235
765.421	60.15329
765.843	96.25161
766.264	99.23979
766.686	107.26859
767.107	86.20921
767.528	90.22734
767.949	67.17132
768.37	77.18994
768.791	125.30152
769.212	50.12657
769.632	56.13178
770.053	88.23182
770.473	102.24822
770.894	127.31661
771.314	125.29786
771.734	103.24035
772.154	122.31179
772.575	142.32724
772.994	105.23874
773.414	114.27347
773.834	31.07843
774.254	110.26879
774.673	133.32215
775.093	110.27149
775.512	82.20253
775.931	66.16814
776.351	87.21634
776.77	65.15981
777.189	90.21459
777.607	87.2223
778.026	123.30474
778.445	24.06075
778.864	112.28623
779.282	69.16694
779.701	87.21948
780.119	72.18245
780.537	78.19505
780.955	85.21651
781.373	87.21539
781.791	97.21814
782.209	138.31586
782.627	65.17172
783.045	98.22548
783.462	79.20207
783.88	34.08869
784.297	87.21886
784.715	61.15718
785.132	91.22033
785.549	80.20034
785.966	110.27547
786.383	101.24785
786.8	106.24574
787.217	66.15724
787.633	78.19484
788.05	152.35726
788.466	111.26105
788.883	58.14849
789.299	126.30134
789.715	46.1127
790.131	84.20892
790.547	121.30023
790.963	93.2305
791.379	90.22717
791.795	45.10373
792.21	112.26078
792.626	111.26227
793.041	82.20246
793.457	61.15141
793.872	68.16052
794.287	55.13197
794.702	96.23606
795.117	79.1963
795.532	84.21029
795.947	124.29644
796.362	145.3426
796.776	151.34971
797.191	96.23441
797.605	29.06879
798.02	74.18035
798.434	74.16542
798.848	52.12872
799.262	70.17391
799.676	145.34976
800.09	98.24036
800.504	73.17748
800.918	46.1074
801.331	116.30206
801.745	90.20658
802.158	70.17524
802.572	117.28201
802.985	105.2528
803.398	98.23303
803.811	132.33616
804.224	91.22604
804.637	73.17415
805.05	104.24015
805.462	85.20867
805.875	41.10682
806.288	54.13082
806.7	93.23303
807.112	88.20385
807.525	94.23132
807.937	63.15609
808.349	79.1978
808.761	86.21124
809.173	107.2579
809.584	123.30151
809.996	17.04207
810.408	34.08829
810.819	88.2066
811.231	62.1604
811.642	62.14817
812.053	161.37657
812.464	184.42842
812.875	191.47787
813.286	113.28874
813.697	163.37511
814.108	134.3239
814.519	82.18278
814.929	109.27626
815.34	115.27687
815.75	53.13509
816.16	82.20409
816.571	91.23554
816.981	124.2902
817.391	115.27561
817.801	70.17391
818.211	95.22568
818.62	104.24892
819.03	106.25825
819.44	125.32343
819.849	120.29975
820.259	123.31196
820.668	46.11366
821.077	94.23243
821.486	128.30519
821.895	105.25796
822.304	79.20892
822.713	56.13286
823.122	90.22384
823.531	73.17309
823.939	77.18742
824.348	117.28211
824.756	125.31004
825.164	142.35278
825.573	86.21514
825.981	127.31177
826.389	102.25479
826.797	90.22457
827.205	74.16979
827.612	86.21163
828.02	85.19905
828.428	88.22332
828.835	78.20485
829.243	142.33389
829.65	61.15185
830.057	107.2579
830.464	108.26125
830.871	129.30551
831.278	128.30601
831.685	64.14313
832.092	87.21231
832.499	84.18335
832.905	97.24427
833.312	104.23575
833.718	83.20624
834.124	98.22278
834.531	131.32646
834.937	90.23001
835.343	88.21159
835.749	113.26181
836.155	73.19084
836.561	49.12092
836.966	100.24308
837.372	72.18304
837.777	31.0777
838.183	86.19066
838.588	58.1442
838.993	107.25859
839.399	73.17821
839.804	71.17282
840.209	62.15784
840.613	93.20588
841.018	65.16457
841.423	109.27734
841.828	73.1843
842.232	126.30869
842.637	116.27105
843.041	60.15383
843.445	45.11324
843.849	62.15353
844.253	156.36437
844.657	39.0986
845.061	66.14979
845.465	73.17602
845.869	83.19223
846.272	71.17262
846.676	99.2379
847.079	105.26489
847.483	163.39925
847.886	88.21319
848.289	59.15744
848.692	71.1795
849.095	100.23852
849.498	130.32556
849.901	119.27002
850.304	155.36396
850.707	57.14544
851.109	130.32497
851.512	95.23201
851.914	62.15616
852.316	71.17925
852.718	34.08814
853.121	95.23132
853.523	74.17257
853.925	51.13319
854.326	69.17221
854.728	84.21505
855.13	88.22577
855.531	74.17637
855.933	106.25235
856.334	52.1298
856.736	49.11006
857.137	82.18988
857.538	68.17066
857.939	52.12862
858.34	90.21812
858.741	89.2314
859.142	63.15128
859.542	78.20506
859.943	98.24178
860.343	49.12154
860.744	89.21598
861.144	101.24445
861.544	22.05324
861.945	129.32462
862.345	145.34896
862.745	68.16869
863.145	90.21393
863.544	98.24586
863.944	95.2229
864.344	84.2077
864.743	132.32315
865.143	96.24491
865.542	80.1848
865.941	45.11166
866.34	87.20731
866.74	99.26382
867.139	79.1884
867.537	100.25287
867.936	63.15151
868.335	94.23761
868.734	86.21863
869.132	136.31116
869.531	132.31484
869.929	96.21717
870.327	22.0531
870.726	99.24501
871.124	67.15634
871.522	46.1174
871.92	103.25192
872.318	61.14903
872.715	103.25286
873.113	96.23222
873.511	105.25929
873.908	12.03053
874.306	84.20785
874.703	78.19442
875.1	131.33072
875.497	68.16269
875.894	2.00495
876.291	94.2291
876.688	51.13164
877.085	85.20286
877.482	78.19449
877.878	92.21994
878.275	66.16737
878.671	133.2916
879.068	117.27923
879.464	83.1996
879.86	86.20222
880.256	105.25681
880.652	64.16253
881.048	75.18521
881.444	85.20123
881.84	95.23975
882.236	95.23718
882.631	91.22191
883.027	89.21419
883.422	68.17348
883.817	61.15312
884.213	94.23956
884.608	66.16152
885.003	27.06545
885.398	72.17966
885.793	114.28312
886.188	58.1441
886.582	105.26697
886.977	113.26523
887.371	93.23361
887.766	32.07991
888.16	122.30077
888.554	53.13112
888.949	119.29537
889.343	90.21845
889.737	52.1386
890.131	68.17017
890.525	53.13557
890.918	59.14837
891.312	127.29972
891.706	99.25775
892.099	133.33373
892.492	85.18227
892.886	66.16116
893.279	83.21037
893.672	92.23264
894.065	96.23859
894.458	76.1904
894.851	130.31411
895.244	61.15559
895.637	74.17759
896.029	73.17788
896.422	91.22083
896.814	83.20527
897.206	58.13802
897.599	119.29084
897.991	88.21143
898.383	62.1463
898.775	81.18186
899.167	27.0633
899.559	144.35866
899.951	111.25881
900.342	94.23736
900.734	6.01502
901.125	84.21926
901.517	82.20022
901.908	74.17678
902.299	94.22807
902.69	116.27041
903.082	90.21648
903.473	36.08649
903.863	61.15543
904.254	41.09541
904.645	73.18093
905.036	21.05115
905.426	159.35638
905.817	80.19534
906.207	62.14749
906.597	60.14015
906.987	99.25456
907.378	92.23106
907.768	63.16627
908.158	88.21319
908.547	60.15479
908.937	90.22944
909.327	75.18139
909.717	133.33289
910.106	99.23573
910.495	53.13232
910.885	77.19419
911.274	104.25753
911.663	96.2418
912.052	121.29484
912.441	74.18746
912.83	50.11486
913.219	101.26215
913.608	90.21894
913.997	48.12042
914.385	124.29225
914.774	90.21763
915.162	75.17797
915.55	105.25155
915.939	67.16867
916.327	75.18643
916.715	67.1703
917.103	118.28694
917.491	110.26929
917.878	76.18606
918.266	83.21409
918.654	96.24336
919.041	35.09162
919.429	50.11807
919.816	73.18436
920.203	85.20488
920.591	96.23615
920.978	76.1853
921.365	75.196
921.752	48.11453
922.139	89.19176
922.525	25.06035
922.912	97.2346
923.299	69.17096
923.685	65.16917
924.072	87.19925
924.458	71.17527
924.844	46.11395
925.231	42.09795
925.617	33.0842
926.003	36.09226
926.389	53.13366
926.774	80.20172
927.16	89.21954
927.546	55.14029
927.931	73.18146
928.317	92.21024
928.702	89.20907
929.088	64.15101
929.473	72.18252
929.858	49.11851
930.243	52.12479
930.628	47.11444
931.013	90.22147
931.398	109.24783
931.783	69.18112
932.167	90.21845
932.552	87.21658
932.937	134.32756
933.321	71.17752
933.705	41.10355
934.09	127.31661
934.474	115.26982
934.858	73.18863
935.242	47.10903
935.626	76.19368
936.009	41.10922
936.393	93.23487
936.777	61.15592
937.16	62.16101
937.544	88.20587
937.927	55.13945
938.311	84.20381
938.694	132.34431
939.077	26.06254
939.46	98.23858
939.843	94.1943
940.226	39.10025
940.609	64.14655
940.991	91.22999
941.374	100.24217
941.757	123.29949
942.139	48.10788
942.522	121.28213
942.904	90.21475
943.286	74.18726
943.668	86.22141
944.05	127.30842
944.432	81.19878
944.814	91.22249
945.196	10.02455
945.578	50.11885
945.959	78.18183
946.341	113.27422
946.722	81.18901
947.104	82.19484
947.485	89.20555
947.866	54.13596
948.247	61.15362
948.628	109.26302
949.009	44.11281
949.39	92.22731
949.771	117.26861
950.152	88.21447
950.532	17.04207
950.913	52.12541
951.293	48.12971
951.674	72.17345
952.054	40.0993
952.434	57.14133
952.814	87.20556
953.194	104.2697
953.574	116.28229
953.954	89.2098
954.334	83.20564
954.714	47.11461
955.093	120.29126
955.473	26.0653
955.853	86.22125
956.232	96.26119
956.611	91.2166
956.99	65.16293
957.37	105.26499
957.749	85.20146
958.128	48.12099
958.506	79.20392
958.885	27.06843
959.264	42.10309
959.643	61.13853
960.021	78.1923
960.4	85.19131
960.778	88.21527
961.156	64.16005
961.535	74.17169
961.913	103.23855
962.291	55.14098
962.669	50.12666
963.047	104.26289
963.424	61.15538
963.802	66.16182
964.18	97.2434
964.557	134.3035
964.935	75.17687
965.312	99.25563
965.69	110.27249
966.067	101.24363
966.444	74.18156
966.821	95.243
967.198	100.24035
967.575	98.23884
967.952	104.24254
968.329	68.16493
968.705	98.20801
969.082	71.18142
969.458	6.01451
969.835	94.22696
970.211	78.1992
970.587	62.15403
970.963	107.27177
971.339	50.13056
971.715	67.16679
972.091	74.18143
972.467	110.27139
972.843	53.13146
973.219	100.23788
973.594	63.16442
973.97	113.26575
974.345	29.06969
974.721	112.26806
975.096	76.18301
975.471	114.26711
975.846	70.16754
976.221	55.13955
976.596	66.15773
976.971	119.29008
977.346	110.25309
977.72	83.21022
978.095	62.1599
978.469	109.25724
978.844	106.26383
979.218	44.10559
979.593	125.29523
979.967	58.14109
980.341	52.11969
980.715	88.22022
981.089	87.21634
981.463	67.15333
981.837	57.1391
982.21	110.25299
982.584	83.19922
982.957	24.06021
983.331	78.18341
983.704	73.17861
984.078	57.14029
984.451	114.28146
984.824	66.16026
985.197	78.18847
985.57	100.24853
985.943	112.27347
986.316	112.27205
986.688	89.21306
987.061	99.22983
987.434	56.14578
987.806	69.16675
988.179	31.07342
988.551	106.26622
988.923	79.19351
989.295	105.25977
989.667	42.10049
990.039	102.24961
990.411	101.23011
990.783	107.24358
991.155	29.06995
991.527	168.40469
991.898	65.16152
992.27	57.14081
992.641	100.24862
993.012	121.28079
993.384	101.23855
993.755	80.20287
994.126	88.21014
994.497	35.08615
994.868	96.2185
995.239	86.20701
995.61	61.15318
995.98	56.13587
996.351	48.1189
996.722	43.09987
997.092	43.10196
997.462	25.05868
997.833	79.18623
998.203	144.34294
998.573	50.12449
998.943	71.16581
999.313	44.10555
999.683	57.13661
1000.053	96.21885
1000.423	71.17185
1000.792	80.20625
1001.162	61.14981
1001.531	78.19131
1001.901	88.21783
1002.27	110.24285
1002.639	55.14039
1003.009	101.23781
1003.378	97.24594
1003.747	94.22016
1004.116	19.04573
1004.485	99.23437
1004.853	97.24366
1005.222	40.10104
1005.591	143.33342
1005.959	47.10596
1006.328	41.09243
1006.696	42.10145
1007.064	73.18285
1007.433	110.27189
1007.801	94.22884
1008.169	91.2281
1008.537	100.21911
1008.905	86.1989
1009.273	64.15767
1009.64	42.10033
1010.008	83.19657
1010.375	148.35274
1010.743	142.32188
1011.11	67.158
1011.478	51.12617
1011.845	74.17319
1012.212	102.22839
1012.579	89.21687
1012.946	119.27943
1013.313	126.29546
1013.68	84.18747
1014.047	54.12856
1014.414	38.08994
1014.78	78.19279
1015.147	71.171
1015.513	79.18926
1015.88	93.23596
1016.246	88.21567
1016.612	98.22215
1016.978	79.1925
1017.344	55.13577
1017.71	108.26046
1018.076	103.24035
1018.442	82.20971
1018.808	59.14719
1019.174	50.1254
1019.539	160.36017
1019.905	87.20365
1020.27	70.17207
1020.636	104.24673
1021.001	97.23008
1021.366	71.16977
1021.731	96.24483
1022.096	47.11857
1022.461	83.19512
1022.826	86.20293
1023.191	25.06585
1023.556	98.22746
1023.92	103.2507
1024.285	81.19649
1024.649	47.11521
1025.014	112.27419
1025.378	54.13562
1025.742	73.18047
1026.107	71.15986
1026.471	91.21067
1026.835	84.20686
1027.199	-11.02677
1027.562	113.25932
1027.926	104.25167
1028.29	104.26054
1028.654	83.18963
1029.017	104.25299
1029.381	72.17121
1029.744	70.17783
1030.107	92.21582
1030.471	57.13624
1030.834	104.23392
1031.197	101.24086
1031.56	62.1459
1031.923	89.22845
1032.286	131.30267
1032.648	79.18782
1033.011	67.1532
1033.374	69.16152
1033.736	47.12358
1034.099	86.20811
1034.461	63.15871
1034.823	70.17359
1035.185	118.29326
1035.548	41.09991
1035.91	84.19982
1036.272	73.16531
1036.634	131.31551
1036.995	77.17996
1037.357	94.2267
1037.719	93.22424
1038.08	70.16549
1038.442	77.18172
1038.803	92.21902
1039.165	61.15356
1039.526	93.2228
1039.887	63.1503
1040.248	74.18143
1040.609	89.21825
1040.97	69.16795
1041.331	88.22117
1041.692	16.03758
1042.053	103.23191
1042.413	84.19435
1042.774	103.24789
1043.134	125.29317
1043.495	87.21713
1043.855	59.1428
1044.215	64.15836
1044.576	75.17838
1044.936	108.24461
1045.296	110.27139
1045.656	58.14204
1046.016	119.28335
1046.375	62.14998
1046.735	48.10881
1047.095	112.25883
1047.454	91.19101
1047.814	65.15572
1048.173	127.29879
1048.533	89.2022
1048.892	38.09137
1049.251	111.27542
1049.61	80.19578
1049.969	93.21727
1050.328	110.23532
1050.687	53.12881
1051.046	70.16971
1051.405	89.2197
1051.763	73.16699
1052.122	73.1812
1052.48	82.19978
1052.839	63.14776
1053.197	73.17095
1053.555	123.27615
1053.914	117.28243
1054.272	134.31863
1054.63	66.1608
1054.988	67.15855
1055.345	69.1479
1055.703	114.27087
1056.061	53.13619
1056.419	72.18556
1056.776	106.25419
1057.134	53.12255
1057.491	55.13751
1057.848	124.30435
1058.206	79.18463
1058.563	68.14925
1058.92	120.27257
1059.277	94.22987
1059.634	65.15239
1059.991	94.22318
1060.348	63.14191
1060.704	59.14027
1061.061	132.30152
1061.418	71.17139
1061.774	69.16964
1062.131	44.11638
1062.487	78.18126
1062.843	82.20313
1063.199	82.20261
1063.555	53.12265
1063.911	74.18599
1064.267	146.29785
1064.623	36.08761
1064.979	139.32345
1065.335	112.26438
1065.691	102.24189
1066.046	83.18113
1066.402	79.17831
1066.757	65.16351
1067.112	101.24537
1067.468	86.20151
1067.823	96.22863
1068.178	73.17569
1068.533	95.2282
1068.888	109.25734
1069.243	79.1938
1069.598	70.16933
1069.952	31.07003
1070.307	58.14326
1070.662	59.13973
1071.016	41.09198
1071.371	76.17186
1071.725	96.22749
1072.079	69.16524
1072.434	30.07312
1072.788	82.19394
1073.142	122.29589
1073.496	50.11853
1073.85	70.16158
1074.203	75.18098
1074.557	58.15392
1074.911	132.30989
1075.265	72.16652
1075.618	105.25356
1075.971	83.19604
1076.325	69.17463
1076.678	54.1233
1077.031	51.1153
1077.385	105.22846
1077.738	84.18816
1078.091	73.16511
1078.444	119.27232
1078.796	78.19024
1079.149	59.14639
1079.502	27.06402
1079.855	75.17391
1080.207	73.17894
1080.56	31.08032
1080.912	71.17204
1081.264	65.15596
1081.617	58.14104
1081.969	43.10852
1082.321	80.1941
1082.673	61.13881
1083.025	79.18623
1083.377	-141.31487
1083.728	116.2669
1084.08	66.16415
1084.432	95.22699
1084.783	55.12864
1085.135	57.14257
1085.486	37.08481
1085.838	94.22944
1086.189	63.15243
1086.54	62.1476
1086.891	75.18867
1087.242	50.12163
1087.593	81.1959
1087.944	41.09288
1088.295	67.15166
1088.646	83.19975
1088.996	33.07969
1089.347	80.19505
1089.698	17.0404
1090.048	109.27998
1090.398	102.23394
1090.749	35.08391
1091.099	10.02531
1091.449	83.20534
1091.799	113.27946
1092.149	23.05632
1092.499	53.1291
1092.849	60.1521
1093.199	100.24817
1093.548	81.19331
1093.898	78.194
1094.248	89.22693
1094.597	37.09458
1094.947	75.19907
1095.296	80.19629
1095.645	95.24496
1095.994	54.12949
1096.343	63.15803
1096.692	79.20632
1097.041	55.14865
1097.39	93.23126
1097.739	80.20668
1098.088	86.22884
1098.437	33.08686
1098.785	116.30907
1099.134	86.22678
1099.482	76.20797
1099.83	97.25263
1100.179	82.2125
1100.527	56.14851
1100.875	85.2232
1101.223	49.13002
1101.571	66.18176
1101.919	11.0289
1102.267	50.14064
1102.615	-4.01287
1102.962	15.04827
1103.31	8.0257
1103.658	17.05472
