Data from N2 R15 sample 4_Subt2__5__15-34-56-493.txt Node

Date: Tue Sep 02 15:34:56 PDT 2025
User: uwsun
Spectrometer: HDX01956
Trigger mode: 0
Integration Time (sec): 5.000000E-1
Scans to average: 1
Nonlinearity correction enabled: true
Boxcar width: 0
Storing dark spectrum: false
XAxis mode: Wavelengths
Number of Pixels in Spectrum: 2068
>>>>>Begin Spectral Data<<<<<
194.03	-48.13572
194.578	-39.12392
195.127	-51.15995
195.676	-26.08153
196.225	18.04761
196.773	3.00822
197.321	-41.11078
197.87	-12.02976
198.418	-2.00489
198.966	-52.129
199.513	-81.19265
200.061	-73.17622
200.609	13.03264
201.156	-83.17329
201.704	-48.11467
202.251	-60.15129
202.798	-95.23658
203.345	19.04432
203.892	-47.11251
204.438	-29.06591
204.985	-104.23517
205.532	-72.18057
206.078	-65.15233
206.624	-68.15889
207.17	19.04146
207.716	-65.15006
208.262	7.01303
208.808	-142.33558
209.354	-81.18797
209.899	-30.07232
210.445	-77.18194
210.99	-76.17431
211.535	7.01552
212.08	-11.02421
212.625	-5.01183
213.17	10.02389
213.715	-81.17107
214.259	2.0044
214.804	19.04427
215.348	-37.08064
215.892	23.05185
216.436	39.085
216.98	2.0042
217.524	-25.05601
218.068	2.00476
218.612	13.03093
219.155	-25.05587
219.698	9.02025
220.242	-6.01423
220.785	-27.06017
221.328	-1.00236
221.871	32.07677
222.414	53.12426
222.956	-40.09163
223.499	-28.06013
224.041	-7.01557
224.583	23.04727
225.126	-21.04416
225.668	3.0069
226.21	-33.07903
226.751	-15.03107
227.293	19.04113
227.835	21.04829
228.376	-8.01763
228.918	8.01918
229.459	-49.11623
230	-30.06803
230.541	-13.02853
231.082	-37.08549
231.622	35.07603
232.163	-61.14128
232.704	-38.0896
233.244	-42.09926
233.784	6.01397
234.324	-54.11262
234.864	-43.09304
235.404	-19.04304
235.944	3.00674
236.484	10.02361
237.023	-5.01116
237.563	-27.05915
238.102	-5.01117
238.641	-26.06242
239.18	-58.12891
239.719	20.04723
240.258	16.0339
240.797	-17.0384
241.335	1.00231
241.874	11.01987
242.412	9.02031
242.95	-50.11311
243.488	-35.0759
244.026	-20.04349
244.564	13.02515
245.102	-4.00845
245.64	-2.00456
246.177	-2.00422
246.715	6.01358
247.252	-32.06982
247.789	67.11785
248.326	-73.16618
248.863	-57.11864
249.4	-18.03864
249.936	-83.16351
250.473	-57.12597
251.009	-39.08424
251.546	-6.01241
252.082	-35.07252
252.618	-19.03974
253.154	-47.10652
253.69	-65.13908
254.226	-26.05836
254.761	-14.02952
255.297	-46.09504
255.832	-26.05779
256.367	14.03075
256.903	-25.05155
257.438	23.05038
257.972	-8.01668
258.507	-60.1293
259.042	-5.01015
259.576	-88.17904
260.111	-27.05875
260.645	-20.04067
261.179	-16.03484
261.713	-22.04576
262.247	23.04926
262.781	-79.15658
263.315	-13.02964
263.849	-12.02795
264.382	5.01072
264.915	-34.07431
265.449	-81.18462
265.982	-4.00849
266.515	-10.02268
267.048	-71.14158
267.58	-34.06993
268.113	-35.07051
268.646	-51.11774
269.178	-93.19581
269.71	-31.06331
270.243	-52.11158
270.775	-10.02361
271.307	3.00672
271.838	19.04194
272.37	-60.13827
272.902	6.01264
273.433	-29.05899
273.965	11.02471
274.496	-28.06499
275.027	-53.1227
275.558	-64.14508
276.089	-93.21317
276.62	-20.04738
277.15	-18.0413
277.681	-41.08321
278.211	-17.03872
278.741	-41.08351
279.272	-54.11447
279.802	1.0023
280.332	-22.0478
280.861	-19.04224
281.391	-38.0796
281.921	5.0111
282.45	-9.02077
282.98	-39.09425
283.509	-20.0414
284.038	-9.01882
284.567	-9.01939
285.096	-10.0222
285.625	-46.09632
286.153	-48.10362
286.682	-31.06504
287.21	-41.09069
287.739	-60.13086
288.267	-61.13594
288.795	-9.02173
289.323	-91.19623
289.851	-43.09253
290.378	-62.12815
290.906	-94.20944
291.433	-20.04548
291.961	-48.09917
292.488	-45.10257
293.015	-58.12451
293.542	-14.03204
294.069	-83.18703
294.596	-11.02475
295.122	-48.10433
295.649	-40.08034
296.175	-24.0529
296.702	-55.12196
297.228	-31.06857
297.754	-14.02829
298.28	-25.05104
298.806	-78.17062
299.332	-87.17462
299.857	-39.07918
300.383	-54.12445
300.908	-92.20167
301.433	-89.19587
301.958	8.01654
302.483	-75.16866
303.008	-30.06673
303.533	-23.0539
304.058	-24.05079
304.582	-109.23252
305.107	-107.25213
305.631	-19.03872
306.155	-44.09095
306.679	-111.23319
307.203	-53.10928
307.727	-34.07154
308.251	-65.14353
308.775	-138.29356
309.298	-145.3116
309.822	-115.26095
310.345	-92.19426
310.868	-109.23232
311.391	-58.12655
311.914	-116.25867
312.437	-69.13945
312.96	-77.15941
313.482	-114.23912
314.005	-124.27639
314.527	-95.21959
315.049	-33.07287
315.571	-109.21049
316.093	-83.17937
316.615	-84.17581
317.137	-36.06693
317.659	-75.15881
318.18	-69.14451
318.702	-79.15805
319.223	-53.09225
319.744	-83.15882
320.265	-139.29021
320.786	-147.3125
321.307	-104.22114
321.828	-86.16468
322.348	-104.20734
322.869	-117.23234
323.389	-300.43067
323.909	-97.18704
324.43	-73.14862
324.95	-123.23501
325.47	-116.23708
325.989	-153.30071
326.509	-181.32974
327.029	-164.30416
327.548	-173.31917
328.067	-210.41945
328.587	-139.28518
329.106	-93.16925
329.625	-45.09662
330.144	-180.33683
330.662	-168.31236
331.181	-106.19649
331.7	-120.22244
332.218	-145.24636
332.736	-161.29882
333.255	-135.24519
333.773	-146.2701
334.291	-176.35024
334.808	-178.30612
335.326	-221.38935
335.844	-234.41819
336.361	-205.39872
336.879	-202.35597
337.396	-218.39927
337.913	-232.40199
338.43	-238.40057
338.947	-241.43104
339.464	-228.35515
339.981	-271.47745
340.497	-188.34206
341.014	-238.42622
341.53	-279.4564
342.046	-216.38203
342.562	-218.39584
343.078	-231.38762
343.594	-213.36074
344.11	-227.38153
344.626	-267.48125
345.141	-248.39129
345.657	-247.39072
346.172	-200.33054
346.687	-305.48417
347.202	-256.38599
347.717	-304.50051
348.232	-217.36791
348.747	-280.43032
349.261	-352.50156
349.776	-307.4823
350.29	-348.5733
350.805	-315.52831
351.319	-329.5064
351.833	-368.53929
352.347	-352.5407
352.861	-316.46962
353.374	-227.32799
353.888	-291.45001
354.401	-269.38192
354.915	-323.43723
355.428	-339.53229
355.941	-350.50028
356.454	-253.34175
356.967	-366.54
357.48	-274.37662
357.993	-315.47655
358.505	-394.59345
359.018	-285.41491
359.53	-387.55861
360.042	-299.37821
360.554	-331.47475
361.066	-380.5473
361.578	-341.41491
362.09	-316.43042
362.602	-368.44763
363.113	-381.49718
363.625	-365.44733
364.136	-351.41452
364.647	-507.64259
365.158	-421.53604
365.669	-403.52949
366.18	-425.54526
366.691	-387.43964
367.201	-378.4754
367.712	-433.50398
368.222	-438.50886
368.733	-474.49663
369.243	-453.47554
369.753	-414.46162
370.263	-498.59299
370.773	-468.57068
371.282	-535.60677
371.792	-571.56555
372.301	-540.58255
372.811	-518.62589
373.32	-641.52431
373.829	-598.55523
374.338	-593.47144
374.847	-539.41448
375.356	-648.52616
375.865	-697.3972
376.373	-676.41291
376.882	-653.51529
377.39	-722.48684
377.898	-820.49106
378.407	-824.334
378.915	-855.27638
379.423	-797.26832
379.93	-875.21449
380.438	-1038.25919
380.946	-997.11293
381.453	-1097.07532
381.96	-1197.96233
382.468	-1359.78722
382.975	-1256.77143
383.482	-1295.62195
383.989	-1344.70407
384.495	-1459.4829
385.002	-1604.24878
385.509	-1620.24361
386.015	-1737.08223
386.521	-1836.04261
387.028	-1903.00697
387.534	-2029.9807
388.04	-1976.99167
388.546	-2269.01565
389.051	-2621.1147
389.557	-2669.4046
390.063	-2315.71672
390.568	-2428.11297
391.073	-2833.80352
391.578	-2869.09616
392.084	-3194.32513
392.589	-3580.37169
393.093	-4089.1131
393.598	-4027.57113
394.103	-4432.04178
394.607	-4831.23182
395.112	-4907.3158
395.616	-5457.65418
396.12	-6124.76226
396.624	-6703.95374
397.128	-7067.87822
397.632	-7429.54643
398.136	-8239.90519
398.639	-10285.77344
399.143	-12253.90778
399.646	-13486.55388
400.15	-14791.9632
400.653	-17084.81125
401.156	-19940.91558
401.659	-23877.79809
402.162	-19778.10083
402.664	-6130.55458
403.167	-1108.19102
403.67	0
404.172	0
404.674	0
405.176	0
405.678	0
406.18	0
406.682	0
407.184	0
407.686	0
408.187	0
408.688	0
409.19	0
409.691	0
410.192	0
410.693	-6798.61838
411.194	-11928.04574
411.694	-11803.47229
412.195	-10238.99731
412.696	-11180.14779
413.196	-12682.83893
413.696	-14166.90304
414.196	-13109.2807
414.696	-10790.86905
415.196	-7960.1314
415.696	-2934.61407
416.196	-1726.77728
416.695	-3769.34074
417.195	-5291.5009
417.694	-5077.34511
418.194	-4339.90616
418.693	-4771.52765
419.192	-4590.5713
419.691	-4711.073
420.19	-4378.84205
420.688	-3883.21785
421.187	-3539.36694
421.685	-3032.51651
422.184	-2294.42172
422.682	-1941.33613
423.18	-2224.90866
423.678	-2171.08075
424.176	-1977.09905
424.674	-1834.45359
425.172	-1554.84687
425.669	-1416.49754
426.167	-1132.4867
426.664	-1283.32241
427.161	-1070.40749
427.659	-1015.46559
428.156	-1121.40953
428.652	-1013.60454
429.149	-1108.6128
429.646	-973.6476
430.143	-776.8121
430.639	-872.86468
431.135	-819.98448
431.632	-819.98807
432.128	-806.10931
432.624	-830.23151
433.12	-901.12723
433.616	-841.12669
434.111	-985.31057
434.607	-892.35371
435.103	-672.18596
435.598	-626.18416
436.093	-609.33419
436.588	-599.34344
437.083	-574.3698
437.578	-599.44567
438.073	-731.67197
438.568	-594.57772
439.062	-579.43804
439.557	-546.53542
440.051	-589.55148
440.546	-647.63738
441.04	-593.64525
441.534	-562.68852
442.028	-475.5357
442.522	-583.6861
443.015	-593.62048
443.509	-552.6961
444.002	-563.71521
444.496	-460.48114
444.989	-527.68194
445.482	-586.79563
445.975	-594.69677
446.468	-500.53672
446.961	-491.53018
447.454	-529.64222
447.947	-569.73942
448.439	-530.73223
448.931	-561.69196
449.424	-551.82396
449.916	-537.75995
450.408	-550.69841
450.9	-596.85723
451.392	-549.83239
451.884	-508.68683
452.375	-571.85855
452.867	-450.60311
453.358	-562.76198
453.849	-478.58834
454.341	-510.69181
454.832	-497.63515
455.323	-552.84771
455.814	-490.69973
456.304	-494.71344
456.795	-484.69463
457.285	-454.64255
457.776	-378.54646
458.266	-469.71481
458.756	-479.76012
459.247	-543.85584
459.737	-430.6602
460.226	-443.6423
460.716	-481.76988
461.206	-500.82111
461.695	-481.83957
462.185	-445.71669
462.674	-443.70134
463.163	-410.61683
463.653	-415.58861
464.142	-449.75809
464.63	-392.67569
465.119	-408.65688
465.608	-399.64329
466.096	-372.56941
466.585	-360.59472
467.073	-372.64703
467.561	-406.71891
468.05	-351.59322
468.538	-353.64052
469.026	-383.68188
469.513	-381.58683
470.001	-374.62747
470.489	-449.80854
470.976	-353.61186
471.463	-332.6296
471.951	-349.67493
472.438	-366.65853
472.925	-367.65745
473.412	-273.51833
473.899	-287.50776
474.385	-322.62197
474.872	-364.66839
475.359	-341.65978
475.845	-270.4302
476.331	-244.41515
476.817	-304.59593
477.303	-342.64254
477.789	-323.63183
478.275	-329.66492
478.761	-284.55699
479.247	-228.41084
479.732	-325.66498
480.218	-355.775
480.703	-286.58796
481.188	-312.55358
481.673	-311.59337
482.158	-353.62227
482.643	-265.56873
483.128	-296.56297
483.612	-265.51911
484.097	-252.52251
484.581	-277.54853
485.066	-303.62867
485.55	-253.46584
486.034	-263.48084
486.518	-300.60172
487.002	-311.6542
487.486	-273.57225
487.969	-290.61124
488.453	-299.66077
488.936	-293.57396
489.42	-250.47941
489.903	-299.66574
490.386	-715.1658
490.869	-190.35748
491.352	-230.49607
491.835	-196.35155
492.318	-252.4982
492.8	-203.36495
493.283	-246.55012
493.765	-257.55893
494.247	-211.43721
494.73	-241.47187
495.212	-232.50167
495.694	-237.4891
496.175	-270.56709
496.657	-179.37488
497.139	-151.23183
497.62	-268.56586
498.102	-243.53815
498.583	-223.50085
499.064	-249.49585
499.545	-191.38726
500.026	-185.3672
500.507	-204.42336
500.988	-180.39905
501.469	-230.51668
501.949	-119.26035
502.43	-211.44718
502.91	-180.3305
503.39	-136.30377
503.87	-146.3034
504.35	-79.1645
504.83	-127.24548
505.31	-115.24607
505.79	-121.25566
506.269	-18.0366
506.749	-51.10128
507.228	-60.12291
507.707	23.04367
508.187	22.04562
508.666	78.16282
509.145	102.20099
509.623	123.24334
510.102	168.34149
510.581	247.49439
511.059	216.44867
511.538	354.74645
512.016	328.63477
512.494	426.82247
512.972	454.85132
513.45	504.89018
513.928	576.06313
514.406	577.04557
514.884	728.39399
515.361	829.41891
515.839	807.30378
516.316	895.51584
516.793	990.75925
517.27	1004.68503
517.747	1055.86589
518.224	1083.66928
518.701	1059.55967
519.178	1074.80001
519.654	1180.8479
520.131	1111.85468
520.607	1125.89147
521.083	1100.65847
521.56	1087.72265
522.036	1046.52963
522.512	1070.81963
522.987	935.54625
523.463	896.51139
523.939	909.5987
524.414	871.43769
524.89	800.38711
525.365	756.25044
525.84	650.1611
526.315	653.19443
526.79	664.12338
527.265	569.00014
527.74	533.02026
528.215	557.02157
528.689	494.85659
529.164	465.79922
529.638	436.91449
530.112	358.68885
530.587	307.53494
531.061	297.59474
531.534	346.69495
532.008	283.56802
532.482	290.55612
532.956	216.46827
533.429	275.56063
533.903	241.45021
534.376	241.44842
534.849	146.29284
535.322	244.48759
535.795	176.37113
536.268	143.29777
536.741	171.35496
537.213	134.26939
537.686	121.25633
538.158	88.17169
538.631	148.31373
539.103	27.05357
539.575	110.20014
540.047	64.12415
540.519	125.26156
540.991	80.17344
541.463	94.2004
541.934	134.26653
542.406	88.1841
542.877	96.18988
543.348	111.23556
543.82	84.18234
544.291	120.2457
544.762	102.2114
545.233	117.2562
545.703	80.15482
546.174	120.24314
546.645	65.13577
547.115	125.26144
547.585	146.28999
548.056	117.24308
548.526	126.25459
548.996	209.42725
549.466	241.4987
549.935	192.38297
550.405	233.42405
550.875	287.56088
551.344	286.56887
551.814	318.59833
552.283	382.66759
552.752	416.76697
553.221	398.68054
553.69	476.82142
554.159	451.87262
554.628	480.827
555.096	551.08075
555.565	649.0733
556.033	694.22456
556.502	787.40533
556.97	879.3798
557.438	966.61751
557.906	1060.74654
558.374	1148.7685
558.842	1229.9534
559.31	1343.90119
559.777	1424.17179
560.245	1689.31975
560.712	1784.32734
561.18	1969.22732
561.647	2103.3233
562.114	2224.42348
562.581	2469.85247
563.048	2706.55293
563.514	2775.83859
563.981	3139.45274
564.448	3389.26154
564.914	3729.34745
565.381	3858.16312
565.847	4225.14198
566.313	4527.93562
566.779	4808.58449
567.245	5178.60065
567.711	5480.58805
568.176	5856.05426
568.642	6191.58692
569.108	6701.39946
569.573	7178.30226
570.038	7667.26348
570.504	8083.82491
570.969	8581.71172
571.434	9045.48244
571.899	9460.42195
572.363	10175.6849
572.828	10819.19034
573.293	11187.89666
573.757	11739.77791
574.222	12355.82472
574.686	12779.69408
575.15	13354.23898
575.614	13813.42453
576.078	14300.35753
576.542	14656.09797
577.006	15050.17114
577.469	15448.39267
577.933	15851.83789
578.396	16104.29582
578.86	16191.46328
579.323	16382.47639
579.786	16450.26724
580.249	16369.27381
580.712	16535.56531
581.175	16218.82051
581.637	16212.04486
582.1	16010.73439
582.563	15887.75485
583.025	15471.09786
583.487	15348.12638
583.95	14963.10249
584.412	14960.3198
584.874	14502.55945
585.336	13968.19106
585.797	13485.4019
586.259	13250.38863
586.721	12790.16048
587.182	12487.05001
587.643	12013.39143
588.105	11692.234
588.566	11381.38335
589.027	10921.38995
589.488	10645.45106
589.949	10345.06488
590.41	9918.28302
590.87	9733.21263
591.331	9312.13199
591.791	9105.59281
592.252	8776.92145
592.712	8591.66107
593.172	8369.23065
593.632	8076.80334
594.092	7848.57674
594.552	7690.34552
595.011	7316.25074
595.471	7203.12419
595.931	6897.00064
596.39	6684.2818
596.849	6566.15383
597.308	6349.85751
597.768	6291.6762
598.227	6144.40765
598.685	5975.21209
599.144	5834.32743
599.603	5608.50029
600.062	5598.84223
600.52	5313.26737
600.978	5296.65218
601.437	5190.50689
601.895	5106.11689
602.353	5015.4215
602.811	4822.5139
603.269	4767.99372
603.727	4645.0608
604.184	4589.7055
604.642	4468.30542
605.099	4393.00898
605.557	4362.34144
606.014	4189.68028
606.471	4029.61928
606.928	4030.71486
607.385	3829.52019
607.842	3892.16967
608.299	3843.32103
608.755	3720.55718
609.212	3691.09793
609.668	3499.13807
610.125	3523.67016
610.581	3560.61554
611.037	3477.42813
611.493	3410.63707
611.949	3258.74556
612.405	3275.82507
612.861	3274.67729
613.316	3129.75014
613.772	3143.55337
614.227	3075.70311
614.683	2971.28
615.138	3004.67763
615.593	2932.66023
616.048	2920.61386
616.503	2854.99917
616.958	2759.07893
617.412	2759.78748
617.867	2621.45183
618.321	2666.20632
618.776	2535.49646
619.23	2515.75841
619.684	2503.60474
620.138	2523.74694
620.592	2355.90858
621.046	2399.78147
621.5	2235.88055
621.954	2356.60636
622.407	2157.51052
622.861	2177.87451
623.314	2094.58638
623.768	2111.67945
624.221	2037.05132
624.674	1972.58386
625.127	2029.67898
625.58	2043.60807
626.033	1930.44242
626.485	1810.64597
626.938	1845.66622
627.39	1834.5766
627.843	1832.56248
628.295	1734.49945
628.747	1702.57647
629.199	1735.44963
629.651	1631.37415
630.103	1613.39202
630.555	1633.17002
631.006	1576.45259
631.458	1575.47149
631.909	1555.38965
632.361	1505.38633
632.812	1491.33982
633.263	1508.16012
633.714	1470.11808
634.165	1406.42463
634.616	1396.35534
635.067	1343.11661
635.518	1358.33402
635.968	1381.89684
636.419	1367.08838
636.869	1281.24593
637.319	1275.15761
637.769	1224.01583
638.219	1314.30825
638.669	1199.15632
639.119	1228.26314
639.569	1173.15877
640.019	1184.07138
640.468	1135.92903
640.918	1199.20129
641.367	1115.91831
641.816	1134.93612
642.265	1060.92091
642.714	1093.96633
643.163	1058.90757
643.612	1025.95197
644.061	983.63487
644.51	996.80374
644.958	973.70087
645.406	941.82988
645.855	948.89809
646.303	930.77377
646.751	871.62778
647.199	993.80422
647.647	914.71544
648.095	918.71451
648.543	948.55098
648.99	911.78826
649.438	935.79925
649.885	866.79362
650.333	850.34066
650.78	861.73524
651.227	830.6991
651.674	782.5055
652.121	909.83124
652.568	801.64891
653.015	899.90217
653.461	780.57722
653.908	835.63272
654.354	839.68698
654.801	750.50471
655.247	864.57293
655.693	744.68447
656.139	755.55482
656.585	742.53453
657.031	705.4205
657.477	703.30616
657.922	741.4644
658.368	764.62656
658.813	753.509
659.259	677.42275
659.704	639.31212
660.149	678.38136
660.594	677.40901
661.039	647.2969
661.484	714.48907
661.929	700.42948
662.373	626.40681
662.818	598.32954
663.262	589.27019
663.707	606.37739
664.151	652.41313
664.595	590.27643
665.039	595.33243
665.483	604.38225
665.927	621.3055
666.371	520.09215
666.814	559.20953
667.258	527.13241
667.701	610.17556
668.145	614.37418
668.588	569.26525
669.031	503.08122
669.474	545.19426
669.917	605.20028
670.36	569.28041
670.803	574.25604
671.245	583.10324
671.688	524.17203
672.13	515.05428
672.573	511.19606
673.015	492.08949
673.457	492.98637
673.899	493.10282
674.341	508.12778
674.783	466.03525
675.225	493.11911
675.666	475.05506
676.108	489.98058
676.549	528.14746
676.991	478.97601
677.432	473.86968
677.873	463.99746
678.314	541.18199
678.755	450.02072
679.196	418.89918
679.637	518.16668
680.078	490.06204
680.518	491.06036
680.959	444.99567
681.399	414.96722
681.839	450.02279
682.28	421.97681
682.72	423.90934
683.16	405.95195
683.6	474.005
684.039	449.87333
684.479	391.9083
684.919	378.82502
685.358	468.10786
685.798	413.0196
686.237	473.06539
686.676	452.98316
687.115	419.92784
687.554	393.88405
687.993	428.89018
688.432	406.87637
688.871	382.8221
689.309	404.91195
689.748	380.75549
690.186	443.99404
690.625	389.86429
691.063	425.95953
691.501	402.94103
691.939	418.98307
692.377	398.91926
692.815	363.82727
693.253	439.99275
693.69	407.84481
694.128	391.89753
694.565	402.9078
695.003	394.94859
695.44	367.82185
695.877	379.84068
696.314	393.80192
696.751	420.90464
697.188	402.87331
697.625	443.95643
698.061	351.80509
698.498	429.97882
698.934	393.89815
699.371	358.80418
699.807	426.94943
700.243	362.83115
700.679	455.96465
701.115	412.91823
701.551	377.84563
701.987	458.96402
702.422	396.89097
702.858	399.90048
703.294	375.80929
703.729	360.84176
704.164	402.91631
704.599	396.83574
705.035	399.84447
705.47	384.88694
705.904	383.84743
706.339	452.98692
706.774	363.81122
707.209	341.75326
707.643	384.87671
708.078	368.85438
708.512	336.80532
708.946	360.8249
709.38	370.8359
709.814	370.80654
710.248	360.83846
710.682	385.8696
711.116	331.75679
711.549	354.8742
711.983	354.78181
712.416	402.90077
712.85	385.9127
713.283	367.82828
713.716	390.93185
714.149	397.89816
714.582	377.80524
715.015	407.96595
715.448	378.90767
715.881	364.76079
716.313	353.79083
716.746	379.84802
717.178	311.72079
717.61	341.82957
718.043	345.82421
718.475	356.8249
718.907	411.98595
719.339	316.68914
719.77	289.66264
720.202	305.74451
720.634	314.73537
721.065	333.75769
721.497	322.75941
721.928	305.72226
722.359	265.62051
722.79	292.67582
723.221	340.8211
723.652	375.92315
724.083	290.63298
724.514	318.70349
724.945	315.71297
725.375	277.62289
725.806	278.67394
726.236	357.87497
726.666	295.67558
727.096	308.72922
727.526	244.6046
727.956	272.60023
728.386	299.71161
728.816	267.65613
729.246	256.60542
729.675	211.50971
730.105	276.65953
730.534	269.61184
730.964	307.74939
731.393	316.75711
731.822	258.64162
732.251	258.63742
732.68	293.66858
733.109	233.56157
733.537	248.58401
733.966	265.63965
734.395	220.49868
734.823	274.60084
735.251	222.52421
735.68	287.69666
736.108	238.58844
736.536	233.53811
736.964	232.52694
737.392	267.64934
737.82	236.55402
738.247	258.60188
738.675	258.60093
739.102	213.5219
739.53	175.4399
739.957	225.56638
740.384	285.68168
740.811	220.54674
741.238	248.59014
741.665	213.48487
742.092	240.56033
742.519	118.29145
742.945	185.43846
743.372	183.44707
743.798	230.57823
744.225	191.44778
744.651	160.39778
745.077	173.42642
745.503	200.48031
745.929	199.47
746.355	243.59054
746.781	186.45466
747.207	187.4324
747.632	169.40718
748.058	188.46245
748.483	202.45788
748.908	155.38191
749.334	193.46693
749.759	195.45286
750.184	146.34556
750.609	175.42514
751.033	204.47479
751.458	213.46974
751.883	186.45466
752.307	152.35531
752.732	126.31326
753.156	146.35808
753.58	185.43388
754.005	210.52322
754.429	146.34115
754.853	151.37096
755.277	175.40947
755.7	176.43117
756.124	166.40728
756.548	121.28634
756.971	175.42227
757.394	162.41284
757.818	125.32018
758.241	141.3552
758.664	111.27983
759.087	118.26335
759.51	115.28576
759.933	134.32084
760.356	110.28152
760.778	112.2751
761.201	132.3199
761.623	182.43592
762.046	174.40849
762.468	204.4819
762.89	138.33884
763.312	132.32099
763.734	126.30238
764.156	122.30033
764.578	184.41793
765	132.32062
765.421	98.24869
765.843	137.35656
766.264	153.36682
766.686	106.26613
767.107	132.31834
767.528	59.14986
767.949	96.24422
768.37	154.37448
768.791	136.32737
769.212	78.19646
769.632	84.19659
770.053	93.24478
770.473	95.23149
770.894	117.29221
771.314	180.42439
771.734	105.24492
772.154	118.30178
772.575	143.32948
772.994	50.11495
773.414	121.28988
773.834	84.21051
774.254	108.264
774.673	163.39258
775.093	112.27632
775.512	72.17816
775.931	122.30772
776.351	112.27724
776.77	93.22746
777.189	132.31219
777.607	106.26995
778.026	75.18745
778.445	82.20543
778.864	126.32122
779.282	96.23108
779.701	70.17713
780.119	81.20493
780.537	67.16788
780.955	157.3948
781.373	108.26636
781.791	80.18053
782.209	131.30026
782.627	78.20561
783.045	61.14139
783.462	85.21719
783.88	62.16095
784.297	110.27557
784.715	84.21558
785.132	56.13648
785.549	86.21514
785.966	77.19398
786.383	60.14836
786.8	85.19788
787.217	86.20411
787.633	73.18252
788.05	141.33212
788.466	124.29088
788.883	51.13073
789.299	89.21436
789.715	113.2734
790.131	38.0953
790.547	112.27835
790.963	105.25967
791.379	122.30618
791.795	105.23913
792.21	122.2835
792.626	85.20185
793.041	86.21218
793.457	144.352
793.872	75.1768
794.287	41.09864
794.702	85.20944
795.117	51.12737
795.532	70.17568
795.947	127.30344
796.362	137.3242
796.776	158.36542
797.191	123.29882
797.605	44.10406
798.02	100.24254
798.434	80.17861
798.848	92.22606
799.262	72.17881
799.676	117.28371
800.09	92.22589
800.504	76.18467
800.918	98.22647
801.331	127.33008
801.745	80.18399
802.158	78.19498
802.572	100.24181
802.985	93.22441
803.398	77.18384
803.811	118.30125
804.224	90.2236
804.637	85.20232
805.05	94.21749
805.462	64.15773
805.875	54.14038
806.288	77.18574
806.7	87.21823
807.112	104.24015
807.525	99.2434
807.937	96.23641
808.349	69.17308
808.761	95.23296
809.173	89.21525
809.584	117.28712
809.996	35.08634
810.408	42.10892
810.819	29.06887
811.231	34.08839
811.642	-12.02908
812.053	55.13131
812.464	87.20644
812.875	117.29664
813.286	101.25862
813.697	211.4809
814.108	94.22893
814.519	96.21336
814.929	111.28123
815.34	91.22009
815.75	66.16784
816.16	93.23101
816.571	75.19466
816.981	99.23283
817.391	103.24742
817.801	68.169
818.211	147.34571
818.62	80.19235
819.03	102.24869
819.44	126.32596
819.849	95.23838
820.259	73.18679
820.668	72.17705
821.077	67.16649
821.486	98.235
821.895	141.34409
822.304	112.29454
822.713	83.19588
823.122	101.2507
823.531	79.1871
823.939	92.2233
824.348	111.26795
824.756	44.11075
825.164	107.26752
825.573	55.13836
825.981	88.21759
826.389	128.31823
826.797	85.21229
827.205	47.10842
827.612	65.16057
828.02	15.03561
828.428	86.21832
828.835	54.1424
829.243	107.25331
829.65	35.08754
830.057	95.2295
830.464	115.27781
830.871	137.32395
831.278	42.10206
831.685	114.25231
832.092	94.2291
832.499	81.17692
832.905	87.21948
833.312	70.15977
833.718	105.25986
834.124	69.15778
834.531	110.27517
834.937	85.21742
835.343	92.22104
835.749	97.22546
836.155	59.15461
836.561	56.13801
836.966	108.26213
837.372	66.16796
837.777	41.10258
838.183	101.22321
838.588	99.2443
838.993	114.27514
839.399	92.2238
839.804	28.0687
840.209	62.15784
840.613	81.17976
841.018	65.16457
841.423	93.2373
841.828	101.25371
842.232	101.24859
842.637	86.20214
843.041	39.10035
843.445	67.16794
843.849	55.13637
844.253	97.22919
844.657	25.06336
845.061	102.2298
845.465	59.14264
845.869	117.26914
846.272	45.10994
846.676	95.22846
847.079	94.23761
847.483	117.28903
847.886	123.29602
848.289	39.10441
848.692	46.11682
849.095	110.26187
849.498	80.20215
849.901	84.19196
850.304	94.22335
850.707	112.28301
851.109	127.31764
851.512	93.22721
851.914	35.08858
852.316	80.20164
852.718	24.06233
853.121	70.17124
853.523	119.27506
853.925	67.1745
854.326	60.14999
854.728	100.2553
855.13	57.14703
855.531	79.18811
855.933	110.26167
856.334	94.23285
856.736	92.20481
857.137	79.18304
857.538	59.14831
857.939	72.17744
858.34	118.28447
858.741	72.18775
859.142	68.16313
859.542	56.14777
859.943	46.11458
860.343	44.10923
860.744	87.2112
861.144	77.18721
861.544	53.12751
861.945	68.17299
862.345	108.26174
862.745	74.18338
863.145	146.34329
863.544	43.10895
863.944	60.14174
864.344	100.24654
864.743	120.29442
865.143	115.2924
865.542	28.06535
865.941	102.25045
866.34	124.29338
866.74	83.22177
867.139	51.12228
867.537	65.16539
867.936	73.17522
868.335	49.12485
868.734	95.24112
869.132	126.28886
869.531	99.23763
869.929	29.0665
870.327	78.18626
870.726	121.29825
871.124	122.2816
871.522	89.22541
871.92	100.24472
872.318	94.22824
872.715	55.13622
873.113	66.16056
873.511	58.14446
873.908	48.12133
874.306	18.04508
874.703	100.24826
875.1	111.28123
875.497	50.12004
875.894	56.1372
876.291	37.09114
876.688	57.14698
877.085	87.20755
877.482	83.20677
877.878	62.14907
878.275	42.10696
878.671	135.29586
879.068	66.15905
879.464	75.18064
879.86	49.11605
880.256	82.20142
880.652	68.17256
881.048	90.22164
881.444	108.25454
881.84	115.28919
882.236	113.2812
882.631	101.24583
883.027	116.27774
883.422	50.12796
883.817	43.10829
884.213	80.20438
884.608	60.147
885.003	99.23672
885.398	60.15004
885.793	55.13806
886.188	33.08236
886.582	129.3266
886.977	122.28586
887.371	70.17657
887.766	33.08239
888.16	88.21831
888.554	122.298
888.949	114.28322
889.343	85.2065
889.737	9.02416
890.131	69.17264
890.525	86.2187
890.918	54.13592
891.312	82.19521
891.706	111.2884
892.099	106.26727
892.492	71.15271
892.886	53.12973
893.279	56.14261
893.672	59.15007
894.065	75.18711
894.458	90.2249
894.851	132.31882
895.244	61.15559
895.637	84.2012
896.029	88.21383
896.422	93.2256
896.814	62.15392
897.206	35.08366
897.599	134.32658
897.991	77.18538
898.383	78.18348
898.775	93.20828
899.167	53.12363
899.559	67.16921
899.951	83.19459
900.342	106.26708
900.734	22.0549
901.125	98.25519
901.517	80.19541
901.908	88.20966
902.299	59.14409
902.69	89.20858
903.082	80.19279
903.473	54.1293
903.863	81.20566
904.254	76.17563
904.645	114.28043
905.036	65.15703
905.426	113.25568
905.817	102.24804
906.207	51.12158
906.597	34.07982
906.987	127.32496
907.378	75.18894
907.768	43.11387
908.158	89.21557
908.547	56.14457
908.937	60.15377
909.327	107.25722
909.717	94.23693
910.106	70.16761
910.495	106.2621
910.885	86.21654
911.274	76.18916
911.663	106.26651
912.052	107.26141
912.441	42.107
912.83	95.21626
913.219	89.23148
913.608	102.24757
913.997	41.10299
914.385	109.25764
914.774	79.19142
915.162	79.18731
915.55	115.27498
915.939	83.20834
916.327	71.17662
916.715	71.18034
917.103	130.31541
917.491	85.20905
917.878	53.1303
918.266	68.17586
918.654	48.12272
919.041	35.09162
919.429	40.09464
919.816	114.2858
920.203	68.16443
920.591	103.25304
920.978	84.2045
921.365	76.19858
921.752	103.24318
922.139	78.16845
922.525	56.13439
922.912	75.18214
923.299	86.21241
923.685	56.14598
924.072	100.22843
924.458	79.19473
924.844	73.17994
925.231	42.09795
925.617	40.10194
926.003	109.27577
926.389	45.11365
926.774	92.23148
927.16	107.26306
927.546	36.09213
927.931	129.31738
928.317	129.29259
928.702	102.239
929.088	56.13234
929.473	56.14236
929.858	51.1233
930.243	92.2191
930.628	50.12168
931.013	71.17533
931.398	116.26337
931.783	89.23283
932.167	77.18735
932.552	105.26053
932.937	111.2725
933.321	77.19231
933.705	89.22284
934.09	123.30686
934.474	139.3246
934.858	76.19627
935.242	83.19116
935.626	53.13562
936.009	39.10393
936.393	55.13985
936.777	77.19627
937.16	73.18921
937.544	65.15275
937.927	100.25151
938.311	133.31972
938.694	110.28801
939.077	64.15283
939.46	108.26243
939.843	113.23257
940.226	74.18905
940.609	95.21618
940.991	62.1575
941.374	67.16326
941.757	90.22049
942.139	66.14778
942.522	94.22034
942.904	94.22412
943.286	89.22461
943.668	36.09349
944.05	80.19599
944.432	53.13074
944.814	71.17424
945.196	32.07825
945.578	48.11414
945.959	77.17954
946.341	88.21455
946.722	103.23931
947.104	66.1573
947.485	66.15313
947.866	35.08843
948.247	89.223
948.628	138.33117
949.009	26.06687
949.39	92.22731
949.771	105.24164
950.152	66.16152
950.532	13.0322
950.913	104.24835
951.293	59.15915
951.674	75.18057
952.054	45.11162
952.434	67.16582
952.814	112.26335
953.194	101.26206
953.574	127.30842
953.954	56.13286
954.334	87.21539
954.714	70.16997
955.093	95.23166
955.473	76.18916
955.853	100.25664
956.232	81.22091
956.611	117.27709
956.99	87.21721
957.37	66.16773
957.749	116.27329
958.128	33.0834
958.506	61.15795
958.885	88.22062
959.264	53.12982
959.643	107.24072
960.021	51.12636
960.4	69.15581
960.778	96.23449
961.156	69.17239
961.535	76.17626
961.913	101.23401
962.291	78.19913
962.669	61.15422
963.047	50.1276
963.424	97.2455
963.802	72.17633
964.18	83.20879
964.557	110.25036
964.935	118.27594
965.312	87.22511
965.69	67.16727
966.067	119.28607
966.444	97.23698
966.821	117.29812
967.198	78.18825
967.575	107.26034
967.952	79.18514
968.329	71.1721
968.705	106.2246
969.082	74.18899
969.458	77.18377
969.835	56.13618
970.211	35.09006
970.587	76.18833
970.963	108.27426
971.339	60.1564
971.715	109.26927
972.091	66.16206
972.467	71.17643
972.843	65.16087
973.219	114.27045
973.594	66.17216
973.97	171.3976
974.345	61.14569
974.721	114.27275
975.096	85.20433
975.471	47.11157
975.846	84.20051
976.221	58.14708
976.596	52.1246
976.971	94.23021
977.346	101.2328
977.72	77.19523
978.095	75.19299
978.469	84.19921
978.844	81.20252
979.218	39.09368
979.593	107.2536
979.967	81.1962
980.341	105.23913
980.715	72.1807
981.089	109.26996
981.463	77.17586
981.837	91.22067
982.21	150.34223
982.584	58.13988
982.957	62.15448
983.331	78.18341
983.704	66.1617
984.078	53.13055
984.451	135.33202
984.824	42.10244
985.197	87.20986
985.57	87.21673
985.943	109.2663
986.316	114.2768
986.688	94.22481
987.061	76.17724
987.434	50.13029
987.806	106.25438
988.179	50.11798
988.551	134.33485
988.923	77.18868
989.295	108.26704
989.667	50.11944
990.039	76.18689
990.411	85.19428
990.783	147.33193
991.155	34.08194
991.527	139.33668
991.898	74.18358
992.27	41.10158
992.641	117.28998
993.012	97.22617
993.384	71.16867
993.755	57.14514
994.126	76.1819
994.497	57.13972
994.868	101.22964
995.239	68.16424
995.61	52.13079
995.98	50.12145
996.351	79.19459
996.722	49.11367
997.092	53.12542
997.462	22.05167
997.833	97.22786
998.203	87.20946
998.573	39.0973
998.943	116.2685
999.313	99.235
999.683	91.21668
1000.053	88.20094
1000.423	95.22889
1000.792	81.20879
1001.162	38.09372
1001.531	75.18405
1001.901	73.1812
1002.27	93.20605
1002.639	72.18323
1003.009	79.18681
1003.378	78.19843
1003.747	104.24311
1004.116	64.15271
1004.485	46.11001
1004.853	71.17918
1005.222	75.18826
1005.591	89.20972
1005.959	86.19233
1006.328	64.1436
1006.696	60.14443
1007.064	87.21736
1007.433	104.25734
1007.801	93.22645
1008.169	79.19845
1008.537	85.18683
1008.905	54.12569
1009.273	63.15523
1009.64	44.10507
1010.008	99.23374
1010.375	146.3481
1010.743	160.36135
1011.11	69.16265
1011.478	82.20171
1011.845	101.23512
1012.212	51.1154
1012.579	66.16152
1012.946	103.24261
1013.313	125.29317
1013.68	119.26365
1014.047	55.13091
1014.414	74.17393
1014.78	32.07976
1015.147	94.22541
1015.513	81.19398
1015.88	89.22597
1016.246	113.27566
1016.612	111.25095
1016.978	110.26649
1017.344	51.12599
1017.71	121.29109
1018.076	113.26316
1018.442	82.20971
1018.808	19.04775
1019.174	63.15763
1019.539	176.39489
1019.905	72.16903
1020.27	57.14045
1020.636	98.23276
1021.001	72.1716
1021.366	53.12717
1021.731	96.24483
1022.096	46.11607
1022.461	73.17195
1022.826	98.2307
1023.191	92.23957
1023.556	74.17257
1023.92	96.23397
1024.285	75.18214
1024.649	70.17086
1025.014	80.19701
1025.378	81.20245
1025.742	105.25805
1026.107	87.19525
1026.471	123.28295
1026.835	83.20444
1027.199	31.07486
1027.562	45.10468
1027.926	90.21836
1028.29	39.09885
1028.654	88.20086
1029.017	117.28393
1029.381	44.10519
1029.744	95.24027
1030.107	86.20198
1030.471	82.19506
1030.834	103.23172
1031.197	93.22212
1031.56	100.23358
1031.923	84.21581
1032.286	108.25067
1032.648	107.25301
1033.011	32.07369
1033.374	114.2645
1033.736	49.1288
1034.099	109.26262
1034.461	24.06088
1034.823	71.17604
1035.185	120.29813
1035.548	68.16486
1035.91	90.21385
1036.272	110.24722
1036.634	146.35064
1036.995	68.15921
1037.357	70.16958
1037.719	100.2408
1038.08	95.22351
1038.442	101.23725
1038.803	97.2307
1039.165	73.18338
1039.526	60.14465
1039.887	82.19491
1040.248	15.03718
1040.609	76.18682
1040.97	77.18714
1041.331	72.18148
1041.692	92.21286
1042.053	102.22971
1042.413	103.23741
1042.774	109.26203
1043.134	119.27943
1043.495	65.16287
1043.855	63.15237
1044.215	59.14613
1044.576	89.2111
1044.936	81.18447
1045.296	95.23503
1045.656	81.19752
1046.016	89.21314
1046.375	70.16907
1046.735	42.09532
1047.095	81.18834
1047.454	111.23196
1047.814	67.16045
1048.173	94.22258
1048.533	81.18432
1048.892	5.0121
1049.251	104.25838
1049.61	64.15709
1049.969	93.21727
1050.328	83.1786
1050.687	68.1648
1051.046	70.16971
1051.405	79.19537
1051.763	31.07151
1052.122	45.11227
1052.48	69.16851
1052.839	48.11291
1053.197	88.20547
1053.555	126.28271
1053.914	88.21359
1054.272	90.21582
1054.63	10.02462
1054.988	61.14452
1055.345	72.15423
1055.703	91.21718
1056.061	48.12345
1056.419	71.18301
1056.776	119.28465
1057.134	42.09733
1057.491	76.1893
1057.848	57.14164
1058.206	114.2646
1058.563	54.11887
1058.92	97.22135
1059.277	73.17921
1059.634	131.30316
1059.991	111.26268
1060.348	48.10845
1060.704	69.16373
1061.061	115.26359
1061.418	32.07782
1061.774	43.10623
1062.131	54.14259
1062.487	100.23137
1062.843	91.22505
1063.199	77.19043
1063.555	89.20449
1063.911	63.15865
1064.267	146.29785
1064.623	40.09727
1064.979	107.25056
1065.335	140.32867
1065.691	72.17174
1066.046	67.14671
1066.402	56.12699
1066.757	68.17097
1067.112	114.27628
1067.468	74.1738
1067.823	93.22161
1068.178	91.21826
1068.533	86.20693
1068.888	79.1876
1069.243	76.18654
1069.598	83.20028
1069.952	24.05429
1070.307	60.14814
1070.662	52.12332
1071.016	51.11417
1071.371	64.14508
1071.725	58.13845
1072.079	61.14631
1072.434	71.17172
1072.788	98.23106
1073.142	133.3219
1073.496	55.13026
1073.85	76.17521
1074.203	108.25898
1074.557	70.18539
1074.911	92.21767
1075.265	60.1391
1075.618	93.22509
1075.971	82.19371
1076.325	25.06377
1076.678	59.13458
1077.031	46.1041
1077.385	76.16638
1077.738	80.17935
1078.091	14.03204
1078.444	80.18451
1078.796	95.23097
1079.149	92.2269
1079.502	39.09226
1079.855	75.17391
1080.207	99.24151
1080.56	48.12401
1080.912	85.20542
1081.264	78.18669
1081.617	51.12418
1081.969	25.0633
1082.321	118.28425
1082.673	85.19248
1083.025	60.14196
1083.377	110.23287
1083.728	49.11425
1084.08	73.18133
1084.432	79.18933
1084.783	122.2816
1085.135	70.17467
1085.486	57.13013
1085.838	79.19337
1086.189	70.16914
1086.54	112.26407
1086.891	48.12133
1087.242	82.19828
1087.593	98.23626
1087.944	66.14876
1088.295	102.22924
1088.646	74.1784
1088.996	26.06287
1089.347	88.21423
1089.698	11.02617
1090.048	102.26232
1090.398	72.16613
1090.749	88.20885
1091.099	19.048
1091.449	47.11704
1091.799	89.22107
1092.149	4.00983
1092.499	76.18433
1092.849	27.06885
1093.199	73.18206
1093.548	52.12479
1093.898	88.21847
1094.248	98.24949
1094.597	26.06659
1094.947	109.28767
1095.296	75.18419
1095.645	109.28037
1095.994	110.26096
1096.343	79.19759
1096.692	40.10516
1097.041	34.09221
1097.39	57.14267
1097.739	60.15554
1098.088	88.23408
1098.437	12.0317
1098.785	107.28552
1099.134	88.23197
1099.482	74.20257
1099.83	79.20639
1100.179	45.11736
1100.527	76.20088
1100.875	76.19987
1101.223	101.26566
1101.571	72.1981
1101.919	2.00526
1102.267	40.11269
1102.615	1.00322
1102.962	13.04184
1103.31	-1.00322
1103.658	16.0515
