Data from N2 R15 sample 1_Subt2__4__15-33-10-495.txt Node

Date: Tue Sep 02 15:33:10 PDT 2025
User: uwsun
Spectrometer: HDX01956
Trigger mode: 0
Integration Time (sec): 5.000000E-1
Scans to average: 1
Nonlinearity correction enabled: true
Boxcar width: 0
Storing dark spectrum: false
XAxis mode: Wavelengths
Number of Pixels in Spectrum: 2068
>>>>>Begin Spectral Data<<<<<
194.03	227.61467
194.578	249.76283
195.127	232.70129
195.676	220.66825
196.225	287.72448
196.773	335.86874
197.321	429.06653
197.87	558.23588
198.418	555.21211
198.966	543.19687
199.513	528.10557
200.061	496.06546
200.609	590.32366
201.156	506.91845
201.704	495.05669
202.251	514.15908
202.798	503.11273
203.345	525.10001
203.892	571.20235
204.438	578.14957
204.985	533.04636
205.532	597.31221
206.078	583.18997
206.624	599.21327
207.17	599.14464
207.716	508.0364
208.262	604.95897
208.808	525.07721
209.354	575.1582
209.899	657.374
210.445	552.14215
210.99	568.13174
211.535	608.17732
212.08	580.11604
212.625	564.1842
213.17	604.27557
213.715	532.97254
214.259	622.18839
214.804	597.22962
215.348	604.13554
215.892	589.17175
216.436	613.17145
216.98	616.11611
217.524	587.14716
218.068	616.29071
218.612	581.22827
219.155	588.14558
219.698	521.04684
220.242	581.21915
220.785	513.01319
221.328	549.15646
221.871	559.20335
222.414	553.16694
222.956	494.00778
223.499	514.97479
224.041	519.0265
224.583	551.99788
225.126	553.01422
225.668	513.05681
226.21	545.15808
226.751	477.87924
227.293	550.05363
227.835	538.10667
228.376	547.06328
228.918	567.21118
229.459	497.05179
230	536.07332
230.541	551.06344
231.082	529.08201
231.622	591.12987
232.163	468.96947
232.704	489.03212
233.244	537.12371
233.784	561.16002
234.324	497.90969
234.864	506.96617
235.404	569.13242
235.944	539.0756
236.484	568.19314
237.023	588.14884
237.563	515.99885
238.102	550.08615
238.641	557.18568
239.18	553.07088
239.719	564.18837
240.258	503.9523
240.797	503.01339
241.335	542.11641
241.874	560.87069
242.412	602.19182
242.95	545.08105
243.488	576.08439
244.026	525.00734
244.564	619.02356
245.102	490.92247
245.64	567.14101
246.177	558.03241
246.715	573.14463
247.252	560.06662
247.789	646.96596
248.326	546.0848
248.863	541.97627
249.4	580.08283
249.936	560.93716
250.473	549.05754
251.009	520.98858
251.546	580.0406
252.082	577.03069
252.618	512.94496
253.154	571.12902
253.69	589.08039
254.226	525.04276
254.761	569.04467
255.297	570.0137
255.832	575.11622
256.367	560.08679
256.903	617.08755
257.438	582.12258
257.972	593.07025
258.507	550.02824
259.042	623.0827
259.576	571.98783
260.111	620.16167
260.645	572.00516
261.179	526.01145
261.713	538.97954
262.247	606.13259
262.781	572.96198
263.315	553.11432
263.849	556.14735
264.382	590.10318
264.915	620.16568
265.449	589.15815
265.982	587.08375
266.515	643.26214
267.048	599.00794
267.58	633.10535
268.113	603.03568
268.646	578.16452
269.178	577.03441
269.71	598.04602
270.243	608.11727
270.775	579.20746
271.307	589.1576
271.838	661.26091
272.37	580.1632
272.902	659.18782
273.433	592.03278
273.965	595.17381
274.496	628.26543
275.027	558.13241
275.558	608.18743
276.089	550.0953
276.62	597.2423
277.15	685.34725
277.681	664.13007
278.211	610.2105
278.741	525.93189
279.272	572.04518
279.802	640.28314
280.332	568.07716
280.861	611.17834
281.391	636.13252
281.921	658.25973
282.45	627.2608
282.98	650.36265
283.509	661.15861
284.038	633.13387
284.567	674.23758
285.096	599.15903
285.625	623.11018
286.153	601.11519
286.682	653.16196
287.21	594.13754
287.739	634.17743
288.267	591.13697
288.795	653.37527
289.323	663.19688
289.851	707.27453
290.378	644.11958
290.906	613.16352
291.433	631.24321
291.961	655.13905
292.488	677.31523
293.015	642.16865
293.542	659.30151
294.069	674.28109
294.596	691.32844
295.122	704.28369
295.649	687.14825
296.175	683.28026
296.702	684.2812
297.228	769.41486
297.754	676.14931
298.28	701.19481
298.806	666.22593
299.332	719.17496
299.857	714.20036
300.383	746.44159
300.908	631.17039
301.433	647.20192
301.958	767.31534
302.483	736.37743
303.008	725.35781
303.533	695.39647
304.058	742.30605
304.582	683.20542
305.107	723.42477
305.631	830.36564
306.155	743.26454
306.679	711.22232
307.203	796.32842
307.727	746.29941
308.251	729.34045
308.775	756.29469
309.298	761.31548
309.822	776.43956
310.345	778.3289
310.868	801.3694
311.391	808.43809
311.914	774.40591
312.437	808.30577
312.96	843.38671
313.482	783.31705
314.005	790.42559
314.527	821.54854
315.049	855.53568
315.571	841.25758
316.093	882.5119
316.615	818.37048
317.137	915.3047
317.659	912.51515
318.18	859.43036
318.702	925.42384
319.223	883.16386
319.744	874.28945
320.265	912.46201
320.786	863.43153
321.307	960.56981
321.828	986.40609
322.348	936.41929
322.869	895.36129
323.389	772.75004
323.909	1007.43487
324.43	975.51526
324.95	980.37999
325.47	993.52362
325.989	977.41547
326.509	1025.31003
327.029	1082.39824
327.548	1052.35915
328.067	1020.46399
328.587	1089.62172
329.106	1048.36776
329.625	1130.81519
330.144	1084.40942
330.662	1094.41101
331.181	1155.48488
331.7	1132.45949
332.218	1118.2734
332.736	1173.47337
333.255	1122.40425
333.773	1120.43307
334.291	1175.6165
334.808	1234.35263
335.326	1209.36243
335.844	1258.41473
336.361	1209.57836
336.879	1242.39328
337.396	1297.49982
337.913	1321.38656
338.43	1285.30599
338.947	1309.44237
339.464	1338.18607
339.981	1289.38279
340.497	1381.5514
341.014	1356.47269
341.53	1269.22181
342.046	1406.483
342.562	1394.53605
343.078	1446.37454
343.594	1477.41762
344.11	1559.41961
344.626	1525.54972
345.141	1522.25651
345.657	1570.27399
346.172	1504.38076
346.687	1472.22195
347.202	1570.16766
347.717	1652.34487
348.232	1588.45536
348.747	1566.19149
349.261	1536.99583
349.776	1680.23945
350.29	1604.30788
350.805	1741.39823
351.319	1662.17784
351.833	1699.05136
352.347	1667.15915
352.861	1678.11278
353.374	1719.1138
353.888	1716.21843
354.401	1754.05073
354.915	1801.91735
355.428	1799.22683
355.941	1752.01182
356.454	1925.94662
356.967	1757.0677
357.48	1908.9706
357.993	1865.15714
358.505	1777.0941
359.018	1951.08471
359.53	2009.98492
360.042	1981.77378
360.554	1963.01694
361.066	1959.99204
361.578	1983.67203
362.09	2009.90716
362.602	1972.65641
363.113	1971.78128
363.625	2038.65505
364.136	2101.57747
364.647	2038.62303
365.158	2138.6618
365.669	2197.7218
366.18	2169.6649
366.691	2192.45199
367.201	2141.66647
367.712	2193.46373
368.222	2175.46364
368.733	2199.25704
369.243	2236.25794
369.753	2318.35021
370.263	2324.40963
370.773	2366.45994
371.282	2352.28249
371.792	2423.00434
372.301	2427.15784
372.811	2514.34049
373.32	2482.68133
373.829	2469.8712
374.338	2746.52886
374.847	2747.52266
375.356	2759.5136
375.865	2895.10309
376.373	3055.0742
376.882	3147.26108
377.39	3169.06786
377.898	3158.94515
378.407	3372.68109
378.915	3623.56031
379.423	3758.54806
379.93	3811.52029
380.438	3877.52411
380.946	4095.61861
381.453	4181.72706
381.96	4358.04832
382.468	4673.88914
382.975	5092.55589
383.482	5297.71191
383.989	5123.93747
384.495	5280.49481
385.002	5553.28985
385.509	5927.7651
386.015	6372.23014
386.521	6548.19382
387.028	6647.77031
387.534	7089.8748
388.04	7494.23633
388.546	7194.61493
389.051	7599.32473
389.557	8454.39043
390.063	9502.53622
390.568	9638.53745
391.073	9692.73851
391.578	9935.83978
392.084	10375.97184
392.589	10260.90886
393.093	10962.30172
393.598	12142.35778
394.103	13341.13331
394.607	14717.34048
395.112	15883.72701
395.616	16800.24297
396.12	17908.17517
396.624	19895.28946
397.128	22048.70299
397.632	24466.749
398.136	26480.97458
398.639	26448.22655
399.143	28190.74214
399.646	27811.86581
400.15	24917.7563
400.653	20124.16724
401.156	13866.23708
401.659	5169.95759
402.162	1054.15589
402.664	0
403.167	0
403.67	0
404.172	0
404.674	0
405.176	0
405.678	0
406.18	0
406.682	0
407.184	0
407.686	0
408.187	0
408.688	0
409.19	0
409.691	0
410.192	0
410.693	0
411.194	435.30976
411.694	4082.94878
412.195	8864.71461
412.696	12089.80453
413.196	12760.96929
413.696	12863.67595
414.196	13703.56671
414.696	17261.84252
415.196	21764.24417
415.696	29583.19008
416.196	36460.31858
416.695	40057.39798
417.195	32625.51751
417.694	30653.45555
418.194	29830.23975
418.693	27231.0014
419.192	26054.37177
419.691	25609.21342
420.19	25113.58113
420.688	24991.58622
421.187	23819.59129
421.685	22538.49106
422.184	21000.24909
422.682	18234.87592
423.18	15343.10933
423.678	13305.91794
424.176	12263.39054
424.674	11593.4402
425.172	11154.2058
425.669	10545.09387
426.167	10077.27782
426.664	9117.24409
427.161	8284.07426
427.659	7545.79068
428.156	7049.33279
428.652	6494.93913
429.149	6248.7049
429.646	6027.79247
430.143	5938.09381
430.639	5460.63676
431.135	5126.54568
431.632	4769.1369
432.128	4451.68478
432.624	4061.52161
433.12	3910.54426
433.616	3933.53646
434.111	3583.55077
434.607	3494.62019
435.103	3596.57298
435.598	3427.63621
436.093	3347.88821
436.588	3206.98717
437.083	3102.13817
437.578	2880.37883
438.073	2556.72989
438.568	2649.84292
439.062	2528.60621
439.557	2554.9374
440.051	2333.95822
440.546	2178.06788
441.04	2194.24269
441.534	2108.50055
442.028	2192.38018
442.522	2049.43517
443.015	2092.22464
443.509	2087.56847
444.002	1902.6259
444.496	1907.37232
444.989	1811.70077
445.482	1788.75647
445.975	1724.51392
446.468	1793.42008
446.961	1779.43742
447.454	1711.6079
447.947	1713.69768
448.439	1689.8342
448.931	1597.63072
449.424	1709.97674
449.916	1618.87741
450.408	1515.68821
450.9	1489.86912
451.392	1495.99346
451.884	1514.81257
452.375	1291.92916
452.867	1506.83007
453.358	1365.77969
453.849	1400.6815
454.341	1380.80875
454.832	1368.7245
455.323	1343.98785
455.814	1337.8952
456.304	1298.90361
456.795	1274.89323
457.285	1355.90256
457.776	1324.9708
458.266	1182.96861
458.756	1258.05842
459.247	1190.99062
459.737	1105.96719
460.226	1142.89042
460.716	1123.01672
461.206	1102.03953
461.695	1063.12803
462.185	1083.02355
462.674	1083.99814
463.163	1079.93437
463.653	1043.83536
464.142	984.03781
464.63	1013.11394
465.119	939.9568
465.608	1009.00463
466.096	950.90893
466.585	965.02941
467.073	958.09759
467.561	910.07433
468.05	900.01973
468.538	892.11737
469.026	914.09493
469.513	841.84618
470.001	852.96496
470.489	843.02724
470.976	873.03371
471.463	835.13945
471.951	777.10219
472.438	665.88571
472.925	670.88556
473.412	787.11292
473.899	772.99697
474.385	720.04651
474.872	687.93342
475.359	658.97206
475.845	645.76492
476.331	685.8791
476.817	688.03453
477.303	624.89702
477.789	582.89648
478.275	550.8887
478.761	564.88615
479.247	576.82686
479.732	551.90468
480.218	549.96894
480.703	554.92406
481.188	500.70236
481.673	492.75726
482.158	469.65141
482.643	494.88663
483.128	468.72582
483.612	502.80604
484.097	540.922
484.581	473.77306
485.066	401.70136
485.55	372.5782
486.034	405.61646
486.518	365.6199
487.002	379.67616
487.486	360.64907
487.969	306.56046
488.453	378.71684
488.936	349.58022
489.42	347.5699
489.903	354.68116
490.386	-75.10069
490.869	376.60946
491.352	334.63308
491.835	344.53184
492.318	306.52601
492.8	329.51119
493.283	292.58026
493.765	286.55004
494.247	352.63757
494.73	253.43757
495.212	261.50474
495.694	238.43877
496.175	207.38899
496.657	314.58586
497.139	285.3817
497.62	186.35358
498.102	228.4552
498.583	231.47029
499.064	229.40535
499.545	256.46603
500.026	212.38181
500.507	204.38477
500.988	180.36905
501.469	160.33057
501.949	196.40022
502.43	133.26066
502.91	161.2703
503.39	189.39372
503.87	141.27424
504.35	231.4478
504.83	143.25853
505.31	162.32583
505.79	112.22454
506.269	202.39017
506.749	116.22137
507.228	94.18584
507.707	149.2742
508.187	209.41523
508.666	70.14638
509.145	69.13702
509.623	128.25294
510.102	139.28441
510.581	172.35025
511.059	113.24012
511.538	120.26604
512.016	162.32598
512.494	168.34445
512.972	138.27897
513.45	30.05956
513.928	152.3108
514.406	88.17961
514.884	121.26596
515.361	147.29805
515.839	134.25808
516.316	94.19403
516.793	141.30601
517.27	126.26254
517.747	107.23618
518.224	60.12062
518.701	138.26118
519.178	78.16657
519.654	93.19201
520.131	132.27994
520.607	109.23434
521.083	77.15212
521.56	105.21377
522.036	157.29314
522.512	130.2775
522.987	63.12955
523.463	73.15092
523.939	146.30841
524.414	79.1593
524.89	75.15527
525.365	71.13994
525.84	78.16014
526.315	150.30963
526.79	143.27654
527.265	63.12563
527.74	102.21594
528.215	102.20884
528.689	88.16908
529.164	120.22533
529.638	104.23412
530.112	74.15213
530.587	80.14778
531.061	14.02987
531.534	95.20187
532.008	133.2762
532.482	135.26858
532.956	58.12998
533.429	106.22441
533.903	177.33589
534.376	147.27992
534.849	121.2441
535.322	143.29246
535.795	106.22696
536.268	120.25115
536.741	132.27639
537.213	160.31973
537.686	116.24601
538.158	153.29389
538.631	141.29935
539.103	108.21021
539.575	162.29086
540.047	170.32143
540.519	218.44676
540.991	194.41034
541.463	198.41256
541.934	177.34853
542.406	187.38262
542.877	234.44786
543.348	214.44392
543.82	223.46972
544.291	269.53219
544.762	242.48584
545.233	236.50377
545.703	297.54493
546.174	287.55928
546.645	258.51581
547.115	306.61433
547.585	391.73226
548.056	349.68755
548.526	446.83508
548.996	455.87826
549.466	549.05602
549.935	495.91792
550.405	533.89658
550.875	604.09043
551.344	623.14059
551.814	674.1564
552.283	686.10244
552.752	612.07169
553.221	720.12452
553.69	838.30723
554.159	850.48728
554.628	892.3692
555.096	931.66482
555.565	1013.51065
556.033	1052.68647
556.502	1009.70035
556.97	1246.75433
557.438	1222.90634
557.906	1275.97865
558.374	1295.91111
558.842	1418.13462
559.31	1559.06187
559.777	1570.29467
560.245	1794.38436
560.712	1878.37651
561.18	2028.24636
561.647	2143.33372
562.114	2309.43986
562.581	2448.84839
563.048	2663.55418
563.514	2802.83821
563.981	3123.45679
564.448	3294.29515
564.914	3566.41643
565.381	3821.18107
565.847	4077.22054
566.313	4283.0727
566.779	4505.75584
567.245	4934.73281
567.711	5199.72984
568.176	5506.18465
568.642	5813.71909
569.108	6153.48034
569.573	6596.20763
570.038	6807.75014
570.504	7247.11373
570.969	7844.90239
571.434	8019.70669
571.899	8543.55965
572.363	8934.22886
572.828	9375.23776
573.293	9923.81427
573.757	10397.47127
574.222	10618.49865
574.686	10988.12043
575.15	11466.08278
575.614	11767.96869
576.078	12070.55125
576.542	12416.98205
577.006	12468.44175
577.469	12934.56089
577.933	12872.37184
578.396	13140.55902
578.86	13294.83706
579.323	13189.94898
579.786	13331.23643
580.249	13068.58356
580.712	13158.33653
581.175	12945.72541
581.637	12777.23584
582.1	12679.06278
582.563	12536.28364
583.025	12251.32094
583.487	11950.08316
583.95	11789.60764
584.412	11562.41697
584.874	11387.50637
585.336	10913.43173
585.797	10677.85795
586.259	10487.6822
586.721	10218.73335
587.182	9992.96022
587.643	9591.82115
588.105	9351.14993
588.566	8997.39024
589.027	8809.01715
589.488	8765.90232
589.949	8334.31327
590.41	8208.86569
590.87	7996.79085
591.331	7883.5516
591.791	7575.42941
592.252	7403.28097
592.712	7234.41392
593.172	7073.08841
593.632	6946.96803
594.092	6738.97603
594.552	6599.81661
595.011	6296.08745
595.471	6107.01886
595.931	6034.01235
596.39	5890.42903
596.849	5801.31177
597.308	5692.00004
597.768	5597.94051
598.227	5432.68663
598.685	5383.44705
599.144	5154.63741
599.603	5100.75294
600.062	5049.08438
600.52	4874.49552
600.978	4872.88192
601.437	4673.7908
601.895	4587.39704
602.353	4452.73597
602.811	4349.7811
603.269	4347.23057
603.727	4258.27622
604.184	4052.00453
604.642	4097.50308
605.099	4086.17589
605.557	3954.55111
606.014	3852.86136
606.471	3747.74526
606.928	3768.8519
607.385	3586.62129
607.842	3781.22321
608.299	3695.38822
608.755	3572.61622
609.212	3522.1725
609.668	3317.20854
610.125	3421.70431
610.581	3353.6848
611.037	3249.50376
611.493	3183.69995
611.949	3036.79018
612.405	3072.89948
612.861	3016.7319
613.316	2995.77243
613.772	2883.6004
614.227	2839.73294
614.683	2780.31448
615.138	2681.70204
615.593	2614.67455
616.048	2631.63057
616.503	2672.99175
616.958	2545.05132
617.412	2487.76899
617.867	2442.44654
618.321	2508.21669
618.776	2382.48346
619.23	2394.73836
619.684	2345.58283
620.138	2336.71369
620.592	2249.87418
621.046	2217.73157
621.5	2088.8178
621.954	2160.55702
622.407	2032.46743
622.861	2030.80466
623.314	2034.56216
623.768	1998.62919
624.221	1907.01726
624.674	1887.53948
625.127	1783.53898
625.58	1902.53943
626.033	1874.41502
626.485	1761.61145
626.938	1801.63658
627.39	1706.49018
627.843	1699.47304
628.295	1649.4373
628.747	1692.56868
629.199	1642.38383
629.651	1631.37415
630.103	1537.33009
630.555	1530.10012
631.006	1517.40007
631.458	1507.40986
631.909	1528.36621
632.361	1435.31968
632.812	1374.22719
633.263	1457.11921
633.714	1448.10018
634.165	1392.40921
634.616	1344.29883
635.067	1335.10872
635.518	1263.2246
635.968	1326.85276
636.419	1259.98431
636.869	1251.21022
637.319	1239.11666
637.769	1262.05706
638.219	1193.16077
638.669	1144.08585
639.119	1140.14644
639.569	1090.04705
640.019	1132.00693
640.468	1158.95614
640.918	1106.07718
641.367	1061.85129
641.816	1123.9229
642.265	1080.94734
642.714	1050.90948
643.163	1084.94165
643.612	1000.91579
644.061	990.6434
644.51	988.79285
644.958	1013.75246
645.406	1049.98811
645.855	965.92461
646.303	979.84532
646.751	967.76487
647.199	996.80832
647.647	952.77025
648.095	998.82753
648.543	950.5534
648.99	1006.931
649.438	1001.89607
649.885	936.90854
650.333	937.44154
650.78	894.78822
651.227	904.81991
651.674	896.6783
652.121	888.79749
652.568	882.78289
653.015	904.91067
653.461	864.71381
653.908	876.69645
654.354	864.72735
654.801	810.60283
655.247	915.64455
655.693	803.79638
656.139	837.69222
656.585	874.75462
657.031	802.58032
657.477	802.45393
657.922	850.63741
658.368	818.72127
658.813	864.68752
659.259	789.61764
659.704	804.5902
660.149	799.58361
660.594	849.70007
661.039	777.51127
661.484	791.62174
661.929	832.64872
662.373	726.59839
662.818	783.67461
663.262	801.64965
663.707	742.64045
664.151	757.60432
664.595	805.66235
665.039	761.64645
665.483	744.65513
665.927	795.60795
666.371	723.45147
666.814	791.62758
667.258	752.53858
667.701	831.5177
668.145	769.6666
668.588	760.62364
669.031	689.42257
669.474	720.52019
669.917	773.47424
670.36	736.60011
670.803	768.61243
671.245	806.44341
671.688	749.59839
672.13	695.36566
672.573	686.5512
673.015	710.50168
673.457	717.36131
673.899	706.51078
674.341	731.5485
674.783	738.54803
675.225	733.5838
675.666	658.40675
676.108	736.39032
676.549	668.40906
676.991	659.28873
677.432	703.21692
677.873	697.42431
678.314	710.49644
678.755	680.47138
679.196	618.27037
679.637	743.59721
680.078	686.42555
680.518	669.39049
680.959	644.38272
681.399	661.46702
681.839	663.4428
682.28	615.36992
682.72	630.29216
683.16	622.39781
683.6	648.32255
684.039	623.16012
684.479	641.41316
684.919	578.20617
685.358	634.45329
685.798	600.43115
686.237	663.43608
686.676	701.4422
687.115	587.25234
687.554	640.36468
687.993	616.22584
688.432	588.21784
688.871	598.22533
689.309	619.33383
689.748	645.20176
690.186	613.32541
690.625	598.26895
691.063	618.33822
691.501	653.45105
691.939	609.37667
692.377	638.40097
692.815	618.33367
693.253	628.36337
693.69	617.219
694.128	588.2943
694.565	590.27915
695.003	605.39589
695.44	597.2715
695.877	600.26766
696.314	629.21312
696.751	615.26732
697.188	654.34267
697.625	648.33572
698.061	623.34878
698.498	650.41478
698.934	605.32146
699.371	579.23952
699.807	600.28703
700.243	629.36468
700.679	653.32282
701.115	648.3716
701.551	649.37222
701.987	689.37485
702.422	604.29896
702.858	670.42626
703.294	589.21094
703.729	642.41566
704.164	648.40147
704.599	614.23207
705.035	686.35904
705.47	635.39116
705.904	691.42862
706.339	697.44104
706.774	636.33913
707.209	643.32866
707.643	649.40035
708.078	636.39598
708.512	588.33913
708.946	692.4776
709.38	646.37511
709.814	688.39668
710.248	674.47017
710.682	564.2253
711.116	628.34775
711.549	630.47406
711.983	579.21655
712.416	719.50382
712.85	666.49067
713.283	722.50911
713.716	713.59562
714.149	681.44938
714.582	671.34012
715.015	680.5264
715.448	633.44374
715.881	648.26748
716.313	646.35783
716.746	636.34558
717.178	570.25095
717.61	606.39848
718.043	625.41058
718.475	630.37816
718.907	623.43176
719.339	537.11428
719.77	564.21958
720.202	591.36302
720.634	576.27739
721.065	521.13823
721.497	555.24733
721.928	495.12684
722.359	495.10457
722.79	541.18797
723.221	548.269
723.652	531.26713
724.083	511.06118
724.514	473.01051
724.945	510.1064
725.375	494.05934
725.806	494.1465
726.236	520.23351
726.666	438.97414
727.096	470.07565
727.526	420.00475
727.956	391.84129
728.386	473.08578
728.816	379.91197
729.246	411.94268
729.675	338.79683
730.105	431.99921
730.534	401.88762
730.964	432.02761
731.393	419.98408
731.822	392.95092
732.251	384.92663
732.68	441.97614
733.109	347.8182
733.537	363.83561
733.966	350.83119
734.395	357.78662
734.823	352.75917
735.251	286.66693
735.68	359.85961
736.108	372.897
736.536	357.80407
736.964	294.65935
737.392	356.85129
737.82	346.79474
738.247	320.73738
738.675	399.90342
739.102	283.68438
739.53	267.66001
739.957	305.75668
740.384	325.77139
740.811	322.78526
741.238	291.68672
741.665	239.54119
742.092	307.70729
742.519	274.65725
742.945	239.56052
743.372	215.52211
743.798	275.68576
744.225	235.54618
744.651	238.58326
745.077	227.55393
745.503	224.53549
745.929	280.65088
746.355	296.71217
746.781	212.5157
747.207	128.29944
747.632	178.42813
748.058	174.42912
748.483	194.44046
748.908	175.4296
749.334	198.47858
749.759	210.48625
750.184	190.44587
750.609	217.52301
751.033	249.57437
751.458	221.48657
751.883	194.4735
752.307	184.4274
752.732	154.38091
753.156	173.42217
753.58	206.48115
754.005	211.52561
754.429	179.41554
754.853	171.41854
755.277	207.4813
755.7	189.4619
756.124	165.4049
756.548	145.34154
756.971	207.49646
757.394	155.39549
757.818	124.31768
758.241	143.36011
758.664	159.39738
759.087	122.27205
759.51	198.48453
759.933	121.29043
760.356	181.45743
760.778	164.39894
761.201	171.41137
761.623	180.4313
762.046	196.45815
762.468	205.48417
762.89	169.41257
763.312	199.47782
763.734	125.30003
764.156	155.37924
764.578	173.39382
765	176.42396
765.421	101.25617
765.843	182.47
766.264	168.40163
766.686	149.37118
767.107	190.45318
767.528	91.22982
767.949	121.30646
768.37	139.33896
768.791	139.3344
769.212	61.15411
769.632	108.25157
770.053	107.28096
770.473	109.26491
770.894	144.35788
771.314	134.31876
771.734	150.34678
772.154	133.33924
772.575	132.3048
772.994	116.26316
773.414	133.3179
773.834	126.31337
774.254	143.34728
774.673	149.35981
775.093	94.23268
775.512	87.21468
775.931	128.32251
776.351	140.34476
776.77	109.2658
777.189	156.36723
777.607	97.24742
778.026	141.34819
778.445	52.13098
778.864	99.25359
779.282	114.27347
779.701	125.3132
780.119	86.21739
780.537	108.26861
780.955	123.31119
781.373	120.2953
781.791	124.27731
782.209	132.3025
782.627	87.22899
783.045	112.25697
783.462	122.3097
783.88	86.22233
784.297	140.34882
784.715	84.21558
785.132	133.31948
785.549	93.23235
785.966	89.22373
786.383	57.14102
786.8	126.29095
787.217	96.2274
787.633	94.23413
788.05	172.40269
788.466	102.2403
788.883	73.1864
789.299	134.31998
789.715	105.25442
790.131	111.27471
790.547	113.28079
790.963	93.2305
791.379	88.22221
791.795	141.31877
792.21	96.22423
792.626	118.27843
793.041	84.20732
793.457	131.321
793.872	103.24148
794.287	45.10818
794.702	111.27219
795.117	76.18895
795.532	100.24962
795.947	114.27306
796.362	142.33571
796.776	184.42335
797.191	97.2368
797.605	76.17863
798.02	85.20674
798.434	135.29798
798.848	98.24054
799.262	108.26645
799.676	126.30502
800.09	99.24277
800.504	105.25375
800.918	79.18326
801.331	120.31226
801.745	104.23804
802.158	115.28555
802.572	132.31726
802.985	101.24335
803.398	149.35082
803.811	129.32869
804.224	90.2236
804.637	87.207
805.05	94.21749
805.462	103.25201
805.875	59.15324
806.288	55.13322
806.7	101.25271
807.112	107.24693
807.525	123.30106
807.937	82.20246
808.349	109.27144
808.761	129.31434
809.173	103.24845
809.584	94.23166
809.996	57.14004
810.408	76.19593
810.819	94.22042
811.231	82.2114
811.642	124.29281
812.053	198.45974
812.464	275.62877
812.875	243.60223
813.286	149.37831
813.697	173.39732
814.108	100.24326
814.519	94.209
814.929	139.35041
815.34	102.24618
815.75	104.2627
816.16	113.27966
816.571	95.24572
816.981	114.26732
817.391	120.28732
817.801	144.35291
818.211	100.23733
818.62	75.1805
819.03	72.17653
819.44	126.32596
819.849	114.28508
820.259	107.27216
820.668	69.16977
821.077	75.18609
821.486	104.24911
821.895	138.33696
822.304	87.22976
822.713	93.21906
823.122	112.27744
823.531	112.26355
823.939	93.22569
824.348	100.2419
824.756	110.27358
825.164	90.22571
825.573	79.19788
825.981	131.32135
826.389	100.24989
826.797	78.19505
827.205	74.16979
827.612	88.21647
828.02	85.19905
828.428	77.19578
828.835	68.17889
829.243	122.28798
829.65	113.27864
830.057	108.26026
830.464	107.25888
830.871	122.28932
831.278	119.28498
831.685	101.22415
832.092	116.28155
832.499	112.24302
832.905	94.23685
833.312	112.25347
833.718	103.25501
834.124	92.20939
834.531	131.32646
834.937	118.30008
835.343	91.21868
835.749	141.32487
836.155	136.35171
836.561	89.218
836.966	99.2407
837.372	130.32708
837.777	68.16931
838.183	117.25771
838.588	97.23945
838.993	95.23011
839.399	56.13715
839.804	75.18241
840.209	77.19551
840.613	76.16884
841.018	101.25407
841.423	91.23228
841.828	81.2042
842.232	115.28231
842.637	119.2779
843.041	77.19682
843.445	93.23202
843.849	67.16576
844.253	122.28686
844.657	40.10111
845.061	101.2276
845.465	73.17602
845.869	104.23986
846.272	63.1534
846.676	117.28019
847.079	47.1198
847.483	132.32518
847.886	142.34051
848.289	54.14421
848.692	103.25892
849.095	121.28745
849.498	160.39851
849.901	122.27666
850.304	76.18121
850.707	113.28548
851.109	128.32008
851.512	80.19592
851.914	54.13621
852.316	68.17177
852.718	70.18034
853.121	111.26947
853.523	87.20237
853.925	71.18479
854.326	57.14257
854.728	117.2978
855.13	62.15979
855.531	91.21618
855.933	151.35636
856.334	64.15941
856.736	86.19169
857.137	97.22394
857.538	84.21021
857.939	90.22107
858.34	106.25612
858.741	105.27225
859.142	121.28734
859.542	87.22837
859.943	80.19803
860.343	43.10677
860.744	123.29658
861.144	125.30117
861.544	34.08209
861.945	54.13772
862.345	100.24272
862.745	131.32123
863.145	134.31581
863.544	91.22859
863.944	145.33688
864.344	102.25137
864.743	138.33746
865.143	101.25744
865.542	71.16431
865.941	89.21905
866.34	143.33709
866.74	100.26644
867.139	95.22586
867.537	98.2479
867.936	84.2012
868.335	81.20522
868.734	81.2061
869.132	94.21689
869.531	128.30554
869.929	61.13898
870.327	95.22612
870.726	146.35821
871.124	82.19078
871.522	71.1804
871.92	125.30448
872.318	118.28522
872.715	111.27209
873.113	130.31245
873.511	78.19357
873.908	44.1113
874.306	29.07248
874.703	133.32819
875.1	111.28123
875.497	82.19566
875.894	36.08853
876.291	86.20991
876.688	58.14953
877.085	91.21693
877.482	77.19203
877.878	62.14907
878.275	74.18739
878.671	106.23373
879.068	115.27456
879.464	76.18301
879.86	76.17905
880.256	101.24721
880.652	41.10454
881.048	117.28669
881.444	99.23374
881.84	70.17745
882.236	113.2812
882.631	77.18826
883.027	110.26368
883.422	76.19362
883.817	38.09578
884.213	67.17156
884.608	45.11055
885.003	91.21793
885.398	91.22629
885.793	69.17277
886.188	53.13179
886.582	118.29934
886.977	91.21451
887.371	107.2681
887.766	43.10716
888.16	93.2305
888.554	100.24526
888.949	99.24663
889.343	104.25176
889.737	30.08025
890.131	81.20223
890.525	96.2437
890.918	71.17816
891.312	111.26278
891.706	85.22183
892.099	130.32638
892.492	60.12936
892.886	108.26164
893.279	98.24772
893.672	92.23264
894.065	82.20432
894.458	93.23227
894.851	127.30703
895.244	69.17575
895.637	103.24582
896.029	106.2567
896.422	112.27072
896.814	64.15883
897.206	78.18491
897.599	123.30039
897.991	67.16161
898.383	81.19042
898.775	103.2302
899.167	37.08658
899.559	102.25599
899.951	93.21761
900.342	91.2299
900.734	49.12167
901.125	125.32399
901.517	72.17613
901.908	114.27024
902.299	78.18982
902.69	62.14607
903.082	104.24949
903.473	87.207
903.863	144.36152
904.254	84.19381
904.645	111.2732
905.036	59.14269
905.426	131.29532
905.817	118.28608
906.207	70.16626
906.597	67.15628
906.987	92.23685
907.378	88.22117
907.768	53.14011
908.158	122.29367
908.547	56.14457
908.937	100.25449
909.327	94.22653
909.717	110.27647
910.106	99.23573
910.495	139.34161
910.885	71.17925
911.274	77.19161
911.663	125.3132
912.052	97.23742
912.441	73.18496
912.83	53.12168
913.219	91.2366
913.608	118.28555
913.997	63.15763
914.385	104.24606
914.774	77.18665
915.162	49.11685
915.55	113.2703
915.939	38.09616
916.327	104.25715
916.715	75.19036
917.103	139.33668
917.491	97.23804
917.878	86.21015
918.266	104.26728
918.654	48.12272
919.041	64.16671
919.429	76.17856
919.816	83.20924
920.203	50.12131
920.591	105.25786
920.978	112.27123
921.365	66.17275
921.752	113.26627
922.139	108.23174
922.525	42.10106
922.912	81.19649
923.299	80.19781
923.685	97.25107
924.072	87.19925
924.458	111.27199
924.844	85.20905
925.231	79.18289
925.617	74.18746
926.003	86.21847
926.389	62.15611
926.774	78.19674
927.16	85.20983
927.546	82.20816
927.931	76.18882
928.317	18.04175
928.702	102.239
929.088	48.11361
929.473	99.24976
929.858	59.14243
930.243	122.28887
930.628	91.21975
931.013	84.20694
931.398	103.23448
931.783	88.23025
932.167	97.23513
932.552	149.36672
932.937	74.18291
933.321	52.13046
933.705	84.21051
934.09	124.3093
934.474	112.26294
934.858	76.19627
935.242	88.20248
935.626	78.19871
936.009	66.17509
936.393	81.20501
936.777	55.14074
937.16	65.16871
937.544	107.24939
937.927	76.19197
938.311	151.36175
938.694	123.32133
939.077	86.2045
939.46	119.28856
939.843	115.23658
940.226	97.24681
940.609	81.18484
940.991	69.17507
941.374	67.16326
941.757	84.20602
942.139	57.12787
942.522	73.17182
942.904	128.3032
943.286	79.19973
943.668	105.26943
944.05	70.17181
944.432	62.15268
944.814	131.3179
945.196	44.10736
945.578	70.16575
945.959	133.30668
946.341	111.26947
946.722	55.129
947.104	97.22981
947.485	95.21915
947.866	73.18318
948.247	87.21807
948.628	86.20842
949.009	86.21886
949.39	112.27571
949.771	111.25514
950.152	66.16152
950.532	46.11324
950.913	83.199
951.293	56.15113
951.674	107.25605
952.054	82.20201
952.434	104.25564
952.814	97.22875
953.194	105.27225
953.574	119.28943
953.954	77.18194
954.334	116.28566
954.714	68.16517
955.093	85.20766
955.473	84.20877
955.853	81.20857
956.232	81.22091
956.611	127.30019
956.99	102.25396
957.37	79.2003
957.749	118.27789
958.128	67.1683
958.506	86.22171
958.885	120.2991
959.264	59.14436
959.643	129.28891
960.021	53.13127
960.4	97.21778
960.778	103.25126
961.156	83.20684
961.535	101.23308
961.913	105.24308
962.291	76.19409
962.669	45.1141
963.047	76.19307
963.424	48.12254
963.802	150.36202
964.18	111.27783
964.557	142.3211
964.935	110.25764
965.312	84.21746
965.69	124.30638
966.067	93.22467
966.444	122.29667
966.821	112.28563
967.198	109.26153
967.575	133.32202
967.952	90.21047
968.329	104.25053
968.705	103.21839
969.082	106.26918
969.458	79.18847
969.835	84.20319
970.211	109.27685
970.587	110.27089
970.963	99.25181
971.339	62.16156
971.715	94.23285
972.091	131.31778
972.467	105.25929
972.843	105.25796
973.219	131.30976
973.594	71.18504
973.97	126.29557
974.345	66.15749
974.721	137.32633
975.096	76.18301
975.471	94.22111
975.846	111.26359
976.221	72.18213
976.596	83.19771
976.971	112.27337
977.346	116.26658
977.72	85.21521
978.095	105.26877
978.469	116.27339
978.844	114.28332
979.218	63.15064
979.593	112.2652
979.967	58.14109
980.341	101.2302
980.715	94.23498
981.089	68.16968
981.463	100.22732
981.837	114.27524
982.21	125.28663
982.584	81.1945
982.957	40.10006
983.331	123.28668
983.704	55.13502
984.078	73.17914
984.451	149.36551
984.824	75.1818
985.197	85.20511
985.57	95.23632
985.943	118.2878
986.316	134.32414
986.688	117.27859
987.061	120.27742
987.434	118.30389
987.806	94.2261
988.179	66.15525
988.551	124.31042
988.923	90.22
989.295	110.27189
989.667	80.19001
990.039	87.2135
990.411	133.30105
990.783	121.27467
991.155	20.04833
991.527	123.29882
991.898	86.21288
992.27	64.1579
992.641	88.21926
993.012	90.21014
993.384	71.16867
993.755	87.22035
994.126	85.20309
994.497	39.09592
994.868	114.25852
995.239	119.28465
995.61	65.1631
995.98	101.24298
996.351	80.19701
996.722	52.12055
997.092	42.0996
997.462	57.13296
997.833	140.3261
998.203	94.22601
998.573	87.21516
998.943	101.23447
999.313	59.14113
999.683	90.21434
1000.053	131.29653
1000.423	55.13352
1000.792	105.26952
1001.162	83.203
1001.531	131.31814
1001.901	94.23243
1002.27	120.26437
1002.639	97.24576
1003.009	100.2355
1003.378	106.26832
1003.747	100.23394
1004.116	54.1291
1004.485	110.25986
1004.853	117.29284
1005.222	87.21791
1005.591	122.28563
1005.959	53.11933
1006.328	54.12141
1006.696	90.21541
1007.064	93.2321
1007.433	102.25248
1007.801	103.25033
1008.169	89.22316
1008.537	109.23838
1008.905	86.1989
1009.273	97.23751
1009.64	118.27778
1010.008	101.23836
1010.375	133.3179
1010.743	163.3679
1011.11	69.16265
1011.478	110.26919
1011.845	135.31216
1012.212	77.1733
1012.579	94.22884
1012.946	101.23799
1013.313	124.29088
1013.68	108.23983
1014.047	59.14032
1014.414	21.04987
1014.78	91.22439
1015.147	107.25595
1015.513	101.24095
1015.88	131.33013
1016.246	77.1891
1016.612	88.19988
1016.978	82.1997
1017.344	83.20383
1017.71	80.19396
1018.076	81.18983
1018.442	83.21223
1018.808	83.20617
1019.174	92.22898
1019.539	172.38624
1019.905	106.2472
1020.27	75.18419
1020.636	92.21877
1021.001	79.18803
1021.366	61.14614
1021.731	90.22977
1022.096	48.12107
1022.461	76.17891
1022.826	45.10703
1023.191	73.19071
1023.556	94.21835
1023.92	92.22439
1024.285	105.25356
1024.649	80.1949
1025.014	111.27179
1025.378	71.17777
1025.742	108.26528
1026.107	98.21943
1026.471	96.22203
1026.835	74.18257
1027.199	45.10838
1027.562	106.2436
1027.926	79.19207
1028.29	89.22357
1028.654	104.23661
1029.017	115.27918
1029.381	93.22025
1029.744	101.25517
1030.107	109.25485
1030.471	86.20442
1030.834	84.18971
1031.197	110.26187
1031.56	107.24958
1031.923	64.165
1032.286	113.26202
1032.648	105.24838
1033.011	97.22046
1033.374	124.28713
1033.736	63.1652
1034.099	110.26498
1034.461	67.16867
1034.823	78.19315
1035.185	75.18786
1035.548	91.21967
1035.91	92.21851
1036.272	79.17868
1036.634	112.27072
1036.995	84.19605
1037.357	65.15762
1037.719	99.23844
1038.08	133.31059
1038.442	58.13739
1038.803	116.27488
1039.165	58.14609
1039.526	91.21809
1039.887	94.22292
1040.248	72.17659
1040.609	141.34242
1040.97	68.16554
1041.331	82.20632
1041.692	71.16496
1042.053	83.18765
1042.413	156.35577
1042.774	102.24553
1043.134	89.21021
1043.495	93.23185
1043.855	94.22601
1044.215	93.2289
1044.576	52.12422
1044.936	130.29312
1045.296	131.32195
1045.656	106.25728
1046.016	78.18719
1046.375	89.21419
1046.735	65.14683
1047.095	112.25883
1047.454	158.32673
1047.814	101.24031
1048.173	126.2965
1048.533	91.20666
1048.892	56.13419
1049.251	92.22906
1049.61	57.14009
1049.969	120.27886
1050.328	120.25616
1050.687	109.26213
1051.046	62.15054
1051.405	104.25602
1051.763	53.12173
1052.122	45.11227
1052.48	81.19738
1052.839	100.23284
1053.197	103.23978
1053.555	122.27396
1053.914	104.25167
1054.272	105.25107
1054.63	44.10764
1054.988	55.13046
1055.345	85.18156
1055.703	115.27319
1056.061	82.20964
1056.419	75.19319
1056.776	103.24713
1057.134	138.3137
1057.491	66.16469
1057.848	97.23927
1058.206	80.18693
1058.563	110.23929
1058.92	94.21464
1059.277	116.2825
1059.634	104.24196
1059.991	85.20216
1060.348	80.17957
1060.704	59.14027
1061.061	137.31263
1061.418	60.14514
1061.774	68.16721
1062.131	37.09798
1062.487	55.12839
1062.843	105.25901
1063.199	92.2269
1063.555	62.14322
1063.911	34.08607
1064.267	190.38374
1064.623	45.10933
1064.979	181.41769
1065.335	82.19469
1065.691	96.22793
1066.046	110.23868
1066.402	87.19605
1066.757	108.26958
1067.112	67.16381
1067.468	58.13664
1067.823	79.18876
1068.178	96.23003
1068.533	107.25644
1068.888	141.33082
1069.243	106.25873
1069.598	104.24996
1069.952	42.09466
1070.307	80.19679
1070.662	61.14441
1071.016	55.12303
1071.371	53.12041
1071.725	129.30373
1072.079	90.21467
1072.434	74.17887
1072.788	92.21717
1073.142	93.22679
1073.496	73.17228
1073.85	87.20013
1074.203	114.27306
1074.557	101.26611
1074.911	149.34864
1075.265	91.20967
1075.618	97.2346
1075.971	90.21228
1076.325	79.19959
1076.678	22.05056
1077.031	95.21285
1077.385	91.19859
1077.738	72.16168
1078.091	34.07751
1078.444	106.24321
1078.796	57.13957
1079.149	101.24868
1079.502	94.21999
1079.855	87.20125
1080.207	106.25825
1080.56	81.20806
1080.912	108.25987
1081.264	98.23366
1081.617	65.15786
1081.969	76.19067
1082.321	56.13648
1082.673	62.14106
1083.025	61.1443
1083.377	-132.29422
1083.728	89.20588
1084.08	86.21311
1084.432	99.23636
1084.783	121.27935
1085.135	55.13761
1085.486	40.09163
1085.838	63.15466
1086.189	54.13087
1086.54	110.25945
1086.891	40.10126
1087.242	63.15288
1087.593	103.24807
1087.944	92.20625
1088.295	106.23803
1088.646	69.1665
1088.996	46.11081
1089.347	111.26906
1089.698	74.17393
1090.048	100.25727
1090.398	114.26083
1090.749	131.30832
1091.099	58.14551
1091.449	65.16134
1091.799	84.20884
1092.149	49.1194
1092.499	58.14115
1092.849	81.20457
1093.199	142.34969
1093.548	70.16741
1093.898	68.16943
1094.248	123.31174
1094.597	9.02312
1094.947	82.21739
1095.296	70.17207
1095.645	109.28037
1095.994	101.24003
1096.343	56.14065
1096.692	54.14163
1097.041	64.17273
1097.39	85.21167
1097.739	84.21686
1098.088	104.2759
1098.437	44.1156
1098.785	63.16933
1099.134	111.29147
1099.482	88.24035
1099.83	73.19091
1100.179	44.11477
1100.527	81.21392
1100.875	52.13731
1101.223	84.22158
1101.571	64.17631
1101.919	32.08379
1102.267	56.15737
1102.615	15.04817
1102.962	25.08035
1103.31	5.01607
1103.658	30.09641
