Data from N2 R15 sample 6_Subt2__0__15-23-42-009.txt Node

Date: Tue Sep 02 15:23:42 PDT 2025
User: uwsun
Spectrometer: HDX01956
Trigger mode: 0
Integration Time (sec): 5.000000E-1
Scans to average: 1
Nonlinearity correction enabled: true
Boxcar width: 0
Storing dark spectrum: false
XAxis mode: Wavelengths
Number of Pixels in Spectrum: 2068
>>>>>Begin Spectral Data<<<<<
194.03	161.44063
194.578	149.46247
195.127	165.50328
195.676	166.50787
196.225	221.56446
196.773	231.6098
197.321	262.67257
197.87	415.94803
198.418	364.82838
198.966	341.78467
199.513	326.71426
200.061	350.77685
200.609	370.86886
201.156	287.54997
201.704	307.68326
202.251	303.71392
202.798	338.77481
203.345	435.93111
203.892	343.75957
204.438	385.80129
204.985	345.70845
205.532	363.83828
206.078	368.78891
206.624	422.8906
207.17	443.87972
207.716	363.76627
208.262	427.71231
208.808	361.7694
209.354	365.77184
209.899	441.96759
210.445	335.72793
210.99	374.77996
211.535	474.94853
212.08	454.90135
212.625	404.87952
213.17	411.90596
213.715	340.6517
214.259	426.85366
214.804	394.84974
215.348	427.83884
215.892	390.81296
216.436	464.91992
216.98	467.87937
217.524	381.78202
218.068	380.83886
218.612	413.90655
219.155	440.88864
219.698	384.79725
220.242	397.86814
220.785	354.72644
221.328	344.75845
221.871	393.87753
222.414	415.90366
222.956	351.74061
223.499	326.64662
224.041	375.76797
224.583	470.86872
225.126	382.73185
225.668	327.70299
226.21	350.77653
226.751	319.61129
227.293	392.7808
227.835	391.83224
228.376	409.82243
228.918	389.86429
229.459	343.75166
230	321.67583
230.541	400.80119
231.082	363.77164
231.622	347.70355
232.163	354.75202
232.704	351.76464
233.244	330.72332
233.784	366.79106
234.324	323.61716
234.864	371.73158
235.404	389.80781
235.944	359.74751
236.484	401.87466
237.023	415.84527
237.563	371.7443
238.102	359.74186
238.641	359.79831
239.18	332.67791
239.719	462.9968
240.258	369.72148
240.797	354.73891
241.335	383.81841
241.874	362.59537
242.412	392.81531
242.95	388.79909
243.488	370.73286
244.026	351.70288
244.564	396.69608
245.102	407.78183
245.64	413.86186
246.177	335.65531
246.715	389.81142
247.252	410.81058
247.789	495.77381
248.326	389.80241
248.863	365.68829
249.4	419.81459
249.936	357.63064
250.473	345.69822
251.009	396.77556
251.546	369.69891
252.082	408.76165
252.618	409.77431
253.154	357.74236
253.69	441.84021
254.226	395.80966
254.761	356.68962
255.297	394.73369
255.832	365.74512
256.367	392.79243
256.903	371.69686
257.438	398.80271
257.972	391.74312
258.507	344.6769
259.042	358.66664
259.576	373.67923
260.111	435.85335
260.645	402.73892
261.179	355.71188
261.713	418.78419
262.247	378.74731
262.781	429.74956
263.315	371.78006
263.849	379.81442
264.382	416.81241
264.915	380.7576
265.449	359.74519
265.982	452.86389
266.515	411.85197
267.048	409.72479
267.58	456.83441
268.113	370.67599
268.646	344.73142
269.178	405.75924
269.71	422.77335
270.243	444.85065
270.775	364.79649
271.307	491.98869
271.838	475.94811
272.37	395.82722
272.902	428.81801
273.433	361.66906
273.965	367.76383
274.496	439.92424
275.027	393.82886
275.558	464.9384
276.089	391.80871
276.62	472.00903
277.15	414.8672
277.681	468.83952
278.211	453.93315
278.741	380.69988
279.272	420.79805
279.802	439.92221
280.332	446.87225
280.861	450.90258
281.391	402.76012
281.921	463.9293
282.45	429.90319
282.98	441.9684
283.509	387.72799
284.038	453.85007
284.567	429.83721
285.096	487.9689
285.625	391.7395
286.153	396.77335
286.682	447.83881
287.21	448.88944
287.739	445.86637
288.267	436.87127
288.795	470.02901
289.323	433.82857
289.851	490.93335
290.378	478.8685
290.906	385.77239
291.433	424.87715
291.961	402.74673
292.488	442.90783
293.015	382.74212
293.542	403.84472
294.069	449.9012
294.596	473.95814
295.122	471.91045
295.649	465.82534
296.175	446.88588
296.702	460.91028
297.228	531.03458
297.754	468.84125
298.28	484.87404
298.806	487.93778
299.332	442.77901
299.857	453.81658
300.383	568.14382
300.908	414.81043
301.433	475.92127
301.958	573.03302
302.483	464.92766
303.008	526.03284
303.533	518.08268
304.058	575.05571
304.582	452.84673
305.107	462.96731
305.631	521.93151
306.155	471.86121
306.679	494.8994
307.203	520.93428
307.727	524.96711
308.251	563.0778
308.775	455.84288
309.298	484.89908
309.822	553.08212
310.345	548.99472
310.868	571.03572
311.391	581.09409
311.914	588.11788
312.437	524.91539
312.96	528.94525
313.482	558.99692
314.005	526.01242
314.527	546.09843
315.049	625.18807
315.571	506.83375
316.093	621.13806
316.615	574.02506
317.137	591.92889
317.659	667.18203
318.18	613.08894
318.702	579.98253
319.223	616.88494
319.744	583.93702
320.265	573.00614
320.786	608.07864
321.307	686.20663
321.828	625.99264
322.348	653.07278
322.869	594.98486
323.389	661.67237
323.909	719.11611
324.43	710.18777
324.95	719.09528
325.47	642.08607
325.989	638.02044
326.509	652.94028
327.029	747.07418
327.548	648.95258
328.067	714.1216
328.587	782.27146
329.106	660.97442
329.625	780.37596
330.144	714.04353
330.662	687.00794
331.181	744.08956
331.7	804.1511
332.218	691.9137
332.736	808.1424
333.255	757.06693
333.773	758.08904
334.291	883.32783
334.808	811.03342
335.326	828.0665
335.844	813.0675
336.361	780.16426
336.879	782.02969
337.396	825.11987
337.913	847.05655
338.43	920.0735
338.947	881.12938
339.464	835.91014
339.981	818.03916
340.497	933.22443
341.014	869.12155
341.53	859.97183
342.046	897.13664
342.562	906.18438
343.078	923.07424
343.594	976.13607
344.11	974.11693
344.626	977.214
345.141	966.00963
345.657	1047.06405
346.172	944.08059
346.687	974.00001
347.202	1007.96792
347.717	1076.11882
348.232	1076.20749
348.747	1014.98866
349.261	991.8449
349.776	1046.0267
350.29	1013.06147
350.805	1096.15656
351.319	1158.04097
351.833	1068.91038
352.347	1119.00937
352.861	1102.96855
353.374	1193.00482
353.888	1113.04503
354.401	1123.93232
354.915	1156.85229
355.428	1185.08078
355.941	1188.92812
356.454	1207.8971
356.967	1254.99107
357.48	1210.9132
357.993	1231.04953
358.505	1191.98908
359.018	1285.01954
359.53	1220.93541
360.042	1320.80457
360.554	1295.97473
361.066	1226.93723
361.578	1290.72665
362.09	1250.89042
362.602	1231.70614
363.113	1248.7967
363.625	1385.73251
364.136	1408.6887
364.647	1269.6997
365.158	1392.75941
365.669	1386.81556
366.18	1400.76918
366.691	1366.61891
367.201	1403.76422
367.712	1374.62768
368.222	1415.62221
368.733	1443.47155
369.243	1483.47924
369.753	1465.57742
370.263	1508.62066
370.773	1471.67283
371.282	1513.53297
371.792	1508.34796
372.301	1557.4578
372.811	1599.62278
373.32	1531.11577
373.829	1549.2543
374.338	1696.05449
374.847	1761.02438
375.356	1799.00697
375.865	1812.69984
376.373	1906.70722
376.882	2094.8404
377.39	2056.68284
377.898	1985.58936
378.407	2058.3447
378.915	2315.11132
379.423	2338.12948
379.93	2312.041
380.438	2410.94973
380.946	2588.79287
381.453	2655.73859
381.96	2691.71497
382.468	2843.76552
382.975	3250.79815
383.482	3160.9849
383.989	3295.90865
384.495	3303.33361
385.002	3443.25097
385.509	3531.37193
386.015	3932.59171
386.521	4170.18065
387.028	4305.60886
387.534	4196.30385
388.04	4594.4023
388.546	4446.31869
389.051	4547.07548
389.557	5109.29917
390.063	5880.45858
390.568	5967.89194
391.073	5969.13441
391.578	6336.87399
392.084	6284.32178
392.589	6060.9703
393.093	6422.30318
393.598	7455.30854
394.103	7990.69916
394.607	8972.40558
395.112	9542.3496
395.616	10342.01528
396.12	11180.72345
396.624	11996.12035
397.128	13368.56764
397.632	15658.69598
398.136	16318.74404
398.639	15728.94097
399.143	16815.2969
399.646	19512.8198
400.15	21306.8693
400.653	19117.94019
401.156	13593.64507
401.659	5169.95759
402.162	1054.15589
402.664	0
403.167	0
403.67	0
404.172	0
404.674	0
405.176	0
405.678	0
406.18	0
406.682	0
407.184	0
407.686	0
408.187	0
408.688	0
409.19	0
409.691	0
410.192	0
410.693	0
411.194	435.30976
411.694	4082.94878
412.195	8864.71461
412.696	12089.80453
413.196	12760.96929
413.696	12863.67595
414.196	13703.56671
414.696	17261.84252
415.196	21764.24417
415.696	29583.19008
416.196	36460.31858
416.695	26724.9511
417.195	20718.24823
417.694	19692.29021
418.194	18928.77974
418.693	17208.57942
419.192	16533.86086
419.691	16565.44409
420.19	16319.38995
420.688	16118.16712
421.187	15585.13373
421.685	15083.94161
422.184	13910.11927
422.682	11923.89271
423.18	9762.22909
423.678	8456.63788
424.176	7858.59419
424.674	7445.31926
425.172	7429.5614
425.669	6956.79635
426.167	6605.83001
426.664	5884.1065
427.161	5399.74124
427.659	5018.30948
428.156	4595.42051
428.652	4272.08116
429.149	4027.65414
429.646	3927.48945
430.143	3841.91664
430.639	3547.699
431.135	3379.57505
431.632	3144.60119
432.128	2885.70901
432.624	2589.93274
433.12	2446.89048
433.616	2406.92922
434.111	2239.10719
434.607	2172.24737
435.103	2288.1424
435.598	2169.24178
436.093	2208.50369
436.588	2020.63941
437.083	1825.83156
437.578	1837.93254
438.073	1593.16717
438.568	1705.26453
439.062	1567.06409
439.557	1548.34032
440.051	1451.29072
440.546	1356.33426
441.04	1299.47183
441.534	1314.63138
442.028	1400.56554
442.522	1289.56941
443.015	1339.42505
443.509	1277.67238
444.002	1228.67199
444.496	1164.4885
444.989	1181.70551
445.482	1099.72427
445.975	1070.54462
446.468	1077.49262
446.961	1057.49979
447.454	1032.60024
447.947	1033.66067
448.439	1029.74891
448.931	947.58421
449.424	961.81349
449.916	997.76449
450.408	969.62472
450.9	983.75591
451.392	958.83076
451.884	952.70417
452.375	784.71818
452.867	892.69159
453.358	830.63761
453.849	834.57446
454.341	857.66784
454.832	763.57254
455.323	769.7378
455.814	840.7211
456.304	692.64418
456.795	731.66594
457.285	869.73886
457.776	821.76222
458.266	658.67737
458.756	707.75177
459.247	606.64728
459.737	676.70916
460.226	650.63354
460.716	638.70451
461.206	573.66635
461.695	620.77445
462.185	623.70745
462.674	673.73324
463.163	573.61411
463.653	636.61239
464.142	529.66029
464.63	628.79385
465.119	535.63598
465.608	537.64117
466.096	544.61208
466.585	650.7802
467.073	525.69982
467.561	474.64968
468.05	482.63321
468.538	543.76358
469.026	503.69285
469.513	489.5642
470.001	460.59857
470.489	484.666
470.976	439.60302
471.463	491.7457
471.951	454.71028
472.438	436.62489
472.925	402.57901
473.412	441.69254
473.899	435.62639
474.385	376.60534
474.872	332.50363
475.359	435.68628
475.845	408.52577
476.331	393.55491
476.817	302.50747
477.303	301.47644
477.789	347.57149
478.275	286.49663
478.761	312.526
479.247	325.50319
479.732	299.52541
480.218	322.60198
480.703	276.49556
481.188	324.48063
481.673	260.42758
482.158	184.27908
482.643	267.50719
483.128	220.36602
483.612	269.46054
484.097	284.51832
484.581	182.32173
485.066	233.42556
485.55	212.34494
486.034	178.28929
486.518	216.38164
487.002	196.36623
487.486	181.3413
487.969	176.33294
488.453	220.43331
488.936	174.30325
489.42	190.32571
489.903	203.40481
490.386	-246.34914
490.869	201.34189
491.352	171.33703
491.835	168.27319
492.318	176.31307
492.8	176.28571
493.283	106.21979
493.765	108.21662
494.247	224.41897
494.73	161.28527
495.212	160.31691
495.694	140.26445
496.175	123.23592
496.657	222.42366
497.139	192.26508
497.62	68.13298
498.102	120.24559
498.583	116.24235
499.064	58.10724
499.545	140.26237
500.026	109.2015
500.507	156.2977
500.988	137.28362
501.469	103.21553
501.949	142.29351
502.43	94.18592
502.91	171.2863
503.39	157.32939
503.87	136.26483
504.35	192.37566
504.83	144.26027
505.31	161.3239
505.79	160.31721
506.269	197.38097
506.749	159.30026
507.228	179.34683
507.707	203.36851
508.187	346.66544
508.666	258.517
509.145	321.59996
509.623	323.60909
510.102	390.7526
510.581	409.78794
511.059	421.83447
511.538	488.99869
512.016	511.94571
512.494	565.05295
512.972	612.10152
513.45	585.01006
513.928	714.27306
514.406	675.19313
514.884	764.45035
515.361	893.50265
515.839	908.42591
516.316	939.57173
516.793	982.7486
517.27	1068.76172
517.747	1118.94545
518.224	1153.74147
518.701	1210.70213
519.178	1210.95424
519.654	1253.92172
520.131	1224.98141
520.607	1229.00796
521.083	1189.74608
521.56	1237.87811
522.036	1201.67496
522.512	1226.99911
522.987	1121.76058
523.463	1149.80791
523.939	1114.85616
524.414	1139.74377
524.89	1037.68727
525.365	1021.56772
525.84	968.58999
526.315	881.52027
526.79	976.51461
527.265	916.46679
527.74	823.46674
528.215	808.38991
528.689	737.19505
529.164	671.08896
529.638	758.47531
530.112	625.12411
530.587	618.98912
531.061	559.05
531.534	566.07754
532.008	503.95835
532.482	475.87028
532.956	526.06298
533.429	508.98081
533.903	530.91953
534.376	426.7563
534.849	446.8326
535.322	460.87322
535.795	422.84173
536.268	435.8469
536.741	371.73571
537.213	451.84048
537.686	385.76846
538.158	317.58486
538.631	407.81389
539.103	323.59653
539.575	342.58571
540.047	374.67189
540.519	333.66467
540.991	349.71311
541.463	350.70461
541.934	348.65768
542.406	297.59254
542.877	313.58762
543.348	317.64244
543.82	372.75786
544.291	304.5965
544.762	356.69589
545.233	323.67645
545.703	314.57366
546.174	388.73796
546.645	300.59393
547.115	377.74446
547.585	402.75082
548.056	341.67305
548.526	449.84007
548.996	496.94799
549.466	437.86456
549.935	474.88357
550.405	506.85741
550.875	494.91812
551.344	570.05729
551.814	579.01829
552.283	619.01338
552.752	623.08785
553.221	694.09198
553.69	745.19314
554.159	747.34199
554.628	814.27777
555.096	886.60248
555.565	938.42996
556.033	1024.65441
556.502	978.66178
556.97	1157.67392
557.438	1083.75654
557.906	1205.90741
558.374	1299.91474
558.842	1404.12214
559.31	1572.07041
559.777	1596.31475
560.245	1711.33399
560.712	1908.39084
561.18	2006.23954
561.647	2144.33397
562.114	2317.44117
562.581	2605.87216
563.048	2829.54391
563.514	2833.83727
563.981	3178.44239
564.448	3392.26043
564.914	3671.37288
565.381	4009.08695
565.847	4282.11093
566.313	4531.93336
566.779	4897.53508
567.245	5149.61594
567.711	5520.56922
568.176	6047.00244
568.642	6235.57506
569.108	6777.40067
569.573	7111.27999
570.038	7736.3313
570.504	8092.83597
570.969	8592.72773
571.434	9239.94844
571.899	9771.27087
572.363	10152.60343
572.828	10762.9473
573.293	11362.76686
573.757	11990.22579
574.222	12459.5125
574.686	13085.9439
575.15	13695.9614
575.614	14190.70943
576.078	14737.42758
576.542	15348.00901
577.006	15468.49252
577.469	16001.25691
577.933	16532.59971
578.396	16971.35732
578.86	17219.58793
579.323	17431.03125
579.786	17500.11395
580.249	17658.96644
580.712	17914.38821
581.175	17808.87271
581.637	17965.40872
582.1	17930.08759
582.563	18036.96051
583.025	18054.44832
583.487	17851.09444
583.95	17571.14841
584.412	17671.76598
584.874	17397.03446
585.336	17138.41192
585.797	16852.94154
586.259	16735.55509
586.721	16207.6828
587.182	15924.41369
587.643	15648.07082
588.105	15383.52661
588.566	15111.76707
589.027	14548.1198
589.488	14282.45953
589.949	13863.91713
590.41	13472.65909
590.87	13141.9276
591.331	12671.12778
591.791	12453.03064
592.252	12065.69496
592.712	11736.34692
593.172	11334.70238
593.632	11027.32373
594.092	10653.58324
594.552	10454.92275
595.011	9995.03506
595.471	9634.96825
595.931	9286.03502
596.39	9180.75437
596.849	8950.2665
597.308	8690.74363
597.768	8351.44975
598.227	8093.02078
598.685	7975.78666
599.144	7726.59242
599.603	7540.50794
600.062	7294.96908
600.52	7178.0888
600.978	7046.29783
601.437	6966.13534
601.895	6693.76736
602.353	6632.95091
602.811	6513.93565
603.269	6353.31636
603.727	6174.35064
604.184	6059.03863
604.642	6061.51251
605.099	5907.25272
605.557	5854.56413
606.014	5800.88535
606.471	5724.71899
606.928	5660.88248
607.385	5553.60457
607.842	5705.22543
608.299	5613.38645
608.755	5557.59205
609.212	5587.10928
609.668	5472.11293
610.125	5524.64495
610.581	5562.58442
611.037	5457.40689
611.493	5533.56584
611.949	5339.73058
612.405	5248.80134
612.861	5417.62114
613.316	5373.68615
613.772	5399.45765
614.227	5291.66284
614.683	5253.18072
615.138	5036.75514
615.593	5228.62003
616.048	5178.58998
616.503	5134.07207
616.958	4954.2763
617.412	4954.90761
617.867	4905.51236
618.321	4796.27291
618.776	4801.62795
619.23	4586.09701
619.684	4530.92582
620.138	4551.10021
620.592	4425.43909
621.046	4330.2978
621.5	4251.54929
621.954	4245.11499
622.407	4123.11389
622.861	4029.6857
623.314	3939.3514
623.768	3750.56553
624.221	3707.71011
624.674	3674.54753
625.127	3495.71587
625.58	3504.60005
626.033	3489.43616
626.485	3203.936
626.938	3240.92351
627.39	3183.80952
627.843	3112.80394
628.295	3075.81267
628.747	2936.98466
629.199	3009.74468
629.651	2821.76101
630.103	2785.81162
630.555	2673.45634
631.006	2707.95251
631.458	2597.97222
631.909	2643.87781
632.361	2550.93115
632.812	2454.86189
633.263	2449.56685
633.714	2461.55006
634.165	2297.0773
634.616	2221.9574
635.067	2244.68145
635.518	2165.96307
635.968	2237.28971
636.419	2125.56536
636.869	2076.91864
637.319	2039.7739
637.769	1938.592
638.219	2013.91899
638.669	1872.80931
639.119	1858.90357
639.569	1824.82862
640.019	1876.71097
640.468	1817.5435
640.918	1752.78447
641.367	1782.54146
641.816	1721.49183
642.265	1722.61173
642.714	1688.58811
643.163	1737.6062
643.612	1598.62932
644.061	1644.2562
644.51	1617.47874
644.958	1554.31386
645.406	1548.58414
645.855	1520.64719
646.303	1530.50277
646.751	1499.37673
647.199	1523.40417
647.647	1473.39221
648.095	1402.31092
648.543	1528.10945
648.99	1447.48719
649.438	1488.49001
649.885	1401.55818
650.333	1421.88614
650.78	1449.53144
651.227	1388.4869
651.674	1310.20705
652.121	1369.46956
652.568	1361.45259
653.015	1327.54633
653.461	1342.36867
653.908	1338.3092
654.354	1242.26744
654.801	1249.22035
655.247	1286.09526
655.693	1161.40499
656.139	1270.31526
656.585	1189.21445
657.031	1119.04165
657.477	1170.92647
657.922	1127.02741
658.368	1166.26612
658.813	1176.12825
659.259	1066.04884
659.704	1087.00799
660.149	1116.04894
660.594	1085.05406
661.039	1018.86798
661.484	1066.04982
661.929	988.88731
662.373	981.04342
662.818	997.03281
663.262	916.83818
663.707	946.00127
664.151	927.8923
664.595	932.87032
665.039	918.92
665.483	926.98274
665.927	884.7519
666.371	770.52926
666.814	818.67301
667.258	806.62911
667.701	900.61546
668.145	760.65023
668.588	785.66805
669.031	774.56793
669.474	794.6495
669.917	786.49437
670.36	729.58723
670.803	761.60018
671.245	741.34892
671.688	733.56962
672.13	690.35742
672.573	715.60731
673.015	661.41287
673.457	656.26377
673.899	623.35681
674.341	627.35802
674.783	667.42079
675.225	634.39859
675.666	610.31751
676.108	560.10283
676.549	593.27118
676.991	578.1517
677.432	576.03023
677.873	544.14968
678.314	568.234
678.755	601.32212
679.196	554.15499
679.637	568.26641
680.078	582.2371
680.518	529.1333
680.959	534.17331
681.399	507.16071
681.839	512.14939
682.28	508.15625
682.72	487.03059
683.16	433.01005
683.6	490.03537
684.039	488.94038
684.479	427.98485
684.919	393.85503
685.358	443.05363
685.798	438.07649
686.237	454.02648
686.676	462.00082
687.115	438.96606
687.554	420.93954
687.993	476.97943
688.432	381.82682
688.871	366.79038
689.309	381.86407
689.748	363.72455
690.186	419.94483
690.625	383.85202
691.063	341.7831
691.501	411.9604
691.939	339.80957
692.377	337.78784
692.815	325.74636
693.253	383.87601
693.69	300.63759
694.128	327.76027
694.565	308.70889
695.003	345.83836
695.44	309.70025
695.877	304.68486
696.314	343.70784
696.751	361.78743
697.188	273.60936
697.625	322.71322
698.061	312.72124
698.498	279.65585
698.934	292.68092
699.371	282.64335
699.807	290.66453
700.243	249.58465
700.679	297.65141
701.115	307.69911
701.551	336.76003
701.987	285.62272
702.422	254.58812
702.858	249.57917
703.294	243.53927
703.729	259.61761
704.164	233.54922
704.599	293.63234
705.035	217.47756
705.47	252.59735
705.904	241.54905
706.339	302.68035
706.774	219.50397
707.209	216.48961
707.643	236.55489
708.078	217.51886
708.512	188.4633
708.946	243.5699
709.38	221.51446
709.814	249.55672
710.248	208.49895
710.682	239.55592
711.116	222.51872
711.549	214.54207
711.983	170.38989
712.416	238.5513
712.85	219.53581
713.283	182.42627
713.716	223.54985
714.149	253.58917
714.582	240.52784
715.015	235.57623
715.448	218.5394
715.881	246.52762
716.313	211.48653
716.746	180.41927
717.178	160.38192
717.61	207.51621
718.043	210.51465
718.475	145.35002
718.907	262.64635
719.339	145.32768
719.77	167.39228
720.202	182.45445
720.634	173.41634
721.065	178.41771
721.497	182.4409
721.928	140.34209
722.359	127.30541
722.79	167.39611
723.221	208.51485
723.652	234.59103
724.083	143.32184
724.514	184.41844
724.945	145.33954
725.375	167.384
725.806	165.40849
726.236	159.40398
726.666	194.4533
727.096	188.45544
727.526	131.33131
727.956	175.39402
728.386	160.39096
728.816	149.37414
729.246	119.28889
729.675	153.37365
730.105	172.41919
730.534	143.33355
730.964	170.42556
731.393	196.48034
731.822	188.4735
732.251	146.36813
732.68	185.43134
733.109	135.33141
733.537	161.38556
733.966	169.41533
734.395	114.26397
734.823	134.30251
735.251	114.27483
735.68	161.40005
736.108	142.35727
736.536	176.41108
736.964	121.28101
737.392	132.32913
737.82	166.39503
738.247	149.35505
738.675	205.48248
739.102	104.25998
739.53	142.35906
739.957	107.27504
740.384	210.50949
740.811	152.38243
741.238	157.38013
741.665	137.31666
742.092	165.39091
742.519	115.28419
742.945	88.21247
743.372	129.31832
743.798	132.3377
744.225	134.31765
744.651	128.32008
745.077	129.32054
745.503	122.29734
745.929	123.29478
746.355	150.37089
746.781	115.28482
747.207	76.17961
747.632	70.17181
748.058	127.31592
748.483	144.33026
748.908	124.30728
749.334	137.33495
749.759	121.28512
750.184	124.29474
750.609	146.35662
751.033	160.37562
751.458	170.37829
751.883	134.33072
752.307	112.26386
752.732	107.26694
753.156	111.27401
753.58	117.27805
754.005	129.32614
754.429	124.291
754.853	110.27229
755.277	99.23509
755.7	114.2825
756.124	75.18711
756.548	108.25622
756.971	108.2639
757.394	93.23989
757.818	97.24968
758.241	102.25875
758.664	75.19029
759.087	104.23277
759.51	106.26383
759.933	83.20066
760.356	103.26393
760.778	126.30869
761.201	103.25098
761.623	138.33331
762.046	154.36295
762.468	108.25987
762.89	130.31967
763.312	137.33283
763.734	95.22933
764.156	119.29311
764.578	119.27385
765	122.29689
765.421	70.17852
765.843	152.39458
766.264	129.31069
766.686	123.30786
767.107	66.16116
767.528	85.2149
767.949	82.20912
768.37	94.23115
768.791	106.2566
769.212	45.11401
769.632	67.15733
770.053	72.19018
770.473	91.22191
770.894	116.28976
771.314	125.29786
771.734	69.16209
772.154	126.32178
772.575	105.24376
772.994	67.15351
773.414	180.42636
773.834	93.23269
774.254	101.24721
774.673	135.32687
775.093	56.13958
775.512	73.1806
775.931	92.2333
776.351	86.21389
776.77	68.16709
777.189	81.19346
777.607	102.25994
778.026	98.24391
778.445	24.06075
778.864	88.22585
779.282	107.25702
779.701	91.22941
780.119	50.1272
780.537	73.18272
780.955	117.29633
781.373	105.2591
781.791	103.23134
782.209	123.28238
782.627	75.1978
783.045	113.25922
783.462	91.23228
783.88	94.24268
784.297	65.16416
784.715	105.26848
785.132	102.24646
785.549	91.22744
785.966	68.17158
786.383	49.1214
786.8	117.27065
787.217	91.21576
787.633	40.10061
788.05	133.31376
788.466	112.26335
788.883	67.17126
789.299	91.21909
789.715	91.22108
790.131	117.28924
790.547	143.35338
790.963	107.26452
791.379	77.19481
791.795	94.21455
792.21	125.2903
792.626	61.14553
793.041	69.17077
793.457	75.18569
793.872	116.27127
794.287	33.07951
794.702	106.26017
795.117	61.15207
795.532	99.24716
795.947	105.25193
796.362	122.28954
796.776	155.35869
797.191	77.18868
797.605	55.1298
798.02	64.15627
798.434	100.22234
798.848	53.13117
799.262	93.23008
799.676	144.34741
800.09	58.14331
800.504	99.23952
800.918	102.23553
801.331	96.25084
801.745	57.1317
802.158	42.10567
802.572	132.31726
802.985	83.20066
803.398	102.24236
803.811	144.36594
804.224	101.25042
804.637	41.09841
805.05	88.20385
805.462	98.24
805.875	76.19682
806.288	42.10198
806.7	79.19845
807.112	99.22883
807.525	96.23615
807.937	50.12418
808.349	125.31038
808.761	61.15053
809.173	86.20811
809.584	102.251
809.996	97.23654
810.408	40.10377
810.819	71.16724
811.231	35.09097
811.642	104.24654
812.053	149.34932
812.464	180.41943
812.875	191.47787
813.286	151.38325
813.697	179.41061
814.108	131.31682
814.519	125.27614
814.929	101.25635
815.34	103.24854
815.75	82.20794
816.16	109.26996
816.571	95.24572
816.981	116.2719
817.391	77.18588
817.801	65.16163
818.211	139.32741
818.62	80.19235
819.03	108.26302
819.44	110.28536
819.849	102.25562
820.259	100.25467
820.668	72.17705
821.077	90.2227
821.486	135.32144
821.895	117.2868
822.304	70.18539
822.713	78.18426
823.122	61.15252
823.531	107.25203
823.939	56.13684
824.348	136.32674
824.756	80.20006
825.164	86.21584
825.573	77.19294
825.981	87.21516
826.389	110.27438
826.797	107.26617
827.205	66.15167
827.612	97.23822
828.02	88.20595
828.428	103.26068
828.835	78.20485
829.243	97.23008
829.65	108.26655
830.057	89.21525
830.464	82.19933
830.871	164.38576
831.278	94.22618
831.685	106.235
832.092	86.20991
832.499	46.10122
832.905	108.27144
833.312	82.18671
833.718	108.26714
834.124	111.25166
834.531	129.32159
834.937	78.19976
835.343	88.21159
835.749	119.27539
836.155	82.21404
836.561	88.21559
836.966	84.2048
837.372	70.17802
837.777	52.12985
838.183	63.14034
838.588	69.17121
838.993	105.25385
839.399	55.13472
839.804	82.19918
840.209	89.22549
840.613	97.21455
841.018	88.22189
841.423	85.21719
841.828	94.23642
842.232	124.3039
842.637	141.32785
843.041	59.15129
843.445	90.22466
843.849	62.15353
844.253	85.2013
844.657	62.15611
845.061	106.23862
845.465	75.18077
845.869	79.18311
846.272	27.06619
846.676	67.16198
847.079	95.24009
847.483	124.30593
847.886	112.27011
848.289	87.23107
848.692	66.16701
849.095	84.20097
849.498	119.2986
849.901	73.16719
850.304	92.21868
850.707	105.26565
851.109	114.2858
851.512	84.20557
851.914	78.1959
852.316	98.24622
852.718	34.08814
853.121	95.23132
853.523	75.17487
853.925	67.1745
854.326	27.0679
854.728	48.12366
855.13	58.14958
855.531	73.17402
855.933	110.26167
856.334	113.27894
856.736	19.04294
857.137	91.21034
857.538	108.2691
857.939	93.22831
858.34	105.25375
858.741	72.18775
859.142	118.28037
859.542	72.18948
859.943	89.21994
860.343	60.14852
860.744	67.16326
861.144	99.2397
861.544	61.14653
861.945	77.19557
862.345	85.20689
862.745	67.16624
863.145	101.23957
863.544	91.22859
863.944	105.24588
864.344	80.19796
864.743	119.29203
865.143	61.15658
865.542	100.23008
865.941	85.20936
866.34	65.15554
866.74	98.2612
867.139	100.23751
867.537	110.27766
867.936	98.23411
868.335	71.18021
868.734	108.27348
869.132	102.23497
869.531	114.27285
869.929	68.15471
870.327	97.23079
870.726	133.3271
871.124	80.1862
871.522	76.19293
871.92	124.3021
872.318	110.26629
872.715	95.23356
873.113	99.23934
873.511	59.14693
873.908	13.03307
874.306	69.17121
874.703	125.3089
875.1	86.21886
875.497	88.20974
875.894	56.1372
876.291	124.30052
876.688	78.20039
877.085	135.3191
877.482	87.21658
877.878	75.17988
878.275	87.2198
878.671	137.30012
879.068	107.25585
879.464	94.22558
879.86	57.13478
880.256	130.31648
880.652	49.12477
881.048	128.31301
881.444	102.24068
881.84	93.23479
882.236	107.26656
882.631	100.24345
883.027	105.25193
883.422	83.21119
883.817	40.10079
884.213	106.26956
884.608	64.15668
885.003	109.26014
885.398	62.15499
885.793	85.21221
886.188	49.12194
886.582	133.33649
886.977	105.24684
887.371	104.26073
887.766	59.14661
888.16	118.29112
888.554	114.27888
888.949	125.30992
889.343	75.18255
889.737	48.12802
890.131	119.29505
890.525	70.17852
890.918	80.20042
891.312	115.27204
891.706	114.29604
892.099	129.32392
892.492	90.19278
892.886	74.18042
893.279	33.08438
893.672	74.18772
894.065	92.22881
894.458	97.24208
894.851	105.2549
895.244	71.18078
895.637	130.30865
896.029	74.18029
896.422	86.20889
896.814	106.26104
897.206	90.21286
897.599	134.32658
897.991	89.21379
898.383	84.19736
898.775	60.13529
899.167	53.12363
899.559	107.2683
899.951	119.27703
900.342	67.17
900.734	40.09949
901.125	120.3113
901.517	91.22183
901.908	128.30261
902.299	51.12474
902.69	68.16002
903.082	117.27998
903.473	45.10793
903.863	109.27538
904.254	113.25922
904.645	98.24178
905.036	52.12593
905.426	103.23353
905.817	70.17124
906.207	40.09556
906.597	49.1147
906.987	103.26466
907.378	70.1765
907.768	68.17931
908.158	121.29132
908.547	30.0778
908.937	67.1715
909.327	70.16946
909.717	115.28877
910.106	45.10826
910.495	125.308
910.885	104.26101
911.274	70.17442
911.663	129.32299
912.052	50.12345
912.441	54.13728
912.83	82.18716
913.219	83.2161
913.608	51.12497
913.997	25.06298
914.385	88.20885
914.774	36.08794
915.162	58.13808
915.55	116.27732
915.939	69.17364
916.327	88.21823
916.715	76.19286
917.103	119.28932
917.491	109.26689
917.878	109.26521
918.266	48.12456
918.654	91.23089
919.041	90.2334
919.429	67.15769
919.816	71.17938
920.203	61.1477
920.591	86.21194
920.978	102.24748
921.365	57.14942
921.752	74.17569
922.139	152.32306
922.525	79.18876
922.912	95.22985
923.299	47.11692
923.685	92.23834
924.072	114.25967
924.458	48.11899
924.844	60.14825
925.231	76.17605
925.617	60.15237
926.003	104.26336
926.389	56.14115
926.774	123.30775
927.16	83.20496
927.546	89.22565
927.931	109.26917
928.317	96.2192
928.702	137.3188
929.088	46.10892
929.473	57.14488
929.858	46.11132
930.243	75.1792
930.628	40.09753
931.013	67.16558
931.398	91.20766
931.783	89.23283
932.167	53.12953
932.552	87.21658
932.937	96.23633
933.321	83.20707
933.705	77.19321
934.09	150.37238
934.474	99.23301
934.858	67.1733
935.242	93.21377
935.626	65.16597
936.009	78.20651
936.393	101.25471
936.777	60.15339
937.16	79.20455
937.544	65.15275
937.927	70.17701
938.311	126.3033
938.694	114.29828
939.077	45.10785
939.46	102.24813
939.843	116.23859
940.226	34.08747
940.609	16.03699
940.991	83.21007
941.374	60.1464
941.757	65.15998
942.139	46.10342
942.522	94.22034
942.904	90.21475
943.286	78.19724
943.668	106.27194
944.05	63.15483
944.432	46.11362
944.814	98.23929
945.196	63.15317
945.578	74.17508
945.959	115.26613
946.341	136.32861
946.722	69.16139
947.104	83.19718
947.485	130.29779
947.866	81.20296
948.247	56.14115
948.628	111.26775
949.009	61.15592
949.39	78.19322
949.771	96.22132
950.152	28.06901
950.532	4.00992
950.913	80.19191
951.293	29.07861
951.674	73.17582
952.054	41.10177
952.434	93.22907
952.814	76.17996
953.194	112.29005
953.574	94.22969
953.954	56.13286
954.334	73.1812
954.714	78.18911
955.093	90.21968
955.473	79.19652
955.853	93.23897
956.232	79.21553
956.611	103.24459
956.99	89.22212
957.37	91.23023
957.749	109.25714
958.128	89.22268
958.506	20.05215
958.885	97.24279
959.264	5.01236
959.643	73.16538
960.021	98.24072
960.4	70.15803
960.778	88.21527
961.156	72.17979
961.535	105.24212
961.913	87.20213
962.291	30.07724
962.669	67.16921
963.047	114.28765
963.424	84.21309
963.802	67.16424
964.18	130.32426
964.557	101.23029
964.935	90.21162
965.312	47.12245
965.69	97.24085
966.067	68.16505
966.444	83.20331
966.821	98.25054
967.198	117.2803
967.575	85.20766
967.952	99.2311
968.329	65.15774
968.705	122.2576
969.082	76.19403
969.458	32.07703
969.835	100.24117
970.211	96.24439
970.587	85.21029
970.963	129.32637
971.339	32.08381
971.715	87.21579
972.091	107.26073
972.467	94.2326
972.843	69.17064
973.219	85.20278
973.594	91.23635
973.97	114.26805
974.345	67.15984
974.721	129.30775
975.096	61.14731
975.471	93.2188
975.846	70.16754
976.221	60.1521
976.596	60.14355
976.971	82.20127
977.346	86.19882
977.72	88.22268
978.095	66.1701
978.469	105.248
978.844	151.37274
979.218	44.10559
979.593	110.26056
979.967	99.23898
980.341	51.11741
980.715	87.21776
981.089	89.22123
981.463	69.15784
981.837	35.08576
982.21	163.37091
982.584	60.14465
982.957	52.1298
983.331	78.18341
983.704	55.13502
984.078	26.06436
984.451	126.3104
984.824	72.17463
985.197	117.28062
985.57	102.25341
985.943	86.21101
986.316	101.24583
986.688	91.21776
987.061	79.18413
987.434	70.18178
987.806	75.18105
988.179	57.13431
988.551	99.24895
988.923	72.17659
989.295	105.25977
989.667	57.13598
990.039	113.27597
990.411	62.14237
990.783	105.23913
991.155	32.07715
991.527	140.33904
991.898	62.15415
992.27	81.19922
992.641	80.19962
993.012	123.28532
993.384	87.20604
993.755	69.17532
994.126	84.20074
994.497	54.13244
994.868	103.2341
995.239	88.21175
995.61	53.13328
995.98	76.1837
996.351	49.12136
996.722	55.12743
997.092	35.08312
997.462	37.08664
997.833	101.23707
998.203	74.1786
998.573	47.11709
998.943	103.23902
999.313	76.18121
999.683	57.13661
1000.053	85.1942
1000.423	85.20519
1000.792	78.20116
1001.162	56.13765
1001.531	98.23947
1001.901	97.23971
1002.27	44.09848
1002.639	70.1782
1003.009	51.12125
1003.378	105.26584
1003.747	77.18095
1004.116	65.15507
1004.485	76.18072
1004.853	72.18168
1005.222	94.23515
1005.591	83.19581
1005.959	37.08358
1006.328	12.02721
1006.696	61.14681
1007.064	91.22719
1007.433	112.27673
1007.801	94.22884
1008.169	65.16369
1008.537	136.29572
1008.905	70.16241
1009.273	90.22066
1009.64	70.16633
1010.008	75.1779
1010.375	138.32953
1010.743	103.23533
1011.11	51.12064
1011.478	91.22348
1011.845	73.17088
1012.212	90.20202
1012.579	76.18564
1012.946	70.16594
1013.313	70.16594
1013.68	103.22897
1014.047	49.11676
1014.414	66.15537
1014.78	42.1045
1015.147	69.16625
1015.513	76.18218
1015.88	110.27825
1016.246	86.21085
1016.612	100.22659
1016.978	109.26411
1017.344	85.20867
1017.71	102.24627
1018.076	97.22661
1018.442	119.30236
1018.808	72.1792
1019.174	64.1601
1019.539	122.27677
1019.905	83.19444
1020.27	47.11602
1020.636	98.23276
1021.001	98.23241
1021.366	47.1129
1021.731	83.21216
1022.096	51.12857
1022.461	88.20668
1022.826	89.20988
1023.191	64.16746
1023.556	72.16798
1023.92	96.23397
1024.285	122.29367
1024.649	61.14914
1025.014	119.29094
1025.378	81.20245
1025.742	72.17803
1026.107	100.22382
1026.471	97.2243
1026.835	89.21897
1027.199	40.09643
1027.562	91.20975
1027.926	80.19447
1028.29	88.22109
1028.654	111.25218
1029.017	97.23628
1029.381	35.08382
1029.744	86.21785
1030.107	107.25027
1030.471	76.181
1030.834	73.16524
1031.197	94.22447
1031.56	79.18529
1031.923	65.16755
1032.286	104.24158
1032.648	104.24606
1033.011	76.17347
1033.374	82.19146
1033.736	40.1053
1034.099	95.2295
1034.461	32.08106
1034.823	36.08983
1035.185	65.1631
1035.548	77.18637
1035.91	90.21385
1036.272	73.16531
1036.634	103.24939
1036.995	62.14533
1037.357	61.14803
1037.719	119.28552
1038.08	106.24885
1038.442	68.16076
1038.803	89.212
1039.165	58.14609
1039.526	68.16369
1039.887	92.21826
1040.248	44.10848
1040.609	97.23751
1040.97	63.15352
1041.331	68.17152
1041.692	37.08654
1042.053	81.1832
1042.413	83.19208
1042.774	115.27614
1043.134	98.23106
1043.495	119.29526
1043.855	100.24016
1044.215	85.20952
1044.576	61.14547
1044.936	83.18895
1045.296	87.21555
1045.656	119.28813
1046.016	119.28335
1046.375	70.16907
1046.735	51.11554
1047.095	69.16082
1047.454	112.23399
1047.814	83.19816
1048.173	151.35359
1048.533	110.24884
1048.892	70.16729
1049.251	103.25594
1049.61	74.1813
1049.969	92.21497
1050.328	73.15742
1050.687	49.11918
1051.046	109.26233
1051.405	116.28493
1051.763	58.13308
1052.122	88.21783
1052.48	73.17815
1052.839	72.16857
1053.197	115.26708
1053.555	113.25422
1053.914	118.28479
1054.272	89.21346
1054.63	57.1391
1054.988	95.2236
1055.345	45.09696
1055.703	106.25225
1056.061	66.16921
1056.419	88.22616
1056.776	94.22593
1057.134	113.25818
1057.491	87.21626
1057.848	117.28754
1058.206	59.13843
1058.563	80.17514
1058.92	100.22806
1059.277	116.2825
1059.634	144.33238
1059.991	128.30191
1060.348	53.11963
1060.704	40.09545
1061.061	122.27924
1061.418	86.20701
1061.774	47.11602
1062.131	23.06105
1062.487	73.16981
1062.843	103.25417
1063.199	69.17089
1063.555	44.10201
1063.911	99.2477
1064.267	131.26816
1064.623	31.07551
1064.979	134.31213
1065.335	111.26207
1065.691	88.20926
1066.046	104.22595
1066.402	62.14043
1066.757	150.37157
1067.112	71.17346
1067.468	21.04983
1067.823	96.22863
1068.178	81.19465
1068.533	122.29155
1068.888	83.19695
1069.243	90.22033
1069.598	91.21926
1069.952	12.02721
1070.307	44.10896
1070.662	107.25105
1071.016	46.10309
1071.371	59.13388
1071.725	122.28764
1072.079	71.16997
1072.434	64.15499
1072.788	77.18229
1073.142	113.27453
1073.496	83.1955
1073.85	77.17748
1074.203	72.17384
1074.557	83.21935
1074.911	132.30989
1075.265	95.21871
1075.618	80.1941
1075.971	127.2974
1076.325	60.1521
1076.678	53.12104
1077.031	24.05456
1077.385	97.21142
1077.738	88.19696
1078.091	64.14502
1078.444	97.22296
1078.796	66.16134
1079.149	118.28963
1079.502	100.23376
1079.855	79.18304
1080.207	107.26063
1080.56	68.17507
1080.912	81.1959
1081.264	70.1678
1081.617	84.20327
1081.969	16.04057
1082.321	112.27011
1082.673	17.03903
1083.025	31.07376
1083.377	-143.31947
1083.728	80.18539
1084.08	78.19357
1084.432	77.18461
1084.783	95.22046
1085.135	77.19189
1085.486	72.16387
1085.838	70.17162
1086.189	84.20243
1086.54	112.26407
1086.891	45.11381
1087.242	77.18637
1087.593	122.29278
1087.944	61.13763
1088.295	129.28831
1088.646	71.17126
1088.996	77.1844
1089.347	82.19985
1089.698	75.17625
1090.048	53.13747
1090.398	79.18202
1090.749	56.13373
1091.099	53.13309
1091.449	60.14907
1091.799	84.20884
1092.149	29.07093
1092.499	45.10978
1092.849	86.217
1093.199	100.24817
1093.548	54.12954
1093.898	57.14231
1094.248	66.16897
1094.597	32.08187
1094.947	66.17544
1095.296	85.20836
1095.645	84.21701
1095.994	84.20028
1096.343	70.17537
1096.692	63.16498
1097.041	45.12182
1097.39	123.30419
1097.739	81.20922
1098.088	62.16563
1098.437	32.08424
1098.785	92.2461
1099.134	80.21117
1099.482	55.15101
1099.83	96.25007
1100.179	60.15608
1100.527	71.18782
1100.875	58.153
1101.223	96.25272
1101.571	63.17358
1101.919	25.06554
1102.267	55.15459
1102.615	7.0225
1102.962	22.07073
1103.31	9.02891
1103.658	24.07718
