Data from N2 R10 sample 7_Subt2__4__13-19-59-761.txt Node

Date: Mon Sep 01 13:19:59 PDT 2025
User: uwsun
Spectrometer: HDX01956
Trigger mode: 0
Integration Time (sec): 5.000000E-1
Scans to average: 1
Nonlinearity correction enabled: true
Boxcar width: 0
Storing dark spectrum: false
XAxis mode: Wavelengths
Number of Pixels in Spectrum: 2068
>>>>>Begin Spectral Data<<<<<
194.03	-11.03093
194.578	-23.07294
195.127	-13.04058
195.676	-6.01877
196.225	34.08969
196.773	3.00822
197.321	9.02412
197.87	36.08849
198.418	38.09216
198.966	-3.00738
199.513	-45.10629
200.061	-36.0863
200.609	11.02763
201.156	-75.15631
201.704	-34.081
202.251	5.01246
202.798	-24.059
203.345	23.05361
203.892	20.04727
204.438	68.15151
204.985	-33.07354
205.532	1.00247
206.078	-15.03481
206.624	-41.0953
207.17	23.05015
207.716	-82.18995
208.262	36.06653
208.808	-49.11371
209.354	13.02961
209.899	10.02393
210.445	-45.10567
210.99	-4.00904
211.535	13.02879
212.08	16.03501
212.625	-3.00709
213.17	33.07849
213.715	-83.17537
214.259	58.12612
214.804	20.04659
215.348	22.04735
215.892	-8.01815
216.436	6.01317
216.98	42.08736
217.524	12.02668
218.068	17.04037
218.612	25.05935
219.155	22.04869
219.698	32.07165
220.242	20.04721
220.785	-1.00222
221.328	6.01416
221.871	23.05527
222.414	-3.00711
222.956	-65.14965
223.499	-12.02568
224.041	30.06623
224.583	35.07174
225.126	-21.04416
225.668	-5.01152
226.21	-22.05258
226.751	-51.10648
227.293	18.03897
227.835	-11.02546
228.376	36.07861
228.918	34.0811
229.459	-12.02826
230	-14.03165
230.541	20.04358
231.082	0
231.622	9.01966
232.163	-4.00916
232.704	-20.04699
233.244	8.01872
233.784	7.01629
234.324	-8.01651
234.864	37.07869
235.404	41.09175
235.944	20.04478
236.484	65.15185
237.023	9.02002
237.563	-37.08123
238.102	6.01338
238.641	17.04048
239.18	-14.03083
239.719	-50.11967
240.258	35.07385
240.797	-23.05202
241.335	30.069
241.874	-18.03275
242.412	2.00452
242.95	-60.13601
243.488	26.05565
244.026	0
244.564	36.06927
245.102	-3.00633
245.64	7.01592
246.177	-22.04668
246.715	23.05187
247.252	17.03671
247.789	52.09182
248.326	-66.15003
248.863	21.04295
249.4	44.09319
249.936	23.04418
250.473	-21.04606
251.009	-32.06902
251.546	-16.03316
252.082	21.04297
252.618	1.00208
253.154	-5.01123
253.69	2.00422
254.226	-6.01341
254.761	-17.03587
255.297	16.0326
255.832	-29.06449
256.367	22.04825
256.903	-46.09529
257.438	24.05256
257.972	-13.02714
258.507	-32.06855
259.042	-25.05099
259.576	-46.09269
260.111	-2.00433
260.645	40.08023
261.179	-8.01739
261.713	29.05963
262.247	22.04713
262.781	-7.01364
263.315	-16.0365
263.849	-26.06073
264.382	30.06396
264.915	-17.03702
265.449	-40.09041
265.982	14.0296
266.515	41.09201
267.048	-8.01572
267.58	-4.00817
268.113	-68.13803
268.646	28.06363
269.178	-32.06647
269.71	21.04238
270.243	7.01483
270.775	-24.05681
271.307	24.05352
271.838	33.07263
272.37	7.01592
272.902	-53.11311
273.433	-12.02431
273.965	-25.05657
274.496	20.04598
275.027	16.03653
275.558	4.00894
276.089	-83.18986
276.62	1.00236
277.15	23.05234
277.681	12.02406
278.211	13.02943
278.741	-61.12481
279.272	-29.06114
279.802	5.01151
280.332	-24.05216
280.861	29.06382
281.391	11.02279
281.921	-8.0178
282.45	17.03903
282.98	-16.0385
283.509	22.04511
284.038	-39.08208
284.567	-36.07801
285.096	44.09657
285.625	6.01242
286.153	-45.09708
286.682	-42.08833
287.21	-11.02418
287.739	-26.0563
288.267	-9.01984
288.795	-11.02656
289.323	-13.02756
289.851	38.08034
290.378	-24.04918
290.906	-67.14844
291.433	-57.1306
291.961	-54.11172
292.488	2.00452
293.015	-20.04258
293.542	-38.0874
294.069	-9.01997
294.596	-7.01574
295.122	-11.02372
295.649	40.07886
296.175	26.0567
296.702	-10.02197
297.228	30.06551
297.754	-3.00605
298.28	-18.03669
298.806	-7.01508
299.332	-60.11968
299.857	-63.12861
300.383	7.01594
300.908	-76.16603
301.433	-29.06302
301.958	8.01654
302.483	-13.02886
303.008	7.01545
303.533	12.02793
304.058	11.0231
304.582	-20.04184
305.107	-87.20421
305.631	28.05645
306.155	-54.11187
306.679	-52.10782
307.203	-9.01837
307.727	-45.09491
308.251	-44.09673
308.775	-68.14245
309.298	-69.14585
309.822	-31.06914
310.345	-35.07298
310.868	-47.09883
311.391	4.00861
311.914	-65.14341
312.437	-11.02194
312.96	-54.11122
313.482	-95.19843
314.005	-60.13197
314.527	-41.09375
315.049	-15.033
315.571	-105.20257
316.093	-25.05335
316.615	-43.08918
317.137	-49.0914
317.659	28.05795
318.18	-60.12541
318.702	-39.0773
319.223	-30.0519
319.744	-61.1161
320.265	-81.16694
320.786	-66.13783
321.307	-55.1157
321.828	-34.06428
322.348	-14.02733
322.869	-86.16954
323.389	-16.02093
323.909	-85.16343
324.43	-27.05439
324.95	-72.13587
325.47	-48.09659
325.989	-98.19011
326.509	-82.14563
327.029	-112.20502
327.548	-112.20347
328.067	-67.12938
328.587	-40.08023
329.106	-101.18418
329.625	2.00425
330.144	-149.27668
330.662	-98.17903
331.181	-21.0381
331.7	-94.17312
332.218	-67.11143
332.736	-102.18653
333.255	-133.24143
333.773	-111.20355
334.291	-101.19747
334.808	-110.18573
335.326	-79.13401
335.844	-124.21531
336.361	-142.27204
336.879	-163.2843
337.396	-174.31514
337.913	-130.21914
338.43	-113.1837
338.947	-164.28749
339.464	-160.24427
339.981	-154.263
340.497	-169.30601
341.014	-204.36213
341.53	-135.21194
342.046	-188.33008
342.562	-137.24363
343.078	-179.29608
343.594	-149.24796
344.11	-150.2468
344.626	-139.24231
345.141	-181.28004
345.657	-115.17499
346.172	-149.24277
346.687	-212.32753
347.202	-139.2022
347.717	-110.17133
348.232	-165.2758
348.747	-134.19705
349.261	-260.35969
349.776	-155.23277
350.29	-166.25962
350.805	-112.17741
351.319	-192.28356
351.833	-253.3576
352.347	-228.33736
352.861	-179.25492
353.374	-163.23081
353.888	-245.37373
354.401	-188.26006
354.915	-265.35184
355.428	-156.23194
355.941	-255.35357
356.454	-153.19984
356.967	-175.24309
357.48	-163.21595
357.993	-157.22627
358.505	-237.34009
359.018	-151.2107
359.53	-189.25595
360.042	-147.17609
360.554	-227.31494
361.066	-301.42277
361.578	-224.26105
362.09	-253.33747
362.602	-206.23596
363.113	-233.28874
363.625	-262.30923
364.136	-231.26071
364.647	-375.45337
365.158	-259.31122
365.669	-234.28988
366.18	-235.28175
366.691	-208.2202
367.201	-238.28463
367.712	-240.25922
368.222	-341.38174
368.733	-328.3232
369.243	-367.37173
369.753	-267.28076
370.263	-208.22144
370.773	-289.32971
371.282	-323.33669
371.792	-396.36291
372.301	-386.39085
372.811	-310.34633
373.32	-369.26114
373.829	-424.36285
374.338	-378.26768
374.847	-435.31624
375.356	-467.34477
375.865	-447.21242
376.373	-507.27662
376.882	-456.32349
377.39	-474.27358
377.898	-599.30779
378.407	-578.18337
378.915	-579.13204
379.423	-563.14374
379.93	-633.10407
380.438	-750.11493
380.946	-691.01298
381.453	-843.99318
381.96	-907.89735
382.468	-1015.75386
382.975	-930.75733
383.482	-871.67073
383.989	-971.703
384.495	-1094.5392
385.002	-1181.38729
385.509	-1168.3919
386.015	-1228.32826
386.521	-1321.27916
387.028	-1499.20924
387.534	-1466.28389
388.04	-1457.26745
388.546	-1768.29572
389.051	-1950.49207
389.557	-1958.79164
390.063	-1678.01981
390.568	-1946.32011
391.073	-2115.04663
391.578	-2122.30769
392.084	-2356.43747
392.589	-2805.33776
393.093	-3184.88854
393.598	-3311.97494
394.103	-3501.80063
394.607	-3675.63299
395.112	-3782.88328
395.616	-4167.84892
396.12	-4944.64752
396.624	-5466.32437
397.128	-5622.71619
397.632	-5865.13957
398.136	-6782.47015
398.639	-8574.83289
399.143	-10133.12459
399.646	-10769.22019
400.15	-12456.53466
400.653	-14517.24693
401.156	-17332.02938
401.659	-20555.15135
402.162	-16551.55619
402.664	-2517.606
403.167	-581.52191
403.67	0
404.172	0
404.674	0
405.176	0
405.678	0
406.18	0
406.682	0
407.184	0
407.686	0
408.187	0
408.688	0
409.19	0
409.691	0
410.192	0
410.693	-3410.09464
411.194	-8527.91822
411.694	-7081.52335
412.195	-5935.66391
412.696	-7032.13828
413.196	-8725.3725
413.696	-9892.43856
414.196	-8092.00069
414.696	-5622.49576
415.196	-3082.5975
415.696	1019.37229
416.196	787.76934
416.695	-1553.51667
417.195	-3257.37412
417.694	-3149.83528
418.194	-2567.89504
418.693	-3029.39579
419.192	-2722.26073
419.691	-2858.87891
420.19	-2539.71684
420.688	-2236.65012
421.187	-1703.66143
421.685	-1443.3371
422.184	-1243.07065
422.682	-1079.09894
423.18	-1347.97665
423.678	-1468.84454
424.176	-1312.05138
424.674	-1182.53723
425.172	-920.05283
425.669	-838.78041
426.167	-679.72764
426.664	-664.67099
427.161	-685.62072
427.659	-607.66258
428.156	-706.60748
428.652	-656.70558
429.149	-647.72096
429.646	-602.7429
430.143	-476.85348
430.639	-548.87151
431.135	-504.94627
431.632	-453.94744
432.128	-599.04229
432.624	-581.11311
433.12	-607.02981
433.616	-566.03625
434.111	-716.15917
434.607	-574.16277
435.103	-480.1017
435.598	-439.10123
436.093	-360.16396
436.588	-387.1908
437.083	-382.21766
437.578	-366.23835
438.073	-548.46182
438.568	-397.35318
439.062	-354.23599
439.557	-309.27223
440.051	-350.29283
440.546	-358.30917
441.04	-354.34886
441.534	-384.44038
442.028	-339.36234
442.522	-343.36779
443.015	-308.28495
443.509	-253.28577
444.002	-336.39314
444.496	-310.3044
444.989	-303.36201
445.482	-319.39511
445.975	-280.29028
446.468	-282.2764
446.961	-322.32433
447.454	-347.39355
447.947	-356.42897
448.439	-357.46552
448.931	-398.46232
449.424	-277.37987
449.916	-280.36393
450.408	-383.45803
450.9	-367.48997
451.392	-405.58753
451.884	-317.40155
452.375	-315.43709
452.867	-253.31687
453.358	-387.49441
453.849	-340.39783
454.341	-335.42821
454.832	-284.3362
455.323	-394.57671
455.814	-327.44294
456.304	-330.45216
456.795	-324.44162
457.285	-283.37877
457.776	-229.31566
458.266	-336.49177
458.756	-326.49453
459.247	-364.54396
459.737	-360.54123
460.226	-324.45234
460.716	-344.52903
461.206	-306.4753
461.695	-282.46635
462.185	-309.47841
462.674	-292.44214
463.163	-295.42841
463.653	-251.33749
464.142	-318.51774
464.63	-282.47179
465.119	-325.51089
465.608	-266.41267
466.096	-267.39593
466.585	-247.39523
467.073	-258.43518
467.561	-291.49982
468.05	-238.38987
468.538	-260.46058
469.026	-267.46105
469.513	-283.42325
470.001	-328.54335
470.489	-265.45467
470.976	-268.45402
471.463	-272.50825
471.951	-251.474
472.438	-297.52491
472.925	-267.46597
473.412	-220.4123
473.899	-257.45112
474.385	-238.45045
474.872	-219.38744
475.359	-257.48724
475.845	-242.38248
476.331	-197.33092
476.817	-255.49408
477.303	-219.39897
477.789	-242.4643
478.275	-280.55953
478.761	-229.44328
479.247	-185.32968
479.732	-231.46258
480.218	-261.55846
480.703	-222.44981
481.188	-240.41785
481.673	-240.45001
482.158	-295.51212
482.643	-226.48096
483.128	-229.42843
483.612	-165.31557
484.097	-153.31022
484.581	-196.38076
485.066	-192.38849
485.55	-268.49532
486.034	-226.40933
486.518	-248.49144
487.002	-232.47953
487.486	-205.42325
487.969	-230.47839
488.453	-203.43962
488.936	-239.4622
489.42	-180.33934
489.903	-204.44528
490.386	-651.04218
490.869	-163.30464
491.352	-158.33552
491.835	-170.30287
492.318	-221.43374
492.8	-206.37062
493.283	-219.48702
493.765	-232.50188
494.247	-184.37896
494.73	-191.36954
495.212	-171.36494
495.694	-233.48041
496.175	-285.60057
496.657	-141.29282
497.139	-96.14499
497.62	-291.61752
498.102	-221.48718
498.583	-233.52439
499.064	-222.4393
499.545	-179.36193
500.026	-217.43394
500.507	-198.41036
500.988	-214.47778
501.469	-230.51668
501.949	-150.33033
502.43	-245.52309
502.91	-208.38461
503.39	-183.41271
503.87	-191.4009
504.35	-173.36777
504.83	-223.44097
505.31	-210.45857
505.79	-255.55459
506.269	-146.30557
506.749	-238.49326
507.228	-200.42266
507.707	-186.37117
508.187	-195.42392
508.666	-174.3835
509.145	-253.54017
509.623	-197.41897
510.102	-200.44061
510.581	-115.24948
511.059	-192.43504
511.538	-139.32473
512.016	-131.2814
512.494	-140.30701
512.972	-146.31436
513.45	-222.46669
513.928	-174.38205
514.406	-184.39873
514.884	-140.32456
515.361	-108.23174
515.839	-159.32784
516.316	-152.33108
516.793	-132.3031
517.27	-108.23674
517.747	-137.31779
518.224	-121.25341
518.701	-136.27467
519.178	-141.31539
519.654	-65.13896
520.131	-141.31682
520.607	-139.31476
521.083	-137.28426
521.56	-134.28765
522.036	-68.13406
522.512	-43.09523
522.987	-162.35001
523.463	-130.28099
523.939	-143.32118
524.414	-113.23792
524.89	-114.24599
525.365	-124.25561
525.84	-171.3708
526.315	-145.31911
526.79	-128.26362
527.265	-121.25162
527.74	-189.42554
528.215	-150.32464
528.689	-142.28798
529.164	-95.18786
529.638	-122.28731
530.112	-200.43655
530.587	-173.33985
531.061	-180.40021
531.534	-143.3196
532.008	-188.41835
532.482	-136.28766
532.956	-206.48662
533.429	-115.25522
533.903	-125.25472
534.376	-103.20807
534.849	-130.27738
535.322	-176.38595
535.795	-123.27638
536.268	-155.34413
536.741	-177.39591
537.213	-126.2685
537.686	-161.36205
538.158	-161.33271
538.631	-133.29921
539.103	-187.38956
539.575	-148.28697
540.047	-71.14218
540.519	-113.2489
540.991	-95.21364
541.463	-97.21536
541.934	-143.3028
542.406	-138.30314
542.877	-111.23021
543.348	-83.18359
543.82	-71.15921
544.291	-80.17122
544.762	-117.25436
545.233	-43.09733
545.703	-126.25588
546.174	-86.18246
546.645	-87.18785
547.115	-33.07144
547.585	-67.1397
548.056	-61.13177
548.526	-62.13068
548.996	18.03839
549.466	60.12919
549.935	9.01872
550.405	3.00578
550.875	25.05189
551.344	22.04645
551.814	84.16716
552.283	94.17677
552.752	93.18537
553.221	123.2259
553.69	149.27958
554.159	150.31116
554.628	167.31181
555.096	196.4173
555.565	226.41811
556.033	273.53529
556.502	282.56981
556.97	359.64909
557.438	352.68905
557.906	461.88642
558.374	384.72537
558.842	500.96119
559.31	538.95621
559.777	504.97962
560.245	623.15093
560.712	637.15336
561.18	654.11061
561.647	723.22645
562.114	754.2954
562.581	856.58354
563.048	897.51923
563.514	922.66181
563.981	1034.67345
564.448	1089.6894
564.914	1173.87134
565.381	1282.92794
565.847	1380.09419
566.313	1355.05409
566.779	1444.04048
567.245	1472.16945
567.711	1599.34257
568.176	1667.17095
568.642	1725.59256
569.108	1852.60724
569.573	1937.51086
570.038	2048.12794
570.504	2176.37046
570.969	2162.85691
571.434	2235.29121
571.899	2378.67551
572.363	2447.49069
572.828	2579.53703
573.293	2710.52912
573.757	2685.53444
574.222	2744.37229
574.686	2877.36942
575.15	2868.6742
575.614	3026.47211
576.078	3112.56769
576.542	3146.41801
577.006	3144.3577
577.469	3231.8856
577.933	3194.28941
578.396	3253.62896
578.86	3312.56069
579.323	3234.62425
579.786	3224.12832
580.249	3218.38593
580.712	3226.80257
581.175	3190.84974
581.637	3201.50038
582.1	3237.24299
582.563	3228.14551
583.025	3242.73967
583.487	3157.85229
583.95	3198.10941
584.412	3309.99964
584.874	3288.74779
585.336	3245.62377
585.797	3267.1437
586.259	3288.61684
586.721	3313.55057
587.182	3480.52748
587.643	3426.3602
588.105	3539.54386
588.566	3570.91768
589.027	3632.58271
589.488	3710.26613
589.949	3817.57889
590.41	4012.28553
590.87	4120.09165
591.331	4355.64829
591.791	4399.96204
592.252	4622.76628
592.712	4779.02078
593.172	4988.49845
593.632	5275.23266
594.092	5528.19016
594.552	5766.92109
595.011	6016.14533
595.471	6389.97895
595.931	6656.96081
596.39	7140.35267
596.849	7274.29678
597.308	7807.48193
597.768	8274.36125
598.227	8835.07086
598.685	9412.3195
599.144	10023.06826
599.603	10513.76383
600.062	11031.64257
600.52	11913.97839
600.978	12795.02122
601.437	13381.75369
601.895	14083.76012
602.353	14943.14673
602.811	15888.13056
603.269	16757.5154
603.727	17742.60865
604.184	18873.09873
604.642	19920.31558
605.099	20963.68874
605.557	21998.27098
606.014	23216.4672
606.471	24074.82934
606.928	25650.74216
607.385	26887.98554
607.842	28209.57941
608.299	29369.42787
608.755	30476.69222
609.212	31752.69579
609.668	33357.18632
610.125	34340.09099
610.581	35687.10215
611.037	36514.17864
611.493	37710.31995
611.949	38736.61822
612.405	39879.23837
612.861	40749.73275
613.316	41494.8941
613.772	42232.20237
614.227	43260.11695
614.683	43718.42609
615.138	44068.91018
615.593	44579.4321
616.048	44993.02364
616.503	45283.02674
616.958	45344.4467
617.412	45287.12482
617.867	45096.34288
618.321	45072.35539
618.776	45004.88045
619.23	44289.31125
619.684	43587.50831
620.138	43282.27907
620.592	42741.31235
621.046	42389.0793
621.5	41901.3272
621.954	41112.6519
622.407	39908.50732
622.861	39469.33046
623.314	39031.44565
623.768	38043.903
624.221	37203.18973
624.674	36325.23102
625.127	36035.70606
625.58	35585.37103
626.033	34955.70685
626.485	33727.51722
626.938	33321.02946
627.39	32704.92088
627.843	31857.16687
628.295	30902.84849
628.747	30461.80403
629.199	29709.63201
629.651	29085.71668
630.103	28543.25981
630.555	27785.83978
631.006	26927.73037
631.458	26556.76232
631.909	25783.98207
632.361	25280.76881
632.812	24619.85764
633.263	23889.25097
633.714	23348.61145
634.165	22728.1435
634.616	22065.06249
635.067	21448.94528
635.518	20780.28733
635.968	20554.61496
636.419	19903.30224
636.869	19234.60191
637.319	18875.52052
637.769	18261.18421
638.219	17935.21634
638.669	17501.89598
639.119	17304.86333
639.569	16730.34181
640.019	16501.57411
640.468	16041.12317
640.918	15661.52726
641.367	15461.82224
641.816	15187.06452
642.265	14973.3692
642.714	14606.89994
643.163	14347.64552
643.612	14102.93252
644.061	13634.76965
644.51	13610.58759
644.958	13459.85303
645.406	13266.34245
645.855	12990.08455
646.303	12776.13024
646.751	12355.71692
647.199	12422.11552
647.647	12360.63001
648.095	12208.73894
648.543	12052.71614
648.99	11842.33876
649.438	11725.81241
649.885	11524.48637
650.333	11403.42644
650.78	11330.7219
651.227	11154.89953
651.674	10980.4533
652.121	10817.50908
652.568	10663.93641
653.015	10599.58397
653.461	10431.16401
653.908	10272.67418
654.354	10047.92258
654.801	9855.3947
655.247	9815.36251
655.693	9558.67744
656.139	9575.66053
656.585	9440.34921
657.031	9076.57479
657.477	9007.3881
657.922	8930.29381
658.368	8748.14749
658.813	8562.74545
659.259	8349.56212
659.704	8415.55189
660.149	8218.33136
660.594	8192.3695
661.039	7845.92467
661.484	7813.10356
661.929	7594.88147
662.373	7457.2135
662.818	7332.09241
663.262	7308.9149
663.707	7218.21224
664.151	7034.97449
664.595	6927.88679
665.039	6830.10583
665.483	6830.25965
665.927	6635.77857
666.371	6453.67595
666.814	6538.88634
667.258	6375.83809
667.701	6443.32928
668.145	6299.24617
668.588	6183.17832
669.031	6043.91256
669.474	6023.1057
669.917	5981.58825
670.36	5902.37905
670.803	5839.21662
671.245	5742.39251
671.688	5721.3551
672.13	5641.79174
672.573	5622.73113
673.015	5540.32793
673.457	5480.70118
673.899	5327.51703
674.341	5417.43482
674.783	5205.49453
675.225	5180.70871
675.666	5137.54474
676.108	5087.90322
676.549	5130.47081
676.991	5016.03841
677.432	4992.44939
677.873	4905.42946
678.314	4856.68301
678.755	4714.90168
679.196	4637.50513
679.637	4654.98338
680.078	4460.7719
680.518	4417.77146
680.959	4328.00034
681.399	4233.30521
681.839	4216.17639
682.28	4084.33052
682.72	4076.80323
683.16	3929.46617
683.6	3889.88234
684.039	3810.36261
684.479	3639.45618
684.919	3622.02613
685.358	3615.71983
685.798	3470.98373
686.237	3535.39841
686.676	3409.16457
687.115	3400.23492
687.554	3222.33107
687.993	3196.91756
688.432	3087.11637
688.871	3002.0778
689.309	3020.38055
689.748	2959.66349
690.186	2900.39003
690.625	2781.26111
691.063	2769.39121
691.501	2715.56359
691.939	2707.60771
692.377	2662.46939
692.815	2511.31663
693.253	2518.35959
693.69	2527.90005
694.128	2401.34555
694.565	2327.24336
695.003	2294.54765
695.44	2258.13759
695.877	2210.08249
696.314	2142.70631
696.751	2268.01278
697.188	2113.9636
697.625	2055.94329
698.061	1990.0803
698.498	1976.1162
698.934	1882.02136
699.371	1932.95729
699.807	1901.96067
700.243	1814.96045
700.679	1791.71064
701.115	1852.91223
701.551	1690.77441
701.987	1734.64407
702.422	1652.76507
702.858	1629.75642
703.294	1632.58452
703.729	1574.80032
704.164	1528.69032
704.599	1520.42604
705.035	1503.421
705.47	1433.61553
705.904	1456.50209
706.339	1452.50176
706.774	1440.5032
707.209	1325.32464
707.643	1322.44422
708.078	1313.47375
708.512	1269.4929
708.946	1272.37708
709.38	1266.33456
709.814	1290.26355
710.248	1184.30444
710.682	1098.11553
711.116	1176.22735
711.549	1121.36934
711.983	1030.95157
712.416	1125.14238
712.85	1145.30983
713.283	1099.10586
713.716	1110.28039
714.149	1064.07627
714.582	1085.96185
715.015	1039.15963
715.448	1040.17651
715.881	1008.80611
716.313	1006.94859
716.746	973.90833
717.178	909.85386
717.61	873.90814
718.043	931.97076
718.475	889.83925
718.907	944.02911
719.339	839.62508
719.77	792.63
720.202	839.83997
720.634	864.80221
721.065	845.72088
721.497	796.70134
721.928	746.61294
722.359	762.60755
722.79	737.55239
723.221	774.71266
723.652	810.83023
724.083	776.51756
724.514	754.51414
724.945	688.43669
725.375	683.40575
725.806	683.52655
726.236	707.61718
726.666	720.50559
727.096	631.39806
727.526	649.48562
727.956	609.24706
728.386	692.51966
728.816	616.41312
729.246	593.30832
729.675	595.33024
730.105	629.39882
730.534	598.26729
730.964	646.47431
731.393	654.46319
731.822	590.37554
732.251	576.33708
732.68	615.30989
733.109	585.31323
733.537	530.17719
733.966	549.25146
734.395	539.14034
734.823	557.14659
735.251	505.1246
735.68	605.37816
736.108	526.22905
736.536	515.12035
736.964	519.10801
737.392	517.19594
737.82	500.11092
738.247	526.16007
738.675	577.25704
739.102	450.05163
739.53	503.18695
739.957	470.12843
740.384	508.1609
740.811	493.16152
741.238	475.07862
741.665	424.92384
742.092	494.09347
742.519	392.91907
742.945	436.98295
743.372	417.97403
743.798	411.99942
744.225	424.94849
744.651	428.0095
745.077	415.97696
745.503	425.97673
745.929	437.9842
746.355	443.03382
746.781	412.96443
747.207	327.735
747.632	379.87661
748.058	394.93205
748.483	364.79784
748.908	359.85108
749.334	360.84341
749.759	346.77946
750.184	327.74675
750.609	358.8397
751.033	412.91937
751.458	378.80475
751.883	359.84911
752.307	308.69784
752.732	300.72206
753.156	366.86081
753.58	348.79005
754.005	315.76977
754.429	286.64984
754.853	268.64408
755.277	291.66535
755.7	325.77406
756.124	267.64277
756.548	340.77033
756.971	309.72664
757.394	278.69386
757.818	254.63581
758.241	296.72483
758.664	256.62853
759.087	269.58155
759.51	282.67926
759.933	233.5473
760.356	262.65252
760.778	242.58006
761.201	298.69955
761.623	264.62241
762.046	262.60447
762.468	281.65385
762.89	245.5896
763.312	229.54671
763.734	229.53875
764.156	210.50854
764.578	270.60254
765	233.55519
765.421	171.4283
765.843	222.56931
766.264	243.57257
766.686	270.65774
767.107	194.46236
767.528	174.4329
767.949	231.57355
768.37	185.44724
768.791	204.4847
769.212	156.38742
769.632	141.3263
770.053	204.52681
770.473	182.43626
770.894	198.48722
771.314	225.52583
771.734	164.37809
772.154	201.50652
772.575	191.43585
772.994	147.33139
773.414	204.48097
773.834	186.45753
774.254	140.34018
774.673	204.4875
775.093	139.34123
775.512	156.38005
775.931	170.4251
776.351	172.42106
776.77	129.3134
777.189	117.27752
777.607	119.30236
778.026	173.42469
778.445	135.33496
778.864	157.39805
779.282	95.22872
779.701	162.4032
780.119	117.29411
780.537	91.22703
780.955	166.41675
781.373	130.31931
781.791	89.20047
782.209	162.36901
782.627	89.23417
783.045	98.22548
783.462	126.31963
783.88	140.35854
784.297	125.3123
784.715	67.17246
785.132	107.25829
785.549	56.14085
785.966	64.16161
786.383	101.24785
786.8	132.30444
787.217	107.25292
787.633	82.20469
788.05	154.36182
788.466	143.33421
788.883	123.3113
789.299	96.23091
789.715	144.34636
790.131	94.23336
790.547	91.22703
790.963	133.32723
791.379	86.21723
791.795	73.16732
792.21	91.21276
792.626	72.17141
793.041	114.27981
793.457	86.21249
793.872	95.22307
794.287	78.18633
794.702	136.33195
795.117	84.20854
795.532	85.21275
795.947	133.31741
796.362	124.29418
796.776	153.35421
797.191	110.26789
797.605	46.10875
798.02	78.18996
798.434	105.23322
798.848	105.25738
799.262	84.20816
799.676	87.21216
800.09	51.12617
800.504	80.19425
800.918	67.15579
801.331	108.28162
801.745	79.18173
802.158	121.30012
802.572	112.27021
802.985	83.20066
803.398	109.25864
803.811	144.36594
804.224	116.28682
804.637	60.1435
805.05	82.19018
805.462	102.24961
805.875	51.13265
806.288	25.0609
806.7	110.27478
807.112	54.12593
807.525	84.20709
807.937	45.11186
808.349	82.20521
808.761	92.22573
809.173	76.18426
809.584	86.21226
809.996	61.14975
810.408	23.05984
810.819	79.18579
811.231	47.12191
811.642	-6.01452
812.053	38.09102
812.464	105.24829
812.875	87.22176
813.286	87.22332
813.697	183.41945
814.108	88.21455
814.519	37.08324
814.929	105.26631
815.34	69.16757
815.75	63.1603
816.16	68.16968
816.571	104.26858
816.981	82.19349
817.391	84.20251
817.801	51.12714
818.211	90.21401
818.62	78.18761
819.03	105.25586
819.44	101.26242
819.849	69.17395
820.259	82.20949
820.668	60.14787
821.077	63.15666
821.486	79.19013
821.895	73.1804
822.304	83.21935
822.713	70.16562
823.122	67.16734
823.531	47.112
823.939	72.17541
824.348	56.13659
824.756	74.18525
825.164	130.32367
825.573	51.12839
825.981	97.23945
826.389	103.25724
826.797	65.16293
827.205	30.06944
827.612	100.24545
828.02	70.1644
828.428	50.12774
828.835	94.2462
829.243	32.07685
829.65	53.13213
830.057	63.15311
830.464	83.20172
830.871	82.19596
831.278	54.13092
831.685	62.13871
832.092	60.14716
832.499	68.14893
832.905	60.1521
833.312	102.23131
833.718	90.22335
834.124	62.14197
834.531	56.14146
834.937	84.2149
835.343	77.18553
835.749	96.22318
836.155	71.18568
836.561	69.16964
836.966	87.212
837.372	86.21809
837.777	68.16931
838.183	63.14034
838.588	51.12696
838.993	75.18235
839.399	50.12259
839.804	29.07114
840.209	33.08444
840.613	57.12713
841.018	56.14201
841.423	62.15906
841.828	59.14933
842.232	121.29671
842.637	83.1952
843.041	63.16143
843.445	82.20498
843.849	51.12654
844.253	109.25694
844.657	23.05832
845.061	50.11385
845.465	29.07051
845.869	75.17398
846.272	20.04909
846.676	61.14764
847.079	56.14251
847.483	85.21121
847.886	125.30072
848.289	25.06709
848.692	80.20193
849.095	86.20568
849.498	94.23693
849.901	71.16268
850.304	72.1718
850.707	52.1328
851.109	120.30051
851.512	46.11337
851.914	0
852.316	60.15178
852.718	50.12926
853.121	84.20495
853.523	43.10089
853.925	30.07863
854.326	17.04283
854.728	72.18472
855.13	16.04156
855.531	26.06254
855.933	92.21961
856.334	23.05771
856.736	56.1256
857.137	41.09571
857.538	50.12589
857.939	32.07944
858.34	73.17748
858.741	82.21346
859.142	67.16076
859.542	67.17647
859.943	57.14169
860.343	51.12645
860.744	88.21359
861.144	81.19679
861.544	49.11797
861.945	43.10988
862.345	56.13704
862.745	41.10221
863.145	123.29051
863.544	80.20136
863.944	119.2779
864.344	104.25621
864.743	130.31837
865.143	58.14896
865.542	5.01172
865.941	62.15336
866.34	85.20263
866.74	65.17419
867.139	54.12939
867.537	71.18046
867.936	48.11576
868.335	42.10715
868.734	42.1076
869.132	66.15313
869.531	75.18084
869.929	23.0528
870.327	33.07948
870.726	99.24501
871.124	120.27709
871.522	64.16282
871.92	118.2878
872.318	91.22108
872.715	83.20451
873.113	48.11716
873.511	84.20823
873.908	37.09371
874.306	54.13435
874.703	80.19933
875.1	105.26631
875.497	42.10099
875.894	51.12506
876.291	35.08624
876.688	80.20546
877.085	103.24497
877.482	78.19449
877.878	25.06053
878.275	45.11454
878.671	90.19911
879.068	46.11127
879.464	58.14014
879.86	53.12542
880.256	87.2135
880.652	80.20258
881.048	71.17546
881.444	97.2291
881.84	74.18746
882.236	92.22981
882.631	47.11555
883.027	57.13801
883.422	56.14317
883.817	41.10329
884.213	65.1665
884.608	55.13487
885.003	48.11589
885.398	56.14014
885.793	92.2294
886.188	32.07988
886.582	126.31918
886.977	75.17735
887.371	38.0964
887.766	58.14415
888.16	64.15947
888.554	88.21631
888.949	102.25396
889.343	60.14645
889.737	47.12537
890.131	53.13299
890.525	83.21119
890.918	63.15831
891.312	80.19052
891.706	86.2244
892.099	115.2895
892.492	58.1251
892.886	35.08595
893.279	58.14766
893.672	48.12233
894.065	48.12034
894.458	66.16564
894.851	96.23345
895.244	39.09986
895.637	90.21533
896.029	73.17788
896.422	36.08826
896.814	65.16128
897.206	15.03599
897.599	124.30277
897.991	15.03654
898.383	77.18116
898.775	56.12637
899.167	49.11439
899.559	51.12917
899.951	51.12032
900.342	99.24976
900.734	9.02251
901.125	73.19091
901.517	47.11551
901.908	106.25167
902.299	44.10776
902.69	75.17625
903.082	79.19042
903.473	59.14113
903.863	49.12512
904.254	8.01874
904.645	97.23936
905.036	19.0463
905.426	86.19566
905.817	93.22653
906.207	26.06228
906.597	67.15628
906.987	67.17324
907.378	40.1014
907.768	75.19754
908.158	33.08077
908.547	45.1164
908.937	84.21437
909.327	81.19568
909.717	80.20215
910.106	12.02905
910.495	49.12242
910.885	107.26839
911.274	28.0703
911.663	99.24922
912.052	33.08173
912.441	61.15488
912.83	86.19613
913.219	85.22123
913.608	68.1661
913.997	15.03786
914.385	58.13845
914.774	110.26498
915.162	53.1263
915.55	99.23745
915.939	7.01781
916.327	56.13969
916.715	41.10469
917.103	122.29645
917.491	100.24526
917.878	71.17398
918.266	76.19627
918.654	31.07949
919.041	23.06033
919.429	50.11807
919.816	67.16939
920.203	55.13332
920.591	62.15347
920.978	85.20689
921.365	33.08686
921.752	48.11453
922.139	92.19809
922.525	38.09151
922.912	53.12924
923.299	8.02004
923.685	46.12011
924.072	74.16992
924.458	37.09191
924.844	36.08934
925.231	60.13943
925.617	13.03329
926.003	37.09481
926.389	35.08855
926.774	83.20917
927.16	80.19767
927.546	87.22066
927.931	74.18391
928.317	66.15161
928.702	108.25276
929.088	31.07362
929.473	67.17
929.858	-9.022
930.243	55.13192
930.628	41.09994
931.013	46.11412
931.398	79.18071
931.783	79.20702
932.167	19.04673
932.552	44.11039
932.937	72.17803
933.321	5.01265
933.705	49.12357
934.09	89.22341
934.474	68.16101
934.858	19.04955
935.242	32.07445
935.626	41.10513
936.009	57.15144
936.393	65.16498
936.777	61.15592
937.16	42.10944
937.544	75.1759
937.927	44.11178
938.311	53.12934
938.694	90.23644
939.077	47.1126
939.46	78.1906
939.843	42.08783
940.226	51.13082
940.609	27.06228
940.991	57.14493
941.374	22.05406
941.757	65.15998
942.139	50.11233
942.522	49.11587
942.904	63.1511
943.286	70.17726
943.668	82.21126
944.05	61.14997
944.432	74.18183
944.814	87.21287
945.196	21.05146
945.578	56.13296
945.959	61.14268
946.341	134.3239
946.722	79.18442
947.104	58.13845
947.485	76.17598
947.866	66.16582
948.247	54.13616
948.628	56.13648
949.009	25.06431
949.39	66.16385
949.771	94.2168
950.152	64.15668
950.532	-12.02986
950.913	67.16113
951.293	36.09747
951.674	70.16869
952.054	44.10916
952.434	31.07723
952.814	44.10483
953.194	85.22115
953.574	97.23689
953.954	76.17961
954.334	86.21296
954.714	38.09282
955.093	79.19322
955.473	11.0277
955.853	61.15762
956.232	86.23436
956.611	58.13893
956.99	37.09321
957.37	48.12237
957.749	58.13818
958.128	87.21776
958.506	64.16563
958.885	30.076
959.264	32.07869
959.643	51.11605
960.021	49.12145
960.4	80.18024
960.778	68.16697
961.156	30.07548
961.535	85.19678
961.913	60.14015
962.291	69.17643
962.669	46.11661
963.047	78.19808
963.424	46.11748
963.802	52.12782
964.18	114.28518
964.557	57.13112
964.935	101.23698
965.312	31.08099
965.69	75.18698
966.067	29.0709
966.444	89.21776
966.821	67.17222
967.198	91.21909
967.575	69.16908
967.952	89.20817
968.329	53.12891
968.705	65.13896
969.082	58.14854
969.458	31.07464
969.835	45.10965
970.211	64.16385
970.587	99.2443
970.963	68.17391
971.339	32.08381
971.715	99.24501
972.091	54.13289
972.467	49.12225
972.843	33.08215
973.219	88.20982
973.594	50.13078
973.97	95.2242
974.345	59.14097
974.721	79.19027
975.096	77.18538
975.471	74.17475
975.846	32.07715
976.221	-3.00769
976.596	51.12223
976.971	54.13323
977.346	88.20337
977.72	34.08686
978.095	33.08554
978.469	34.08141
978.844	86.21483
979.218	64.15301
979.593	65.15531
979.967	52.12664
980.341	39.09
980.715	55.13846
981.089	54.13509
981.463	73.16685
981.837	28.0687
982.21	96.22141
982.584	14.03404
982.957	16.0402
983.331	82.19266
983.704	42.10336
984.078	22.0545
984.451	113.27905
984.824	52.12659
985.197	48.11664
985.57	59.14773
985.943	108.2639
986.316	122.29578
986.688	22.05334
987.061	74.17264
987.434	45.11736
987.806	101.24261
988.179	66.15525
988.551	77.1944
988.923	37.09134
989.295	64.15952
989.667	-12.02901
990.039	54.13333
990.411	24.05553
990.783	36.08313
991.155	20.04833
991.527	130.31541
991.898	51.12705
992.27	42.10404
992.641	117.28998
993.012	78.18255
993.384	74.17569
993.755	37.09454
994.126	75.17954
994.497	10.02473
994.868	82.18716
995.239	71.17139
995.61	25.06318
995.98	40.09734
996.351	20.0498
996.722	25.05827
997.092	12.02862
997.462	-12.02837
997.833	79.18623
998.203	86.20709
998.573	52.12943
998.943	52.12189
999.313	53.12693
999.683	50.11999
1000.053	64.14684
1000.423	50.1215
1000.792	83.21387
1001.162	68.16678
1001.531	92.22506
1001.901	80.19832
1002.27	63.14046
1002.639	81.20581
1003.009	26.06211
1003.378	81.20595
1003.747	73.17168
1004.116	46.11014
1004.485	40.09577
1004.853	75.18914
1005.222	45.11357
1005.591	75.17721
1005.959	36.08134
1006.328	55.12363
1006.696	44.10624
1007.064	69.17295
1007.433	86.2135
1007.801	77.18805
1008.169	42.10621
1008.537	40.08875
1008.905	9.02113
1009.273	96.23511
1009.64	20.04798
1010.008	78.18491
1010.375	106.25467
1010.743	99.22637
1011.11	59.13935
1011.478	51.12617
1011.845	31.07316
1012.212	2.00457
1012.579	24.05919
1012.946	62.1472
1013.313	84.19859
1013.68	104.23114
1014.047	26.06223
1014.414	58.13675
1014.78	57.14143
1015.147	97.23247
1015.513	47.11329
1015.88	97.24594
1016.246	57.1405
1016.612	99.22437
1016.978	61.14914
1017.344	57.14066
1017.71	95.22967
1018.076	74.17366
1018.442	54.13878
1018.808	48.11999
1019.174	12.0303
1019.539	96.21894
1019.905	38.0898
1020.27	-1.00249
1020.636	70.16716
1021.001	84.19974
1021.366	21.05069
1021.731	44.11324
1022.096	55.13856
1022.461	43.10188
1022.826	60.14229
1023.191	14.03694
1023.556	37.08692
1023.92	87.21239
1024.285	89.21557
1024.649	53.12977
1025.014	84.20671
1025.378	41.10321
1025.742	13.03249
1026.107	64.14431
1026.471	78.18104
1026.835	33.08203
1027.199	4.00971
1027.562	83.19162
1027.926	66.16086
1028.29	33.08373
1028.654	81.18514
1029.017	84.20511
1029.381	53.12649
1029.744	27.06911
1030.107	58.13696
1030.471	83.1974
1030.834	84.18971
1031.197	103.24553
1031.56	87.20373
1031.923	34.08811
1032.286	126.29141
1032.648	92.21818
1033.011	43.0988
1033.374	62.14533
1033.736	10.02646
1034.099	56.13628
1034.461	-6.0153
1034.823	53.13184
1035.185	61.15318
1035.548	82.19828
1035.91	77.18342
1036.272	55.125
1036.634	42.10286
1036.995	74.17305
1037.357	51.124
1037.719	46.1119
1038.08	51.12102
1038.442	52.12332
1038.803	52.12474
1039.165	47.11862
1039.526	55.13272
1039.887	47.11247
1040.248	30.07415
1040.609	39.09652
1040.97	52.12697
1041.331	79.19887
1041.692	41.09582
1042.053	107.24072
1042.413	115.26444
1042.774	81.19575
1043.134	111.26105
1043.495	89.22204
1043.855	53.12842
1044.215	51.1265
1044.576	36.08626
1044.936	65.14851
1045.296	112.27622
1045.656	63.15415
1046.016	89.21314
1046.375	94.22601
1046.735	64.1446
1047.095	52.1216
1047.454	98.20538
1047.814	81.19346
1048.173	123.28961
1048.533	20.04607
1048.892	38.09137
1049.251	82.20454
1049.61	40.09862
1049.969	66.15501
1050.328	36.07825
1050.687	29.0708
1051.046	43.10478
1051.405	48.11938
1051.763	42.09668
1052.122	32.08002
1052.48	83.20217
1052.839	43.10125
1053.197	102.2375
1053.555	82.18565
1053.914	57.13915
1054.272	94.22524
1054.63	38.09306
1054.988	38.09043
1055.345	79.16897
1055.703	77.18426
1056.061	23.05941
1056.419	23.05978
1056.776	76.18329
1057.134	43.09963
1057.491	96.23824
1057.848	71.17598
1058.206	53.1245
1058.563	44.09706
1058.92	52.11974
1059.277	87.21303
1059.634	61.14313
1059.991	136.32028
1060.348	35.07929
1060.704	55.13086
1061.061	91.20959
1061.418	68.16424
1061.774	55.13557
1062.131	56.14782
1062.487	68.15833
1062.843	49.12211
1063.199	6.01503
1063.555	49.11349
1063.911	62.15616
1064.267	123.25224
1064.623	28.06824
1064.979	84.19759
1065.335	69.16423
1065.691	68.16232
1066.046	50.10988
1066.402	28.06386
1066.757	71.17842
1067.112	72.17587
1067.468	34.08048
1067.823	39.0939
1068.178	73.17569
1068.533	86.20693
1068.888	58.13829
1069.243	65.15987
1069.598	61.14781
1069.952	7.01589
1070.307	63.15546
1070.662	71.16776
1071.016	30.06745
1071.371	60.13612
1071.725	43.10294
1072.079	71.16997
1072.434	55.13342
1072.788	60.14251
1073.142	108.26263
1073.496	54.12791
1073.85	46.10669
1074.203	59.1428
1074.557	69.18278
1074.911	74.17569
1075.265	87.20061
1075.618	86.20842
1075.971	73.17275
1076.325	16.04088
1076.678	56.12782
1077.031	24.05456
1077.385	91.19859
1077.738	88.19696
1078.091	10.02291
1078.444	70.16177
1078.796	16.03948
1079.149	55.13657
1079.502	73.17155
1079.855	27.0632
1080.207	93.22712
1080.56	32.0829
1080.912	101.24335
1081.264	51.12269
1081.617	40.0976
1081.969	19.04816
1082.321	65.15815
1082.673	20.04589
1083.025	59.13962
1083.377	84.17884
1083.728	61.14189
1084.08	65.16169
1084.432	62.14907
1084.783	104.24091
1085.135	55.13761
1085.486	38.08708
1085.838	63.15466
1086.189	43.10443
1086.54	88.20845
1086.891	58.14635
1087.242	33.08053
1087.593	90.2173
1087.944	33.07488
1088.295	69.15612
1088.646	46.11148
1088.996	16.03876
1089.347	60.14683
1089.698	-4.00954
1090.048	65.16825
1090.398	51.11816
1090.749	62.14788
1091.099	24.06058
1091.449	85.21021
1091.799	65.16216
1092.149	23.05632
1092.499	49.11945
1092.849	52.13201
1093.199	76.18943
1093.548	27.0651
1093.898	51.12747
1094.248	82.20934
1094.597	-6.01545
1094.947	50.13327
1095.296	58.14289
1095.645	51.13251
1095.994	80.19089
1096.343	54.13567
1096.692	21.05539
1097.041	28.07601
1097.39	57.14267
1097.739	53.13756
1098.088	87.23146
1098.437	35.09209
1098.785	63.16933
1099.134	65.17201
1099.482	51.14012
1099.83	73.19091
1100.179	43.11218
1100.527	23.06133
1100.875	26.06895
1101.223	44.11685
1101.571	34.09411
1101.919	15.03939
1102.267	47.13226
1102.615	4.01286
1102.962	5.01611
1103.31	4.01285
1103.658	10.03221
