Data from N2 R10 sample 7_Subt2__1__13-19-56-761.txt Node

Date: Mon Sep 01 13:19:56 PDT 2025
User: uwsun
Spectrometer: HDX01956
Trigger mode: 0
Integration Time (sec): 5.000000E-1
Scans to average: 1
Nonlinearity correction enabled: true
Boxcar width: 0
Storing dark spectrum: false
XAxis mode: Wavelengths
Number of Pixels in Spectrum: 2068
>>>>>Begin Spectral Data<<<<<
194.03	-24.06761
194.578	-22.06976
195.127	-23.07188
195.676	-20.06267
196.225	35.09231
196.773	19.05194
197.321	21.05617
197.87	30.07383
198.418	17.04139
198.966	-53.13151
199.513	-80.19023
200.061	-54.12989
200.609	-11.02774
201.156	-47.09734
201.704	-20.04752
202.251	-35.08786
202.798	-29.07135
203.345	-12.02816
203.892	-24.0572
204.438	-1.00226
204.985	-47.10504
205.532	-36.0897
206.078	19.0438
206.624	-38.08827
207.17	51.11054
207.716	-44.10116
208.262	37.06836
208.808	-57.13248
209.354	-15.03435
209.899	-6.0144
210.445	-29.06788
210.99	-2.00452
211.535	60.13158
212.08	-19.04189
212.625	-7.01657
213.17	-2.00479
213.715	-51.107
214.259	59.12827
214.804	11.02567
215.348	-10.02167
215.892	4.00905
216.436	32.06985
216.98	47.09765
217.524	14.03112
218.068	53.12499
218.612	5.01191
219.155	-45.10099
219.698	2.00451
220.242	36.08472
220.785	-2.00443
221.328	-8.01894
221.871	33.07915
222.414	32.07533
222.956	-43.09856
223.499	2.00427
224.041	31.06843
224.583	52.10618
225.126	14.02921
225.668	-29.06711
226.21	15.03559
226.751	-64.13401
227.293	27.05835
227.835	-19.04404
228.376	53.11532
228.918	-7.01683
229.459	-17.04007
230	-7.0158
230.541	31.06739
231.082	0
231.622	34.07387
232.163	11.02511
232.704	-15.03521
233.244	12.02806
233.784	34.0787
234.324	-45.09366
234.864	-44.09523
235.404	14.0315
235.944	38.08477
236.484	25.05886
237.023	-31.06954
237.563	-43.09452
238.102	14.03117
238.641	16.03811
239.18	-10.022
239.719	-46.11001
240.258	8.01698
240.797	36.08044
241.335	13.03
241.874	38.06815
242.412	4.00904
242.95	-16.03594
243.488	46.09802
244.026	-22.04786
244.564	-2.00388
245.102	52.10845
245.64	31.07017
246.177	46.09615
246.715	60.13429
247.252	38.08168
247.789	112.19468
248.326	-15.03375
248.863	23.04702
249.4	61.12872
249.936	6.01157
250.473	-30.06593
251.009	-6.01287
251.546	-25.05192
252.082	-8.01648
252.618	-24.05025
253.154	17.03803
253.69	29.06079
254.226	-33.07418
254.761	3.0063
255.297	-12.0246
255.832	-65.14563
256.367	24.05261
256.903	-47.09739
257.438	5.01099
257.972	17.03526
258.507	-57.12276
259.042	7.01417
259.576	-68.13772
260.111	22.04737
260.645	34.06829
261.179	-22.04796
261.713	-12.0249
262.247	31.06627
262.781	7.0136
263.315	-48.11022
263.849	-49.11497
264.382	2.00429
264.915	-3.00651
265.449	-61.13847
265.982	6.01271
266.515	4.00905
267.048	-36.0712
267.58	-9.01841
268.113	-25.05025
268.646	-9.0206
269.178	-41.08534
269.71	7.01417
270.243	25.05275
270.775	-23.05443
271.307	-43.09722
271.838	10.02211
272.37	-35.08026
272.902	26.05454
273.433	-10.02025
273.965	-1.00225
274.496	9.02074
275.027	3.00687
275.558	-31.0698
276.089	-44.09986
276.62	0
277.15	25.05687
277.681	4.00803
278.211	0
278.741	-33.06709
279.272	-26.05478
279.802	-20.04626
280.332	-30.06529
280.861	-4.00886
281.391	-32.06694
281.921	21.04645
282.45	13.02987
282.98	-18.04333
283.509	-44.09156
284.038	-15.0314
284.567	38.08105
285.096	-4.00887
285.625	-54.11327
286.153	-42.09055
286.682	-32.06715
287.21	-31.06843
287.739	-29.06283
288.267	-20.04419
288.795	-26.06297
289.323	-39.08316
289.851	23.04879
290.378	-46.09474
290.906	-66.1462
291.433	-40.09134
291.961	-9.01843
292.488	1.00226
293.015	-51.10932
293.542	-18.04123
294.069	-35.0781
294.596	-21.04734
295.122	-68.14843
295.649	41.08081
296.175	-23.05068
296.702	32.06967
297.228	6.01317
297.754	1.00201
298.28	-25.05104
298.806	-42.09117
299.332	-53.10554
299.857	-42.08533
300.383	-31.07111
300.908	-57.12402
301.433	-44.09592
301.958	25.05148
302.483	-88.19842
303.008	-7.0155
303.533	-32.07513
304.058	5.01051
304.582	-47.09891
305.107	-62.14482
305.631	6.01216
306.155	-44.09095
306.679	-69.14361
307.203	-29.05947
307.727	-50.10557
308.251	3.00653
308.775	-68.14245
309.298	-59.12444
309.822	1.00222
310.345	-30.06248
310.868	-47.09883
311.391	-2.00431
311.914	-19.04152
312.437	-53.10672
312.96	-40.08212
313.482	-46.09504
314.005	-73.161
314.527	-38.08684
315.049	-63.13999
315.571	-89.17104
316.093	-20.04264
316.615	-76.15878
317.137	-15.02774
317.659	3.00624
318.18	-28.05811
318.702	-57.11346
319.223	-51.08872
319.744	-68.12964
320.265	-77.15855
320.786	-43.08934
321.307	-35.0733
321.828	-15.02823
322.348	-54.10641
322.869	-45.08786
323.389	-40.05276
323.909	-88.16932
324.43	19.03787
324.95	-75.14163
325.47	-84.17043
325.989	-97.18812
326.509	-91.16199
327.029	-94.17129
327.548	-105.19041
328.067	-92.17872
328.587	-56.11274
329.106	-127.23313
329.625	-31.06636
330.144	-133.24599
330.662	-130.23942
331.181	-129.2405
331.7	-125.232
332.218	-130.21998
332.736	-68.12328
333.255	-86.15425
333.773	-121.22245
334.291	-75.14573
334.808	-116.19618
335.326	-80.13574
335.844	-148.25862
336.361	-153.29389
336.879	-131.22656
337.396	-180.32651
337.913	-109.18269
338.43	-154.25324
338.947	-124.21508
339.464	-170.26031
339.981	-163.27905
340.497	-110.19617
341.014	-194.34348
341.53	-185.29466
342.046	-174.30437
342.562	-113.1997
343.078	-175.28914
343.594	-113.18618
344.11	-136.22289
344.626	-162.28413
345.141	-160.24602
345.657	-122.18603
346.172	-161.26321
346.687	-189.29001
347.202	-203.30119
347.717	-175.27777
348.232	-179.30035
348.747	-181.27002
349.261	-216.29455
349.776	-207.31575
350.29	-252.40404
350.805	-162.26032
351.319	-145.21106
351.833	-235.33025
352.347	-256.38204
352.861	-215.30968
353.374	-200.28654
353.888	-245.37373
354.401	-186.25713
354.915	-272.36198
355.428	-237.36109
355.941	-207.28255
356.454	-202.26826
356.967	-243.34499
357.48	-197.26398
357.993	-201.29368
358.505	-263.3805
359.018	-185.26097
359.53	-229.31423
360.042	-204.24948
360.554	-218.30157
361.066	-300.42124
361.578	-276.32793
362.09	-260.34762
362.602	-236.2734
363.113	-244.30356
363.625	-240.28096
364.136	-207.23147
364.647	-360.43285
365.158	-199.23389
365.669	-190.23169
366.18	-300.36827
366.691	-281.3063
367.201	-265.32006
367.712	-285.31335
368.222	-297.32681
368.733	-324.31871
369.243	-300.29532
369.753	-279.29482
370.263	-265.28862
370.773	-306.35137
371.282	-342.35928
371.792	-478.45455
372.301	-322.31728
372.811	-428.50019
373.32	-433.31751
373.829	-467.40797
374.338	-414.29912
374.847	-460.33903
375.356	-555.42951
375.865	-526.26548
376.373	-509.2781
376.882	-568.42854
377.39	-479.27739
377.898	-679.36957
378.407	-620.20584
378.915	-589.1363
379.423	-630.17527
379.93	-546.0745
380.438	-740.111
380.946	-762.03052
381.453	-822.9883
381.96	-887.89484
382.468	-1039.75393
382.975	-978.75561
383.482	-1005.64567
383.989	-1028.69821
384.495	-1030.5554
385.002	-1253.35918
385.509	-1324.3323
386.015	-1235.32453
386.521	-1332.27348
387.028	-1551.18154
387.534	-1545.23939
388.04	-1486.25121
388.546	-1822.26505
389.051	-1958.48767
389.557	-1900.82002
390.063	-1719.00347
390.568	-1966.31292
391.073	-2129.04385
391.578	-2212.29494
392.084	-2532.4441
392.589	-2850.34987
393.093	-3379.98492
393.598	-3508.18271
394.103	-3713.15788
394.607	-3745.83491
395.112	-3995.65323
395.616	-4342.62686
396.12	-5073.40735
396.624	-5672.91096
397.128	-5837.69941
397.632	-6037.07922
398.136	-6965.77246
398.639	-8724.84536
399.143	-10467.93914
399.646	-11316.06223
400.15	-12630.86646
400.653	-14909.77738
401.156	-17337.07536
401.659	-20894.90335
402.162	-16594.15239
402.664	-2618.07515
403.167	-703.10555
403.67	0
404.172	0
404.674	0
405.176	0
405.678	0
406.18	0
406.682	0
407.184	0
407.686	0
408.187	0
408.688	0
409.19	0
409.691	0
410.192	0
410.693	-4278.47754
411.194	-9266.46366
411.694	-7523.83422
412.195	-6833.80976
412.696	-7613.33917
413.196	-9299.29866
413.696	-10382.05216
414.196	-8461.75798
414.696	-6126.19744
415.196	-3438.57406
415.696	630.21027
416.196	646.04291
416.695	-1798.07246
417.195	-3533.0971
417.694	-3395.00793
418.194	-2619.52361
418.693	-3260.8829
419.192	-2981.92819
419.691	-3156.78249
420.19	-2876.82417
420.688	-2397.03499
421.187	-1991.10891
421.685	-1631.60633
422.184	-1230.00735
422.682	-1212.50297
423.18	-1421.08196
423.678	-1452.83492
424.176	-1497.09188
424.674	-1368.53566
425.172	-1020.03099
425.669	-986.71514
426.167	-686.72418
426.664	-743.62719
427.161	-760.57831
427.659	-750.58944
428.156	-728.59607
428.652	-725.68214
429.149	-727.69577
429.646	-633.73279
430.143	-542.84063
430.639	-636.86401
431.135	-644.95579
431.632	-518.94882
432.128	-566.03427
432.624	-628.13203
433.12	-689.05108
433.616	-585.04086
434.111	-725.16337
434.607	-635.19349
435.103	-540.1252
435.598	-456.10774
436.093	-493.24887
436.588	-434.2216
437.083	-386.22052
437.578	-420.28244
438.073	-504.41558
438.568	-406.36271
439.062	-326.21374
439.557	-338.30185
440.051	-397.33984
440.546	-437.39174
441.04	-362.35797
441.534	-365.41556
442.028	-346.37086
442.522	-379.41228
443.015	-302.27864
443.509	-299.34372
444.002	-349.41034
444.496	-283.27465
444.989	-345.41857
445.482	-337.42008
445.975	-350.37336
446.468	-346.34853
446.961	-292.29039
447.454	-316.35413
447.947	-389.4744
448.439	-346.44947
448.931	-374.43052
449.424	-307.42515
449.916	-323.42602
450.408	-364.43227
450.9	-433.59091
451.392	-355.50696
451.884	-354.45424
452.375	-413.59134
452.867	-241.30057
453.358	-347.43714
453.849	-326.37945
454.341	-316.40126
454.832	-354.42996
455.323	-386.5636
455.814	-370.50833
456.304	-294.39808
456.795	-362.49959
457.285	-247.32661
457.776	-270.37716
458.266	-366.54066
458.756	-357.5466
459.247	-395.59586
459.737	-403.61378
460.226	-300.41559
460.716	-352.54262
461.206	-341.53512
461.695	-344.5787
462.185	-292.44983
462.674	-262.39314
463.163	-368.54661
463.653	-295.40246
464.142	-324.52841
464.63	-297.49893
465.119	-330.5195
465.608	-286.44631
466.096	-278.41363
466.585	-244.3901
467.073	-268.45328
467.561	-285.48872
468.05	-242.39686
468.538	-235.41358
469.026	-273.47216
469.513	-286.42812
470.001	-283.46295
470.489	-305.52892
470.976	-241.40528
471.463	-273.51024
471.951	-245.46199
472.438	-316.56126
472.925	-293.51486
473.412	-214.40046
473.899	-241.42125
474.385	-278.53131
474.872	-310.56148
475.359	-262.49733
475.845	-225.35386
476.331	-252.42969
476.817	-258.50026
477.303	-242.44345
477.789	-237.45415
478.275	-272.54254
478.761	-258.50289
479.247	-233.42039
479.732	-243.48796
480.218	-256.54717
480.703	-276.56613
481.188	-217.3755
481.673	-219.4085
482.158	-260.44716
482.643	-196.41439
483.128	-270.51026
483.612	-214.41415
484.097	-198.40559
484.581	-158.30416
485.066	-208.4224
485.55	-251.46192
486.034	-262.47889
486.518	-231.45594
487.002	-270.56283
487.486	-238.49502
487.969	-230.47839
488.453	-214.46453
488.936	-243.47038
489.42	-201.38088
489.903	-210.45896
490.386	-683.10351
490.869	-191.35945
491.352	-182.3885
491.835	-156.27692
492.318	-225.44201
492.8	-197.35361
493.283	-234.522
493.765	-218.47019
494.247	-170.34902
494.73	-177.34131
495.212	-184.39379
495.694	-218.44797
496.175	-256.53602
496.657	-171.35749
497.139	-174.26897
497.62	-305.64921
498.102	-222.48949
498.583	-202.45173
499.064	-219.43306
499.545	-231.47265
500.026	-207.41298
500.507	-208.43205
500.988	-172.38068
501.469	-257.58053
501.949	-198.44041
502.43	-238.50737
502.91	-199.36714
503.39	-191.43145
503.87	-226.47803
504.35	-191.40762
504.83	-235.46601
505.31	-231.50666
505.79	-217.46813
506.269	-188.39713
506.749	-218.44979
507.228	-260.55668
507.707	-178.35455
508.187	-190.41261
508.666	-214.47561
509.145	-200.42211
509.623	-218.46575
510.102	-194.42686
510.581	-179.39361
511.059	-206.46808
511.538	-178.41902
512.016	-168.36375
512.494	-141.30927
512.972	-165.35672
513.45	-272.57809
513.928	-208.45997
514.406	-223.48726
514.884	-165.38441
515.361	-158.34268
515.839	-162.33425
516.316	-136.29522
516.793	-77.17486
517.27	-111.24347
517.747	-131.30352
518.224	-145.30529
518.701	-77.15341
519.178	-165.3709
519.654	-113.24409
520.131	-106.23647
520.607	-59.13143
521.083	-151.31428
521.56	-191.41505
522.036	-93.18442
522.512	-109.24472
522.987	-141.30327
523.463	-138.2988
523.939	-126.28201
524.414	-95.19923
524.89	-118.25484
525.365	-154.3196
525.84	-155.33496
526.315	-187.41517
526.79	-134.27635
527.265	-116.24095
527.74	-163.36505
528.215	-200.43747
528.689	-133.26917
529.164	-147.29423
529.638	-133.31388
530.112	-193.42064
530.587	-161.31538
531.061	-192.42796
531.534	-111.24644
532.008	-170.37688
532.482	-133.28113
532.956	-192.45232
533.429	-163.36535
533.903	-115.23381
534.376	-172.35297
534.849	-132.28177
535.322	-198.43621
535.795	-167.37863
536.268	-145.32126
536.741	-159.35433
537.213	-119.2532
537.686	-172.38766
538.158	-195.40604
538.631	-119.26695
539.103	-188.39173
539.575	-72.13707
540.047	-114.23056
540.519	-121.26697
540.991	-92.20676
541.463	-145.32514
541.934	-92.19264
542.406	-147.32352
542.877	-110.22808
543.348	-96.21292
543.82	-49.10938
544.291	-61.13002
544.762	-143.3126
545.233	-108.2477
545.703	-128.26006
546.174	-42.08825
546.645	-67.14405
547.115	-25.05403
547.585	-64.13336
548.056	-65.14053
548.526	-31.0649
548.996	-16.03438
549.466	37.08006
549.935	30.06209
550.405	51.09711
550.875	10.02083
551.344	85.17699
551.814	129.25401
552.283	119.22241
552.752	91.18147
553.221	152.27712
553.69	251.45913
554.159	135.28098
554.628	198.36685
555.096	252.52998
555.565	275.50253
556.033	327.63299
556.502	346.68886
556.97	335.6094
557.438	431.82794
557.906	430.83298
558.374	475.87731
558.842	518.99149
559.31	545.9669
559.777	581.10696
560.245	672.22647
560.712	703.25179
561.18	766.26213
561.647	780.30307
562.114	833.40139
562.581	899.64547
563.048	979.62195
563.514	1045.8252
563.981	1136.78683
564.448	1205.80755
564.914	1242.94334
565.381	1303.9475
565.847	1446.15265
566.313	1433.1235
566.779	1498.082
567.245	1611.27763
567.711	1698.41527
568.176	1737.21123
568.642	1847.67893
569.108	1927.65168
569.573	2115.58705
570.038	2154.14984
570.504	2179.37116
570.969	2300.90933
571.434	2408.31081
571.899	2528.69769
572.363	2572.49754
572.828	2728.53463
573.293	2696.52975
573.757	2803.52668
574.222	2901.34979
574.686	2984.34893
575.15	3127.63318
575.614	3138.44594
576.078	3210.54352
576.542	3166.41261
577.006	3197.34251
577.469	3348.85743
577.933	3378.22699
578.396	3295.61731
578.86	3345.55055
579.323	3336.59535
579.786	3342.08565
580.249	3337.34785
580.712	3297.78528
581.175	3333.81594
581.637	3389.44232
582.1	3343.2063
582.563	3419.07438
583.025	3290.7274
583.487	3318.78939
583.95	3287.07811
584.412	3370.97556
584.874	3373.72406
585.336	3379.58442
585.797	3317.12568
586.259	3435.57094
586.721	3347.54004
587.182	3561.4972
587.643	3672.2602
588.105	3564.53438
588.566	3711.85075
589.027	3738.53901
589.488	3787.23067
589.949	3934.52536
590.41	4016.28329
590.87	4202.04753
591.331	4385.63131
591.791	4490.91076
592.252	4648.75151
592.712	4848.98112
593.172	5036.47263
593.632	5405.17198
594.092	5649.14105
594.552	5792.91295
595.011	6076.12995
595.471	6402.9781
595.931	6718.96758
596.39	7060.33045
596.849	7418.36864
597.308	7781.45613
597.768	8346.44384
598.227	8820.04406
598.685	9453.42526
599.144	10021.06173
599.603	10530.82955
600.062	11090.93467
600.52	11987.41701
600.978	12695.33631
601.437	13383.76951
601.895	14098.89655
602.353	15102.75153
602.811	16041.84409
603.269	16939.68149
603.727	17701.08181
604.184	18922.7759
604.642	19750.94118
605.099	21162.56256
605.557	22063.21554
606.014	23343.29143
606.471	24390.31097
606.928	25702.43515
607.385	26958.8949
607.842	28252.08331
608.299	29502.89974
608.755	30514.07836
609.212	31768.84744
609.668	33233.12107
610.125	34406.64103
610.581	35638.71588
611.037	36844.80953
611.493	37784.92471
611.949	38815.2808
612.405	39828.77575
612.861	40926.42464
613.316	41740.38268
613.772	42441.45967
614.227	42842.37268
614.683	43779.1647
615.138	44160.034
615.593	44871.19695
616.048	45072.06722
616.503	45323.56579
616.958	45141.76937
617.412	45199.96314
617.867	45157.15561
618.321	45137.22792
618.776	44733.3199
619.23	44420.96005
619.684	43711.99553
620.138	43510.94439
620.592	42808.04788
621.046	42624.63544
621.5	41634.61051
621.954	40790.52918
622.407	40017.49524
622.861	39422.92763
623.314	38992.10956
623.768	38045.91949
624.221	37475.39127
624.674	36537.92057
625.127	36137.51551
625.58	35613.59652
626.033	34965.78835
626.485	33823.33216
626.938	33505.62799
627.39	32784.63508
627.843	32024.74305
628.295	31048.30582
628.747	30224.31102
629.199	29856.21848
629.651	29298.10507
630.103	28485.5823
630.555	27816.20822
631.006	27271.11104
631.458	26630.73
631.909	25790.06427
632.361	25249.33529
632.812	24615.8006
633.263	23967.36398
633.714	23458.18807
634.165	22910.79673
634.616	21951.41007
635.067	21650.8761
635.518	20989.28809
635.968	20431.85291
636.419	19921.55962
636.869	19297.4613
637.319	18782.26663
637.769	18278.41004
638.219	18112.48362
638.669	17537.33427
639.119	17131.78135
639.569	16976.21812
640.019	16592.61935
640.468	16142.24336
640.918	16007.18448
641.367	15555.79947
641.816	15369.9168
642.265	14921.87342
642.714	14708.84381
643.163	14578.73103
643.612	14104.94952
644.061	13831.40464
644.51	13727.52343
644.958	13534.44071
645.406	13346.93474
645.855	13147.17336
646.303	13036.91988
646.751	12723.08784
647.199	12679.78111
647.647	12538.75006
648.095	12346.57444
648.543	12120.12917
648.99	12060.53317
649.438	11923.87037
649.885	11771.70515
650.333	11597.48901
650.78	11504.53949
651.227	11372.87429
651.674	11111.02643
652.121	11037.3933
652.568	10890.80612
653.015	10790.26738
653.461	10524.49186
653.908	10523.54449
654.354	10190.35599
654.801	9991.78537
655.247	10043.05665
655.693	9883.42444
656.139	9597.71335
656.585	9479.43702
657.031	9290.00661
657.477	9207.81483
657.922	9046.50738
658.368	8925.41266
658.813	8982.40657
659.259	8648.93238
659.704	8441.58408
660.149	8319.44105
660.594	8138.31824
661.039	8054.10085
661.484	7984.22346
661.929	7694.93559
662.373	7573.24926
662.818	7494.13544
663.262	7420.94686
663.707	7298.22232
664.151	7328.01453
664.595	7049.89166
665.039	7046.09777
665.483	6965.24741
665.927	6832.76399
666.371	6806.64052
666.814	6692.86274
667.258	6525.80569
667.701	6498.32322
668.145	6512.18335
668.588	6286.14267
669.031	6300.82864
669.474	6179.04703
669.917	6207.51889
670.36	6118.2866
670.803	6067.11957
671.245	5985.307
671.688	5824.30563
672.13	5740.74736
672.573	5703.68877
673.015	5704.24534
673.457	5681.60858
673.899	5631.35546
674.341	5483.3995
674.783	5479.34504
675.225	5506.52877
675.666	5336.43396
676.108	5314.78179
676.549	5266.39493
676.991	5148.96483
677.432	5137.37288
677.873	5059.34224
678.314	4997.60297
678.755	4915.78871
679.196	4771.42952
679.637	4743.93423
680.078	4602.69444
680.518	4639.65031
680.959	4484.91872
681.399	4363.24264
681.839	4375.09836
682.28	4214.27227
682.72	4155.76491
683.16	4097.39875
683.6	4005.83083
684.039	3898.32101
684.479	3831.39519
684.919	3645.01833
685.358	3721.69292
685.798	3610.96172
686.237	3549.39488
686.676	3513.13751
687.115	3467.21901
687.554	3419.29671
687.993	3357.88043
688.432	3183.10395
688.871	3062.07259
689.309	3144.37472
689.748	2965.66264
690.186	3014.39289
690.625	2841.26593
691.063	2876.40273
691.501	2811.58219
691.939	2744.61625
692.377	2738.48543
692.815	2608.34279
693.253	2581.37779
693.69	2453.88633
694.128	2466.37008
694.565	2501.30717
695.003	2337.57141
695.44	2313.16126
695.877	2218.08624
696.314	2239.74069
696.751	2250.00554
697.188	2131.97275
697.625	2192.01294
698.061	2075.13613
698.498	2031.15468
698.934	2015.11872
699.371	1964.97919
699.807	2006.03266
700.243	1903.03088
700.679	1881.77393
701.115	1841.90375
701.551	1814.87928
701.987	1764.66687
702.422	1663.77538
702.858	1710.83215
703.294	1697.6392
703.729	1676.90542
704.164	1555.71907
704.599	1574.47485
705.035	1522.43884
705.47	1470.65856
705.904	1449.49459
706.339	1491.54299
706.774	1429.49112
707.209	1404.41351
707.643	1384.52008
708.078	1401.58375
708.512	1306.5436
708.946	1358.48496
709.38	1324.40681
709.814	1286.25884
710.248	1215.34764
710.682	1237.30525
711.116	1220.28633
711.549	1202.49606
711.983	1134.09353
712.416	1171.20551
712.85	1170.34692
713.283	1102.1101
713.716	1118.29274
714.149	1111.14421
714.582	1016.86897
715.015	1062.19628
715.448	1097.26724
715.881	1054.86653
716.313	999.93823
716.746	969.90226
717.178	923.87648
717.61	955.04972
718.043	906.92824
718.475	923.89519
718.907	934.01188
719.339	862.66056
719.77	863.74803
720.202	863.88311
720.634	794.6817
721.065	826.68938
721.497	828.75758
721.928	797.70458
722.359	780.63909
722.79	793.64998
723.221	740.64894
723.652	776.76547
724.083	757.48698
724.514	752.51081
724.945	707.47022
725.375	692.42142
725.806	744.64214
726.236	760.72001
726.666	729.5214
727.096	708.54375
727.526	694.57439
727.956	702.40764
728.386	695.52529
728.816	648.47709
729.246	629.37742
729.675	653.44265
730.105	650.4393
730.534	621.30951
730.964	645.47232
731.393	628.41246
731.822	614.42482
732.251	612.41066
732.68	646.36677
733.109	605.35262
733.537	567.24984
733.966	572.29793
734.395	585.22539
734.823	584.19498
735.251	602.31407
735.68	584.33589
736.108	577.33492
736.536	536.16093
736.964	475.02356
737.392	563.29064
737.82	575.25797
738.247	547.20116
738.675	560.22434
739.102	483.1216
739.53	465.1052
739.957	444.07115
740.384	542.23027
740.811	508.19343
741.238	467.06214
741.665	468.00823
742.092	484.07353
742.519	440.01977
742.945	441.99321
743.372	455.05272
743.798	454.09284
744.225	441.98305
744.651	442.03976
745.077	453.05637
745.503	465.05801
745.929	460.02908
746.355	476.10379
746.781	420.98162
747.207	357.79749
747.632	344.8012
748.058	421.9907
748.483	380.83009
748.908	372.87968
749.334	408.94685
749.759	375.83976
750.184	391.88135
750.609	412.95613
751.033	375.84322
751.458	387.8223
751.883	316.75364
752.307	331.74643
752.732	294.70843
753.156	357.84112
753.58	384.8654
754.005	359.87008
754.429	283.64342
754.853	326.77481
755.277	336.76127
755.7	311.74272
756.124	318.75812
756.548	272.62479
756.971	323.75748
757.394	327.80888
757.818	280.69759
758.241	273.67137
758.664	298.72594
759.087	196.43035
759.51	282.67926
759.933	235.55178
760.356	255.63589
760.778	246.5892
761.201	266.62834
761.623	304.71112
762.046	290.66533
762.468	289.6714
762.89	310.73679
763.312	231.55127
763.734	199.47091
764.156	196.47589
764.578	227.51109
765	240.5711
765.421	213.52944
765.843	260.6623
766.264	256.60167
766.686	250.6113
767.107	181.43245
767.528	193.47851
767.949	196.48976
768.37	188.45424
768.791	211.50065
769.212	143.35598
769.632	207.47274
770.053	177.45923
770.473	171.41075
770.894	221.5415
771.314	214.50121
771.734	142.32881
772.154	151.38393
772.575	231.52286
772.994	146.3292
773.414	189.4469
773.834	147.3642
774.254	163.39436
774.673	148.35746
775.093	125.30766
775.512	111.2727
775.931	184.45894
776.351	141.34716
776.77	118.28726
777.189	152.3581
777.607	171.43046
778.026	150.3698
778.445	79.19802
778.864	122.31124
779.282	150.35736
779.701	124.31075
780.119	115.28919
780.537	112.27835
780.955	136.34328
781.373	175.42626
781.791	109.24452
782.209	132.3025
782.627	101.26521
783.045	121.27712
783.462	119.30225
783.88	108.27814
784.297	135.33667
784.715	99.25341
785.132	83.20127
785.549	109.27154
785.966	104.26073
786.383	129.31492
786.8	98.22755
787.217	91.21576
787.633	30.07559
788.05	192.44775
788.466	146.34102
788.883	97.24663
789.299	99.23799
789.715	105.25442
790.131	124.30615
790.547	100.24907
790.963	89.22075
791.379	97.24454
791.795	138.31218
792.21	114.26533
792.626	100.23678
793.041	111.2726
793.457	109.26818
793.872	87.20461
794.287	72.1722
794.702	122.29856
795.117	75.1865
795.532	48.12094
795.947	125.29878
796.362	100.23834
796.776	167.38554
797.191	64.1572
797.605	57.13447
798.02	70.17073
798.434	63.14115
798.848	110.26939
799.262	73.18126
799.676	86.20976
800.09	77.18959
800.504	97.23477
800.918	67.15579
801.331	113.2944
801.745	63.14539
802.158	31.07815
802.572	84.20373
802.985	101.24335
803.398	95.22603
803.811	82.21067
804.224	73.18192
804.637	62.14822
805.05	111.25595
805.462	93.22797
805.875	42.10941
806.288	40.09716
806.7	76.19101
807.112	96.22203
807.525	83.20466
807.937	47.11679
808.349	103.25678
808.761	92.22573
809.173	88.21287
809.584	104.25583
809.996	31.07653
810.408	54.13975
810.819	56.13229
811.231	36.09355
811.642	65.15525
812.053	56.13368
812.464	109.25754
812.875	95.24181
813.286	113.28874
813.697	141.32591
814.108	80.19534
814.519	152.33389
814.929	133.33565
815.34	67.16277
815.75	84.21294
816.16	99.24564
816.571	44.11481
816.981	81.19116
817.391	67.16204
817.801	27.0676
818.211	82.19529
818.62	85.20418
819.03	80.19585
819.44	76.19831
819.849	44.11142
820.259	60.15388
820.668	42.10385
821.077	41.10236
821.486	121.28888
821.895	101.24831
822.304	88.23236
822.713	123.28803
823.122	95.23606
823.531	99.23355
823.939	64.15616
824.348	103.24901
824.756	69.17289
825.164	99.24788
825.573	24.06071
825.981	109.26848
826.389	108.26949
826.797	51.12816
827.205	69.15847
827.612	85.20921
828.02	36.08511
828.428	45.11507
828.835	73.19188
829.243	74.1763
829.65	29.07261
830.057	56.13628
830.464	50.12227
830.871	45.1083
831.278	54.13092
831.685	50.11214
832.092	84.20511
832.499	75.16402
832.905	74.18712
833.312	101.22909
833.718	83.20624
834.124	95.21609
834.531	79.19873
834.937	70.17953
835.343	43.10427
835.749	68.15896
836.155	69.18051
836.561	67.16479
836.966	84.2048
837.372	89.22557
837.777	45.11251
838.183	89.19719
838.588	100.24672
838.993	58.14146
839.399	65.15892
839.804	-5.01234
840.209	54.13767
840.613	58.12933
841.018	44.11182
841.423	83.21216
841.828	39.09906
842.232	76.18792
842.637	67.15806
843.041	58.14875
843.445	41.10325
843.849	71.17552
844.253	43.10266
844.657	50.12616
845.061	58.13185
845.465	16.039
845.869	78.18083
846.272	23.05642
846.676	66.15959
847.079	83.21022
847.483	82.20387
847.886	126.30307
848.289	34.0911
848.692	60.15199
849.095	50.1204
849.498	117.29369
849.901	37.08535
850.304	81.19294
850.707	44.11253
851.109	90.22661
851.512	55.13532
851.914	20.05075
852.316	45.11414
852.718	21.05456
853.121	40.0984
853.523	69.16107
853.925	73.18993
854.326	32.0804
854.728	65.16696
855.13	2.00521
855.531	37.08881
855.933	59.14173
856.334	47.11743
856.736	44.09893
857.137	16.03753
857.538	25.06323
857.939	28.06956
858.34	67.16308
858.741	97.25185
859.142	75.17968
859.542	53.13992
859.943	72.17849
860.343	50.12399
860.744	94.2279
861.144	49.11976
861.544	24.05806
861.945	11.02827
862.345	61.14914
862.745	56.13923
863.145	95.2256
863.544	85.21375
863.944	54.12772
864.344	99.24412
864.743	95.23417
865.143	69.17687
865.542	55.12768
865.941	62.15336
866.34	61.14608
866.74	71.19008
867.139	6.01451
867.537	35.08953
867.936	58.13961
868.335	44.11221
868.734	33.08468
869.132	37.08634
869.531	59.14269
869.929	71.16143
870.327	43.10337
870.726	94.23285
871.124	79.18391
871.522	56.14267
871.92	59.14548
872.318	70.17073
872.715	113.27689
873.113	51.12441
873.511	50.12472
873.908	26.06598
874.306	39.0973
874.703	52.13022
875.1	93.23638
875.497	81.19331
875.894	29.0714
876.291	16.03956
876.688	40.10345
877.085	82.19581
877.482	72.17972
877.878	36.08699
878.275	37.09431
878.671	92.20345
879.068	90.2159
879.464	79.19013
879.86	42.0996
880.256	71.17475
880.652	41.10454
881.048	69.17058
881.444	43.10262
881.84	70.17745
882.236	81.20274
882.631	54.13259
883.027	117.28008
883.422	25.06426
883.817	7.01774
884.213	70.17915
884.608	49.12029
885.003	49.11829
885.398	37.09291
885.793	68.17029
886.188	15.03756
886.582	107.27196
886.977	86.20293
887.371	58.14661
887.766	43.10716
888.16	92.22806
888.554	68.16777
888.949	68.17036
889.343	72.17535
889.737	41.10948
890.131	80.19977
890.525	96.2437
890.918	66.16576
891.312	119.28128
891.706	82.21411
892.099	67.17012
892.492	112.23877
892.886	36.08839
893.279	45.11482
893.672	67.17018
894.065	89.22147
894.458	87.21752
894.851	78.19031
895.244	57.14549
895.637	75.17995
896.029	37.09077
896.422	72.17535
896.814	76.1882
897.206	14.0336
897.599	130.31707
897.991	68.164
898.383	57.13463
898.775	73.16416
899.167	55.12824
899.559	103.25845
899.951	73.17148
900.342	46.11715
900.734	10.02501
901.125	49.12867
901.517	73.17855
901.908	113.26793
902.299	58.14167
902.69	87.20397
903.082	67.16186
903.473	52.12455
903.863	52.13271
904.254	21.04906
904.645	129.31645
905.036	47.11393
905.426	58.1327
905.817	18.04446
906.207	44.10503
906.597	53.12397
906.987	67.17324
907.378	45.11397
907.768	47.12438
908.158	38.09293
908.547	72.18536
908.937	38.09776
909.327	75.18139
909.717	80.20215
910.106	67.16051
910.495	64.15947
910.885	64.16178
911.274	44.11015
911.663	98.24675
912.052	64.15761
912.441	42.107
912.83	84.19165
913.219	91.2366
913.608	44.10796
913.997	-4.01013
914.385	94.22283
914.774	86.20811
915.162	40.09556
915.55	92.22095
915.939	16.04065
916.327	77.19133
916.715	40.10216
917.103	119.28932
917.491	92.22598
917.878	25.06178
918.266	63.16307
918.654	50.12778
919.041	18.04726
919.429	22.05223
919.816	47.11925
920.203	48.11651
920.591	82.20223
920.978	72.17568
921.365	68.17792
921.752	63.14989
922.139	91.19598
922.525	26.06275
922.912	72.17495
923.299	51.12677
923.685	81.21024
924.072	52.11993
924.458	85.20929
924.844	71.17507
925.231	14.03283
925.617	29.07405
926.003	71.18085
926.389	60.15113
926.774	67.16933
927.16	59.14634
927.546	21.05389
927.931	51.12728
928.317	61.14027
928.702	90.21137
929.088	36.08541
929.473	38.09691
929.858	4.00976
930.243	15.03625
930.628	30.07328
931.013	35.087
931.398	18.04168
931.783	78.20443
932.167	31.07608
932.552	94.2337
932.937	54.13396
933.321	40.10057
933.705	51.12857
934.09	94.23574
934.474	71.16802
934.858	88.22679
935.242	46.10673
935.626	43.11022
936.009	44.11716
936.393	74.18752
936.777	47.12043
937.16	76.19689
937.544	64.15043
937.927	36.09158
938.311	105.25375
938.694	64.16888
939.077	63.15047
939.46	99.24097
939.843	104.21448
940.226	57.14606
940.609	57.1307
940.991	55.13989
941.374	48.11738
941.757	99.24214
942.139	22.04971
942.522	81.19035
942.904	61.14636
943.286	75.18975
943.668	56.14492
944.05	67.16454
944.432	56.13806
944.814	79.19358
945.196	20.04902
945.578	29.06921
945.959	72.16804
946.341	118.28608
946.722	98.22791
947.104	30.072
947.485	55.12789
947.866	34.08591
948.247	38.09609
948.628	66.16056
949.009	46.11789
949.39	84.20785
949.771	83.19185
950.152	42.10324
950.532	-8.01989
950.913	83.199
951.293	51.13775
951.674	52.12574
952.054	39.09684
952.434	73.18047
952.814	56.13311
953.194	71.18517
953.574	78.19117
953.954	41.09755
954.334	63.15666
954.714	36.08797
955.093	93.22687
955.473	50.12504
955.853	80.20603
956.232	93.25315
956.611	50.11995
956.99	87.21721
957.37	25.06399
957.749	93.22008
958.128	11.02791
958.506	54.13999
958.885	59.14869
959.264	68.1661
959.643	73.16538
960.021	66.16307
960.4	45.10211
960.778	106.25844
961.156	26.06546
961.535	72.16712
961.913	61.14245
962.291	34.08747
962.669	15.03823
963.047	62.15789
963.424	45.11495
963.802	72.17633
964.18	87.2187
964.557	86.19669
964.935	89.20931
965.312	16.04191
965.69	111.27491
966.067	54.13141
966.444	107.26092
966.821	49.12635
967.198	97.23327
967.575	123.29837
967.952	95.22194
968.329	76.18405
968.705	74.1579
969.082	37.09511
969.458	18.04344
969.835	59.14339
970.211	27.06957
970.587	66.16385
970.963	89.22677
971.339	36.09423
971.715	79.19623
972.091	76.18626
972.467	74.18378
972.843	40.09945
973.219	106.25186
973.594	37.09699
973.97	120.28183
974.345	26.06251
974.721	62.14981
975.096	63.15208
975.471	62.14675
975.846	85.20286
976.221	14.03578
976.596	60.14355
976.971	79.19401
977.346	81.18745
977.72	63.16013
978.095	43.11126
978.469	59.14059
978.844	116.28819
979.218	14.03379
979.593	61.14586
979.967	53.12905
980.341	70.16055
980.715	76.1906
981.089	75.18691
981.463	74.16911
981.837	31.07602
982.21	100.23045
982.584	29.07032
982.957	58.14462
983.331	114.26617
983.704	66.1617
984.078	52.12811
984.451	99.2451
984.824	58.14104
985.197	54.13107
985.57	97.24121
985.943	94.23029
986.316	100.24345
986.688	62.14919
987.061	87.20245
987.434	77.19972
987.806	53.12847
988.179	48.11331
988.551	93.23412
988.923	51.12557
989.295	93.23059
989.667	32.07671
990.039	24.05958
990.411	80.18304
990.783	106.24135
991.155	39.0939
991.527	93.22721
991.898	61.15169
992.27	44.10896
992.641	69.17252
993.012	115.26719
993.384	56.13342
993.755	65.16527
994.126	100.23825
994.497	60.147
994.868	64.14661
995.239	38.0923
995.61	59.14821
995.98	41.09976
996.351	56.13852
996.722	17.03968
997.092	34.08076
997.462	6.01414
997.833	74.17461
998.203	55.13322
998.573	74.18344
998.943	54.12653
999.313	40.09603
999.683	64.15318
1000.053	86.19645
1000.423	55.13352
1000.792	79.2037
1001.162	23.05688
1001.531	47.11594
1001.901	29.07256
1002.27	77.17117
1002.639	67.17066
1003.009	71.16815
1003.378	66.16826
1003.747	92.21556
1004.116	49.11726
1004.485	80.19009
1004.853	66.16671
1005.222	71.17835
1005.591	92.21666
1005.959	21.04759
1006.328	13.02947
1006.696	50.12059
1007.064	83.20752
1007.433	29.07274
1007.801	146.35197
1008.169	78.19597
1008.537	66.14565
1008.905	41.09567
1009.273	80.1965
1009.64	38.09085
1010.008	39.09315
1010.375	117.28051
1010.743	132.29982
1011.11	35.08305
1011.478	72.17744
1011.845	82.19161
1012.212	72.16221
1012.579	35.08615
1012.946	57.13546
1013.313	123.28859
1013.68	56.1257
1014.047	53.1262
1014.414	44.10402
1014.78	69.17083
1015.147	111.26532
1015.513	41.09894
1015.88	79.20094
1016.246	88.21567
1016.612	103.23324
1016.978	63.15397
1017.344	58.1431
1017.71	86.20827
1018.076	73.17135
1018.442	82.20971
1018.808	55.13732
1019.174	60.15021
1019.539	184.41216
1019.905	74.17366
1020.27	31.07675
1020.636	91.21643
1021.001	116.27414
1021.366	39.09383
1021.731	55.14128
1022.096	42.10605
1022.461	54.12767
1022.826	53.12586
1023.191	88.22931
1023.556	98.22746
1023.92	56.1375
1024.285	55.13407
1024.649	57.13947
1025.014	51.12627
1025.378	53.13314
1025.742	29.07227
1026.107	58.13094
1026.471	81.1879
1026.835	33.08203
1027.199	39.09404
1027.562	84.19389
1027.926	86.20882
1028.29	92.23098
1028.654	84.19188
1029.017	91.22191
1029.381	31.0743
1029.744	60.15269
1030.107	69.16259
1030.471	52.12441
1030.834	50.11371
1031.197	83.19862
1031.56	22.05217
1031.923	33.08554
1032.286	81.18901
1032.648	79.18782
1033.011	17.03926
1033.374	83.19375
1033.736	21.05546
1034.099	75.18187
1034.461	51.12876
1034.823	38.09479
1035.185	74.18539
1035.548	51.12404
1035.91	53.12683
1036.272	56.12725
1036.634	72.17535
1036.995	68.15921
1037.357	27.06594
1037.719	78.18861
1038.08	112.26263
1038.442	20.04772
1038.803	66.15791
1039.165	89.22292
1039.526	36.08718
1039.887	54.12905
1040.248	-6.01493
1040.609	73.17954
1040.97	72.17515
1041.331	75.18894
1041.692	4.00942
1042.053	93.20983
1042.413	73.16927
1042.774	87.21002
1043.134	129.30232
1043.495	46.11566
1043.855	75.18098
1044.215	63.15592
1044.576	49.11712
1044.936	101.22909
1045.296	120.29551
1045.656	56.1372
1046.016	73.17535
1046.375	67.16192
1046.735	41.09307
1047.095	41.09609
1047.454	108.22584
1047.814	39.0939
1048.173	123.28961
1048.533	35.08039
1048.892	29.06985
1049.251	100.24862
1049.61	52.12792
1049.969	18.04267
1050.328	78.16802
1050.687	65.15762
1051.046	43.10478
1051.405	70.1734
1051.763	48.11035
1052.122	67.16649
1052.48	79.19258
1052.839	43.10125
1053.197	34.08023
1053.555	120.26958
1053.914	69.16807
1054.272	58.13993
1054.63	32.07846
1054.988	51.12106
1055.345	52.11187
1055.703	106.25225
1056.061	59.15145
1056.419	44.11395
1056.776	113.27061
1057.134	49.1134
1057.491	86.21381
1057.848	54.13426
1058.206	81.18923
1058.563	25.05537
1058.92	65.14929
1059.277	88.21543
1059.634	64.15008
1059.991	71.16932
1060.348	14.03185
1060.704	20.04791
1061.061	158.35902
1061.418	39.09471
1061.774	41.10132
1062.131	68.17913
1062.487	24.05637
1062.843	72.17868
1063.199	57.14148
1063.555	22.05123
1063.911	88.22062
1064.267	89.18392
1064.623	61.14775
1064.979	67.15812
1065.335	108.25513
1065.691	89.21159
1066.046	55.12074
1066.402	35.07971
1066.757	57.1436
1067.112	75.1831
1067.468	0
1067.823	48.11537
1068.178	68.16381
1068.533	68.16418
1068.888	88.20861
1069.243	66.1623
1069.598	41.09972
1069.952	-1.00227
1070.307	29.07201
1070.662	28.06671
1071.016	59.13186
1071.371	86.19407
1071.725	52.12427
1072.079	58.13919
1072.434	39.09489
1072.788	58.13781
1073.142	71.17385
1073.496	39.09265
1073.85	45.10439
1074.203	88.21183
1074.557	70.18539
1074.911	62.14754
1075.265	59.13681
1075.618	69.16776
1075.971	59.14
1076.325	52.13201
1076.678	16.03681
1077.031	26.05908
1077.385	71.1556
1077.738	38.08593
1078.091	38.08656
1078.444	84.19358
1078.796	44.108
1079.149	81.20017
1079.502	31.07345
1079.855	51.11882
1080.207	110.26779
1080.56	26.06743
1080.912	35.08538
1081.264	91.21726
1081.617	46.11211
1081.969	24.06078
1082.321	90.21795
1082.673	5.01151
1083.025	59.13962
1083.377	85.18093
1083.728	101.23308
1084.08	45.11235
1084.432	55.13242
1084.783	93.2159
1085.135	37.09288
1085.486	1.00231
1085.838	71.17404
1086.189	42.10202
1086.54	87.20612
1086.891	39.09874
1087.242	52.12645
1087.593	82.19828
1087.944	86.19304
1088.295	65.14719
1088.646	72.17364
1088.996	27.06528
1089.347	59.14441
1089.698	-16.03827
1090.048	38.09882
1090.398	84.19335
1090.749	57.13609
1091.099	5.01266
1091.449	64.15889
1091.799	63.15723
1092.149	13.03189
1092.499	65.15797
1092.849	54.13704
1093.199	89.22131
1093.548	18.04348
1093.898	47.11755
1094.248	61.15631
1094.597	13.03337
1094.947	69.18333
1095.296	105.25643
1095.645	66.17104
1095.994	69.16499
1096.343	40.10075
1096.692	54.14163
1097.041	23.06249
1097.39	72.17972
1097.739	32.08336
1098.088	91.24194
1098.437	25.06589
1098.785	75.20119
1099.134	99.26048
1099.482	47.12921
1099.83	64.16763
1100.179	44.11477
1100.527	70.18521
1100.875	43.11371
1101.223	58.15366
1101.571	31.08584
1101.919	38.09939
1102.267	33.09306
1102.615	-3.00965
1102.962	17.05469
1103.31	-1.00322
1103.658	11.03543
