Data from N2 R10 sample 7_Subt2__5__13-20-00-761.txt Node

Date: Mon Sep 01 13:20:00 PDT 2025
User: uwsun
Spectrometer: HDX01956
Trigger mode: 0
Integration Time (sec): 5.000000E-1
Scans to average: 1
Nonlinearity correction enabled: true
Boxcar width: 0
Storing dark spectrum: false
XAxis mode: Wavelengths
Number of Pixels in Spectrum: 2068
>>>>>Begin Spectral Data<<<<<
194.03	-22.06196
194.578	-18.05705
195.127	-30.09384
195.676	-15.04697
196.225	32.08444
196.773	18.04921
197.321	-12.03227
197.87	-8.01982
198.418	26.0632
198.966	-22.05428
199.513	-64.15172
200.061	-64.15423
200.609	20.05016
201.156	-64.13306
201.704	-39.09301
202.251	-10.02499
202.798	-21.05159
203.345	27.06288
203.892	-14.0333
204.438	47.10517
204.985	-56.12539
205.532	-17.04221
206.078	-7.01622
206.624	-37.08593
207.17	21.04581
207.716	-17.03887
208.262	5.00931
208.808	-21.04846
209.354	-31.07123
209.899	20.04776
210.445	-16.03736
210.99	-24.05447
211.535	37.08153
212.08	10.02191
212.625	31.07282
213.17	73.17228
213.715	-35.07317
214.259	40.08731
214.804	58.13409
215.348	2.00432
215.892	65.14527
216.436	54.11732
216.98	7.01467
217.524	13.0289
218.068	43.1016
218.612	15.03568
219.155	33.07287
219.698	36.08054
220.242	51.11966
220.785	-9.01998
221.328	-10.02368
221.871	13.0313
222.414	51.11962
222.956	-15.03419
223.499	30.06362
224.041	55.12079
224.583	25.05136
225.126	-15.0315
225.668	-10.02305
226.21	2.00476
226.751	3.00619
227.293	31.06693
227.835	2.00462
228.376	80.17307
228.918	42.10003
229.459	-19.04481
230	26.05829
230.541	50.10826
231.082	1.00229
231.622	26.05658
232.163	0
232.704	4.00935
233.244	2.00469
233.784	50.11537
234.324	-36.07478
234.864	-39.08432
235.404	47.10504
235.944	36.08034
236.484	53.12411
237.023	49.10811
237.563	27.05847
238.102	9.02006
238.641	19.04522
239.18	-42.09304
239.719	17.04017
240.258	48.101
240.797	37.08266
241.335	45.10319
241.874	39.06993
242.412	-58.1327
242.95	-1.00224
243.488	33.07052
244.026	-1.00217
244.564	39.07499
245.102	12.02525
245.64	40.09038
246.177	6.01265
246.715	56.12544
247.252	41.08807
247.789	52.09182
248.326	40.08897
248.863	23.04702
249.4	18.03834
249.936	3.00579
250.473	70.15059
251.009	-24.05168
251.546	7.01443
252.082	28.0572
252.618	28.05795
253.154	-32.0723
253.69	-38.08084
254.226	12.02673
254.761	23.04811
255.297	-32.06591
255.832	6.01325
256.367	7.0154
256.903	-12.02467
257.438	3.0066
257.972	2.00416
258.507	-25.05347
259.042	5.01013
259.576	11.02187
260.111	12.02589
260.645	24.04832
261.179	-3.00651
261.713	21.04326
262.247	7.01504
262.781	-15.02929
263.315	-30.06864
263.849	18.04168
264.382	-5.01074
264.915	-46.10079
265.449	-41.09269
265.982	29.06111
266.515	29.06524
267.048	-54.10726
267.58	32.06484
268.113	-27.05429
268.646	-17.03898
269.178	-72.15089
269.71	37.0744
270.243	-8.017
270.775	-36.08541
271.307	-11.02471
271.838	82.17861
272.37	-6.01368
272.902	10.02105
273.433	34.06816
273.965	36.08044
274.496	10.02304
275.027	25.05698
275.558	8.01787
276.089	-42.09528
276.62	24.05637
277.15	8.01826
277.681	0
278.211	-28.06391
278.741	-45.09174
279.272	-51.10804
279.802	-7.01615
280.332	-23.04998
280.861	-30.06684
281.391	-35.07327
281.921	3.00666
282.45	-5.01153
282.98	-8.01922
283.509	4.00823
284.038	17.03534
284.567	-1.00215
285.096	-2.00443
285.625	7.01449
286.153	-78.16946
286.682	-1.00208
287.21	3.00657
287.739	-31.06719
288.267	-42.09323
288.795	-4.00965
289.323	-47.10039
289.851	-12.02565
290.378	0
290.906	-51.11262
291.433	-28.06378
291.961	12.02446
292.488	7.01579
293.015	11.02326
293.542	-30.06889
294.069	-26.05791
294.596	-2.00449
295.122	-16.03454
295.649	-33.06617
296.175	7.01533
296.702	23.05017
297.228	58.1259
297.754	-13.02626
298.28	-12.02443
298.806	-5.01077
299.332	-9.01774
299.857	-38.07714
300.383	23.05219
300.908	-71.15494
301.433	-19.0412
301.958	1.00207
302.483	-42.09381
303.008	-30.06673
303.533	-3.007
304.058	3.00631
304.582	-69.14592
305.107	-147.34907
305.631	1.00203
306.155	-60.12446
306.679	-53.10992
307.203	-20.04093
307.727	-35.07366
308.251	-40.08787
308.775	-68.14245
309.298	-65.13728
309.822	-64.14372
310.345	-30.06248
310.868	-22.046
311.391	12.02579
311.914	-49.10775
312.437	15.02973
312.96	-70.14469
313.482	-70.1454
314.005	-78.1722
314.527	-86.19843
315.049	-36.07955
315.571	-38.07213
316.093	-56.12032
316.615	-88.18434
317.137	-11.02032
317.659	3.00624
318.18	-10.02067
318.702	19.03715
319.223	-40.06938
319.744	-64.1219
320.265	-81.16694
320.786	-55.11458
321.307	-87.1843
321.828	-24.04527
322.348	-74.1465
322.869	-80.15749
323.389	5.00649
323.909	-44.08376
324.43	-12.02409
324.95	-50.09384
325.47	-133.27287
325.989	-84.1624
326.509	-75.13296
327.029	-67.12125
327.548	-120.21844
328.067	-92.17872
328.587	-76.15371
329.106	-80.14511
329.625	-50.10747
330.144	-132.24408
330.662	-133.24513
331.181	-155.29084
331.7	-128.23775
332.218	-99.16611
332.736	-124.22802
333.255	-103.18555
333.773	-114.20921
334.291	-83.16159
334.808	-138.23479
335.326	-116.19874
335.844	-91.15662
336.361	-150.28792
336.879	-96.16448
337.396	-137.24578
337.913	-108.18097
338.43	-55.08795
338.947	-123.21329
339.464	-160.24427
339.981	-143.24349
340.497	-156.28153
341.014	-164.28809
341.53	-178.28294
342.046	-119.20514
342.562	-133.23627
343.078	-155.25467
343.594	-119.19639
344.11	-139.228
344.626	-149.26043
345.141	-142.21717
345.657	-128.19553
346.172	-141.22922
346.687	-149.22592
347.202	-183.26985
347.717	-148.23309
348.232	-142.23585
348.747	-189.28264
349.261	-147.19592
349.776	-179.27076
350.29	-235.37495
350.805	-107.16925
351.319	-160.23398
351.833	-210.29276
352.347	-239.35483
352.861	-242.35152
353.374	-172.24425
353.888	-169.25196
354.401	-205.28514
354.915	-234.30744
355.428	-200.30135
355.941	-172.23208
356.454	-160.20949
356.967	-222.31307
357.48	-200.26827
357.993	-187.27204
358.505	-222.31707
359.018	-147.20485
359.53	-217.2966
360.042	-167.20152
360.554	-181.24738
361.066	-228.31276
361.578	-194.22355
362.09	-248.33025
362.602	-206.23596
363.113	-278.35004
363.625	-268.31702
364.136	-159.1745
364.647	-327.38843
365.158	-197.23137
365.669	-219.26985
366.18	-217.25846
366.691	-272.29543
367.201	-253.30423
367.712	-261.28426
368.222	-324.36031
368.733	-285.27564
369.243	-276.2689
369.753	-298.31733
370.263	-208.22144
370.773	-291.33225
371.282	-304.31441
371.792	-348.31194
372.301	-338.33534
372.811	-327.36774
373.32	-435.31933
373.829	-437.37632
374.338	-293.19763
374.847	-434.31534
375.356	-420.30215
375.865	-447.21242
376.373	-507.27662
376.882	-381.25893
377.39	-455.2593
377.898	-624.32655
378.407	-460.12718
378.915	-578.13162
379.423	-557.14107
379.93	-592.08948
380.438	-718.1026
380.946	-594.99444
381.453	-773.97801
381.96	-794.88635
382.468	-1017.75385
382.975	-859.76213
383.482	-934.65791
383.989	-1018.69893
384.495	-1044.55171
385.002	-1120.41238
385.509	-1192.38222
386.015	-1240.32187
386.521	-1300.29006
387.028	-1427.24821
387.534	-1368.33943
388.04	-1360.32212
388.546	-1709.32918
389.051	-1869.53622
389.557	-1982.7797
390.063	-1617.0431
390.568	-1907.33371
391.073	-2033.06104
391.578	-2127.30709
392.084	-2298.4312
392.589	-2876.35624
393.093	-3274.93663
393.598	-3119.73644
394.103	-3395.60331
394.607	-3650.55942
395.112	-3699.5659
395.616	-4073.41155
396.12	-4731.33837
396.624	-5291.94005
397.128	-5455.12942
397.632	-5646.62942
398.136	-6492.77399
398.639	-8452.17661
399.143	-10141.24163
399.646	-10985.30965
400.15	-12154.53624
400.653	-14512.18928
401.156	-17010.12405
401.659	-20468.44452
402.162	-15766.29226
402.664	-2394.78245
403.167	-538.59093
403.67	0
404.172	0
404.674	0
405.176	0
405.678	0
406.18	0
406.682	0
407.184	0
407.686	0
408.187	0
408.688	0
409.19	0
409.691	0
410.192	0
410.693	-3007.60437
411.194	-7623.28088
411.694	-6562.00542
412.195	-5542.33344
412.696	-6494.19767
413.196	-8646.53766
413.696	-9507.69705
414.196	-7840.38189
414.696	-5310.49808
415.196	-2787.08838
415.696	1253.25684
416.196	1101.54175
416.695	-1469.29155
417.195	-3234.0571
417.694	-2774.89625
418.194	-2419.06934
418.693	-2946.4903
419.192	-2877.86888
419.691	-2911.39877
420.19	-2494.28701
420.688	-2035.8689
421.187	-1728.88053
421.685	-1376.87738
422.184	-1079.26007
422.682	-925.60684
423.18	-1355.98845
423.678	-1548.88958
424.176	-1349.06131
424.674	-1278.53886
425.172	-948.04717
425.669	-752.81541
426.167	-612.7603
426.664	-661.67264
427.161	-684.62128
427.659	-634.64849
428.156	-638.64324
428.652	-640.71126
429.149	-664.71541
429.646	-544.76277
430.143	-492.85018
430.639	-549.8714
431.135	-458.94562
431.632	-503.94829
432.128	-485.01756
432.624	-601.12097
433.12	-645.03911
433.616	-524.0269
434.111	-723.16243
434.607	-592.17155
435.103	-473.09913
435.598	-348.0698
436.093	-401.18869
436.588	-369.17946
437.083	-329.18082
437.578	-379.24875
438.073	-482.39308
438.568	-366.32089
439.062	-319.20828
439.557	-316.27931
440.051	-364.30664
440.546	-379.3306
441.04	-413.41737
441.534	-336.37831
442.028	-286.29918
442.522	-335.35806
443.015	-323.30086
443.509	-306.3527
444.002	-302.34887
444.496	-314.30886
444.989	-308.36867
445.482	-276.33661
445.975	-326.3444
446.468	-280.27421
446.961	-278.27481
447.454	-328.36929
447.947	-340.4073
448.439	-286.3639
448.931	-354.4044
449.424	-315.43737
449.916	-345.45843
450.408	-331.38829
450.9	-343.45424
451.392	-367.52609
451.884	-291.36526
452.375	-333.46476
452.867	-278.35126
453.358	-347.43714
453.849	-326.37945
454.341	-341.43679
454.832	-427.53241
455.323	-376.54729
455.814	-374.5145
456.304	-288.38918
456.795	-291.39233
457.285	-270.3598
457.776	-265.36958
458.266	-338.495
458.756	-267.39786
459.247	-396.59754
459.737	-382.57814
460.226	-340.47713
460.716	-318.48527
461.206	-308.47869
461.695	-294.48782
462.185	-294.45318
462.674	-304.46197
463.163	-305.44431
463.653	-251.33749
464.142	-367.60579
464.63	-287.48081
465.119	-301.46986
465.608	-307.48202
466.096	-261.38632
466.585	-223.35438
467.073	-299.50999
467.561	-278.47582
468.05	-258.425
468.538	-261.46248
469.026	-249.4279
469.513	-256.37973
470.001	-259.42083
470.489	-267.45834
470.976	-220.36784
471.463	-281.52624
471.951	-225.42219
472.438	-321.57088
472.925	-284.49787
473.412	-289.55086
473.899	-242.42311
474.385	-294.56407
474.872	-262.46872
475.359	-267.50744
475.845	-243.38417
476.331	-167.27822
476.817	-222.42675
477.303	-200.3626
477.789	-241.46227
478.275	-275.5489
478.761	-233.45146
479.247	-211.37855
479.732	-237.47525
480.218	-218.46211
480.703	-162.32373
481.188	-257.44946
481.673	-206.38301
482.158	-264.45453
482.643	-202.42764
483.128	-227.42447
483.612	-230.44682
484.097	-204.41844
484.581	-160.30816
485.066	-235.48018
485.55	-218.39786
486.034	-226.40933
486.518	-224.44139
487.002	-266.554
487.486	-234.48627
487.969	-253.52892
488.453	-240.52385
488.936	-216.41541
489.42	-143.26713
489.903	-165.35718
490.386	-665.06889
490.869	-185.34765
491.352	-164.34871
491.835	-165.29358
492.318	-170.32962
492.8	-216.38962
493.283	-209.46382
493.765	-226.48828
494.247	-197.40692
494.73	-161.30926
495.212	-180.3849
495.694	-214.43935
496.175	-248.51835
496.657	-190.39889
497.139	-149.22863
497.62	-239.50142
498.102	-260.57783
498.583	-215.48209
499.064	-214.42268
499.545	-213.43404
500.026	-231.46343
500.507	-214.44511
500.988	-196.43597
501.469	-216.48384
501.949	-215.47991
502.43	-256.54788
502.91	-201.37102
503.39	-156.34988
503.87	-211.44483
504.35	-180.38323
504.83	-254.50593
505.31	-195.42446
505.79	-204.43886
506.269	-172.36206
506.749	-220.45412
507.228	-201.42487
507.707	-132.26011
508.187	-168.36313
508.666	-211.46865
509.145	-235.49978
509.623	-200.42563
510.102	-186.40857
510.581	-137.2986
511.059	-171.3858
511.538	-164.38501
512.016	-172.37273
512.494	-118.25757
512.972	-171.37017
513.45	-246.51987
513.928	-188.41401
514.406	-260.57255
514.884	-195.45698
515.361	-152.32925
515.839	-179.37073
516.316	-125.27071
516.793	-120.27489
517.27	-126.27724
517.747	-116.26796
518.224	-140.29444
518.701	-92.18393
519.178	-137.30619
519.654	-87.18688
520.131	-122.27306
520.607	-73.16309
521.083	-116.23955
521.56	-136.29207
522.036	-144.28896
522.512	-69.15364
522.987	-138.29662
523.463	-91.19505
523.939	-107.23855
524.414	-77.16084
524.89	-97.20854
525.365	-109.22394
525.84	-171.3708
526.315	-141.31005
526.79	-112.22984
527.265	-118.24522
527.74	-124.27548
528.215	-136.29346
528.689	-138.27961
529.164	-163.32747
529.638	-120.28249
530.112	-177.38446
530.587	-149.29105
531.061	-140.30869
531.534	-119.26464
532.008	-148.32661
532.482	-158.33581
532.956	-180.42307
533.429	-145.3238
533.903	-103.20884
534.376	-165.33807
534.849	-132.28177
535.322	-150.32714
535.795	-161.36458
536.268	-175.39015
536.741	-130.28797
537.213	-155.33237
537.686	-160.35973
538.158	-161.33271
538.631	-105.23487
539.103	-160.33131
539.575	-98.18775
540.047	-111.22434
540.519	-122.26923
540.991	-72.16115
541.463	-126.28143
541.934	-112.23555
542.406	-124.27158
542.877	-73.15011
543.348	-60.13208
543.82	-48.10712
544.291	-45.09558
544.762	-119.25881
545.233	-102.23365
545.703	-104.21014
546.174	-27.05655
546.645	-115.2498
547.115	-34.07362
547.585	-22.04541
548.056	-78.1691
548.526	-19.03967
548.996	2.00428
549.466	67.14405
549.935	1.00208
550.405	27.05171
550.875	15.03121
551.344	55.11529
551.814	77.15348
552.283	83.15651
552.752	138.27218
553.221	132.24188
553.69	202.37408
554.159	129.26885
554.628	202.37389
555.096	212.44979
555.565	212.39358
556.033	313.60792
556.502	329.6576
556.97	370.6671
557.438	361.70517
557.906	451.86928
558.374	437.81479
558.842	482.9306
559.31	568.00021
559.777	510.98986
560.245	659.20664
560.712	619.12584
561.18	681.14816
561.647	717.21821
562.114	795.3511
562.581	914.66668
563.048	905.52951
563.514	916.6535
563.981	989.62057
564.448	1105.70637
564.914	1158.85515
565.381	1248.89548
565.847	1295.01358
566.313	1384.08048
566.779	1447.04285
567.245	1459.15854
567.711	1592.33714
568.176	1721.20235
568.642	1723.59104
569.108	1826.59084
569.573	1941.51282
570.038	2000.11563
570.504	2099.35031
570.969	2280.90256
571.434	2277.29765
571.899	2406.68071
572.363	2451.49105
572.828	2556.53629
573.293	2594.5311
573.757	2774.52927
574.222	2750.37165
574.686	2791.38195
575.15	2912.66954
575.614	2974.48235
576.078	2986.59249
576.542	3096.43077
577.006	3074.37598
577.469	3164.89899
577.933	3122.31034
578.396	3147.65505
578.86	3235.58269
579.323	3251.61973
579.786	3265.11404
580.249	3255.37467
580.712	3182.81217
581.175	3213.84491
581.637	3237.49034
582.1	3190.25792
582.563	3193.15716
583.025	3098.77042
583.487	3175.84568
583.95	3098.14109
584.412	3297.00462
584.874	3241.75961
585.336	3256.62082
585.797	3285.13731
586.259	3325.60608
586.721	3302.55388
587.182	3403.55415
587.643	3551.31171
588.105	3490.56183
588.566	3558.92315
589.027	3680.56335
589.488	3716.26342
589.949	3903.53988
590.41	3929.33162
590.87	4164.06808
591.331	4289.68551
591.791	4382.97157
592.252	4581.78957
592.712	4707.06166
593.172	5043.46889
593.632	5341.20134
594.092	5588.16524
594.552	5746.92752
595.011	5979.15556
595.471	6322.98475
595.931	6616.95769
596.39	6946.30624
596.849	7464.39497
597.308	7876.55338
597.768	8259.34466
598.227	8715.86478
598.685	9318.0845
599.144	9925.75738
599.603	10387.28854
600.062	11161.28745
600.52	11861.67051
600.978	12450.71369
601.437	13306.16457
601.895	14097.88744
602.353	15006.78288
602.811	15885.097
603.269	16706.91961
603.727	17712.22301
604.184	18819.36796
604.642	19782.38094
605.099	20771.92547
605.557	22029.72848
606.014	23104.85885
606.471	24388.28226
606.928	25575.734
607.385	26768.44531
607.842	27979.83363
608.299	29396.72999
608.755	30419.09543
609.212	31765.81902
609.668	32822.54653
610.125	34408.65768
610.581	35401.82037
611.037	36549.45906
611.493	37812.1457
611.949	38663.00032
612.405	39699.59853
612.861	40855.74526
613.316	41286.82091
613.772	42550.65233
614.227	42907.09767
614.683	43583.80099
615.138	44354.45727
615.593	44610.83356
616.048	45027.47783
616.503	45114.80581
616.958	45442.75874
617.412	45114.83518
617.867	44965.60696
618.321	45069.31458
618.776	44609.72159
619.23	44295.38699
619.684	43678.59511
620.138	43444.1611
620.592	42827.26035
621.046	42448.72206
621.5	41809.3844
621.954	41277.27684
622.407	39891.35245
622.861	39513.71677
623.314	38824.68659
623.768	38485.54367
624.221	37473.3749
624.674	36509.69632
625.127	36205.05223
625.58	35740.6101
626.033	34828.67795
626.485	33724.49142
626.938	33460.23634
627.39	32697.85744
627.843	31936.91909
628.295	30990.73066
628.747	30403.19244
629.199	29923.94631
629.651	29184.83534
630.103	28163.75871
630.555	27701.81705
631.006	26982.43331
631.458	26436.17773
631.909	25774.85873
632.361	25145.90558
632.812	24660.42764
633.263	23984.60945
633.714	23248.16383
634.165	22662.18476
634.616	21824.56684
635.067	21430.68041
635.518	21005.52164
635.968	20414.60568
636.419	20052.40813
636.869	19363.36474
637.319	18783.28023
637.769	18287.52969
638.219	17903.81744
638.669	17614.28991
639.119	17172.26575
639.569	16724.27158
640.019	16359.96576
640.468	16030.00064
640.918	15831.30631
641.367	15217.3291
641.816	15046.66989
642.265	14869.37137
642.714	14558.45608
643.163	14455.61129
643.612	13957.72267
644.061	13649.89357
644.51	13576.31682
644.958	13400.38992
645.406	13065.90806
645.855	13027.33969
646.303	12631.17609
646.751	12515.72665
647.199	12432.17885
647.647	12271.08348
648.095	12130.27504
648.543	11895.77892
648.99	11967.01323
649.438	11751.94894
649.885	11605.87848
650.333	11451.68585
650.78	11250.35762
651.227	11013.30017
651.674	10897.09926
652.121	10758.2817
652.568	10716.1306
653.015	10539.3778
653.461	10505.42397
653.908	10228.52926
654.354	10175.30902
654.801	9748.1031
655.247	9776.24965
655.693	9580.72438
656.139	9427.31973
656.585	9342.13615
657.031	9039.50486
657.477	8987.34788
657.922	8793.06001
658.368	8706.08919
658.813	8592.78686
659.259	8450.67764
659.704	8244.35612
660.149	8140.25304
660.594	7963.16965
661.039	7834.91638
661.484	7720.04829
661.929	7604.88653
662.373	7318.18272
662.818	7323.09053
663.262	7283.90893
663.707	6994.20454
664.151	7010.97355
664.595	6885.88711
665.039	6819.10691
665.483	6624.29586
665.927	6683.77313
666.371	6571.65699
666.814	6520.88984
667.258	6357.84265
667.701	6394.33596
668.145	6260.25957
668.588	6142.19355
669.031	6078.8997
669.474	5938.14096
669.917	5867.63041
670.36	5856.40038
670.803	5815.22767
671.245	5667.42294
671.688	5615.40838
672.13	5510.85423
672.573	5548.77071
673.015	5486.3562
673.457	5390.7457
673.899	5333.51372
674.341	5277.51152
674.783	5233.4789
675.225	5178.70984
675.666	5096.56789
676.108	5135.87697
676.549	5000.54434
676.991	4967.06589
677.432	4874.51376
677.873	4851.46013
678.314	4753.74113
678.755	4704.90723
679.196	4603.52416
679.637	4641.99049
680.078	4551.72253
680.518	4425.7672
680.959	4227.05041
681.399	4246.29913
681.839	4190.18861
682.28	4046.34666
682.72	3958.85772
683.16	3905.47506
683.6	3877.88745
684.039	3780.37636
684.479	3739.42616
684.919	3626.02479
685.358	3652.71098
685.798	3465.98433
686.237	3497.40759
686.676	3401.16647
687.115	3286.25736
687.554	3162.33778
687.993	3231.91046
688.432	3155.10805
688.871	3073.07144
689.309	2977.38061
689.748	2932.6671
690.186	2925.3913
690.625	2796.26251
691.063	2731.38543
691.501	2625.54072
691.939	2649.59252
692.377	2634.46254
692.815	2479.30662
693.253	2461.3408
693.69	2476.89097
694.128	2367.33154
694.565	2334.24634
695.003	2310.55665
695.44	2272.14382
695.877	2128.04129
696.314	2148.70863
696.751	2180.97566
697.188	2091.95209
697.625	2149.99288
698.061	2010.09394
698.498	1996.13047
698.934	1934.06109
699.371	1900.93459
699.807	1904.96286
700.243	1828.97208
700.679	1838.74449
701.115	1814.88252
701.551	1745.82247
701.987	1812.70187
702.422	1700.80933
702.858	1641.76798
703.294	1643.59402
703.729	1592.81951
704.164	1565.72956
704.599	1540.4444
705.035	1443.36267
705.47	1418.59775
705.904	1405.44652
706.339	1492.54403
706.774	1393.45086
707.209	1339.34078
707.643	1380.51529
708.078	1304.46211
708.512	1219.42244
708.946	1274.37966
709.38	1286.35981
709.814	1215.17299
710.248	1227.36413
710.682	1243.31306
711.116	1112.13849
711.549	1138.39643
711.983	1070.00644
712.416	1131.15072
712.85	1138.29934
713.283	1110.12138
713.716	1095.25708
714.149	1087.10976
714.582	1051.91661
715.015	1055.18518
715.448	1013.1325
715.881	972.7575
716.313	946.85836
716.746	905.80315
717.178	936.89733
717.61	932.01013
718.043	941.98761
718.475	896.85085
718.907	958.05309
719.339	842.62974
719.77	854.73332
720.202	842.84539
720.634	801.69396
721.065	835.70434
721.497	794.69779
721.928	745.61112
722.359	718.5292
722.79	724.52932
723.221	805.76982
723.652	807.82456
724.083	765.4999
724.514	710.44009
724.945	692.44378
725.375	672.3865
725.806	708.57434
726.236	730.66212
726.666	694.45948
727.096	713.55302
727.526	698.58219
727.956	664.34299
728.386	661.46094
728.816	607.39495
729.246	590.30251
729.675	598.33613
730.105	615.37161
730.534	577.22832
730.964	609.40011
731.393	650.45542
731.822	621.43909
732.251	611.40863
732.68	612.30434
733.109	514.1704
733.537	558.23229
733.966	564.28182
734.395	550.16086
734.823	593.21096
735.251	540.19397
735.68	585.33792
736.108	530.23744
736.536	543.17436
736.964	523.1156
737.392	551.26613
737.82	501.11291
738.247	516.14035
738.675	512.13056
739.102	480.11528
739.53	454.08128
739.957	424.02666
740.384	508.1609
740.811	478.12939
741.238	446.01859
741.665	440.95544
742.092	465.03537
742.519	394.9234
742.945	460.02993
743.372	470.08426
743.798	397.96792
744.225	444.98912
744.651	425.00299
745.077	425.99855
745.503	427.98093
745.929	383.87213
746.355	477.1059
746.781	393.92339
747.207	343.76843
747.632	346.80554
748.058	382.90577
748.483	383.83611
748.908	346.82233
749.334	341.80187
749.759	313.70989
750.184	367.83132
750.609	384.8961
751.033	354.79943
751.458	411.86872
751.883	372.87764
752.307	309.69996
752.732	300.72206
753.156	303.7214
753.58	371.83833
754.005	348.84517
754.429	305.69034
754.853	296.70758
755.277	278.6373
755.7	307.73373
756.124	260.62676
756.548	256.58993
756.971	299.7045
757.394	299.74342
757.818	262.65488
758.241	265.65266
758.664	259.63554
759.087	219.47852
759.51	293.70429
759.933	194.45917
760.356	285.70682
760.778	234.56174
761.201	267.63058
761.623	300.70232
762.046	277.63717
762.468	258.60306
762.89	229.55277
763.312	265.62828
763.734	245.57459
764.156	228.55025
764.578	213.48095
765	248.58923
765.421	128.32309
765.843	208.53472
766.264	206.48889
766.686	221.54331
767.107	216.51262
767.528	223.54985
767.949	195.48735
768.37	195.47053
768.791	189.45036
769.212	150.37292
769.632	162.37333
770.053	175.4542
770.473	170.40843
770.894	166.4109
771.314	201.47196
771.734	132.30626
772.154	198.49922
772.575	197.449
772.994	163.36625
773.414	170.40346
773.834	160.39546
774.254	162.39201
774.673	186.44601
775.093	144.35318
775.512	158.38478
775.931	128.32251
776.351	150.36871
776.77	109.2658
777.189	106.25196
777.607	105.26745
778.026	120.29747
778.445	66.16582
778.864	156.39559
779.282	134.32023
779.701	112.28129
780.119	68.17244
780.537	84.20983
780.955	117.29633
781.373	105.2591
781.791	100.22474
782.209	114.26219
782.627	96.25229
783.045	112.25697
783.462	124.31467
783.88	101.26043
784.297	103.25836
784.715	79.20293
785.132	109.26302
785.549	103.25687
785.966	120.29997
786.383	109.26709
786.8	107.24801
787.217	88.20877
787.633	82.20469
788.05	164.38456
788.466	163.37945
788.883	87.2216
789.299	85.20488
789.715	87.21152
790.131	64.15976
790.547	111.27592
790.963	113.27905
791.379	92.23214
791.795	148.33412
792.21	155.35784
792.626	76.18079
793.041	77.19029
793.457	101.24886
793.872	80.1884
794.287	25.06033
794.702	101.24813
795.117	97.24024
795.532	100.24962
795.947	110.26368
796.362	98.23366
796.776	135.31365
797.191	92.22481
797.605	50.11812
798.02	80.19476
798.434	77.17202
798.848	77.18973
799.262	27.0676
799.676	154.37083
800.09	102.24998
800.504	87.21097
800.918	48.11203
801.331	101.26368
801.745	96.22009
802.158	52.1306
802.572	113.27257
802.985	105.2528
803.398	81.19324
803.811	103.26365
804.224	86.21381
804.637	43.10317
805.05	112.25821
805.462	110.26879
805.875	53.1378
806.288	39.09475
806.7	86.21576
807.112	127.29191
807.525	72.1779
807.937	38.09458
808.349	102.25433
808.761	62.15297
809.173	75.18187
809.584	113.27751
809.996	24.05932
810.408	43.11149
810.819	55.12995
811.231	10.0261
811.642	56.13398
812.053	68.16195
812.464	128.30132
812.875	150.37807
813.286	103.26365
813.697	112.26037
814.108	108.26233
814.519	90.20028
814.929	101.25635
815.34	63.15317
815.75	42.10726
816.16	83.20654
816.571	60.15613
816.981	96.2259
817.391	42.10206
817.801	91.22521
818.211	80.1906
818.62	35.08487
819.03	97.23672
819.44	94.24452
819.849	83.20872
820.259	85.21704
820.668	48.11856
821.077	68.16894
821.486	67.16161
821.895	95.23382
822.304	93.24536
822.713	82.19356
823.122	79.19688
823.531	56.13321
823.939	44.10776
824.348	86.20858
824.756	105.26138
825.164	98.24542
825.573	66.1657
825.981	67.1663
826.389	110.27438
826.797	43.10821
827.205	60.13805
827.612	79.19466
828.02	45.1062
828.428	63.16058
828.835	24.06361
829.243	98.23241
829.65	47.1173
830.057	69.16751
830.464	38.09313
830.871	113.26844
831.278	36.08758
831.685	54.12101
832.092	61.14959
832.499	88.19192
832.905	70.17713
833.312	82.18671
833.718	96.23798
834.124	97.22055
834.531	81.20369
834.937	63.16177
835.343	67.16174
835.749	102.23684
836.155	41.10777
836.561	65.15993
836.966	61.14936
837.372	79.20058
837.777	72.17914
838.183	93.20588
838.588	35.08738
838.993	61.1487
839.399	31.07627
839.804	20.04914
840.209	41.10476
840.613	95.21022
841.018	99.24913
841.423	72.1844
841.828	43.10914
842.232	106.26065
842.637	61.14408
843.041	38.0978
843.445	55.13816
843.849	73.1804
844.253	62.14749
844.657	43.10864
845.061	72.16321
845.465	88.21159
845.869	49.11425
846.272	36.0881
846.676	88.21191
847.079	32.08178
847.483	108.26724
847.886	134.32182
848.289	48.12832
848.692	63.15951
849.095	92.21978
849.498	105.26414
849.901	61.14004
850.304	58.13877
850.707	88.22332
851.109	88.22165
851.512	69.16933
851.914	46.1162
852.316	53.13424
852.718	22.05715
853.121	46.11303
853.523	80.18635
853.925	31.08124
854.326	35.08789
854.728	81.20748
855.13	32.0829
855.531	53.12683
855.933	64.15359
856.334	34.08515
856.736	32.07212
857.137	76.17619
857.538	37.09338
857.939	55.13597
858.34	97.23477
858.741	78.20318
859.142	46.11081
859.542	32.08478
859.943	32.07991
860.343	28.06972
860.744	82.19925
861.144	59.14393
861.544	43.10364
861.945	64.16293
862.345	58.14189
862.745	24.06002
863.145	103.24422
863.544	65.16404
863.944	81.19057
864.344	101.24896
864.743	74.18311
865.143	53.13624
865.542	57.13228
865.941	14.03493
866.34	65.15554
866.74	59.15827
867.139	8.01934
867.537	78.19801
867.936	57.13723
868.335	76.19273
868.734	59.15071
869.132	61.14167
869.531	106.25409
869.929	44.10059
870.327	57.13666
870.726	103.25473
871.124	52.1217
871.522	30.07678
871.92	68.1674
872.318	78.18996
872.715	65.16069
873.113	47.11474
873.511	92.22773
873.908	-9.02298
874.306	67.1663
874.703	75.18704
875.1	100.25386
875.497	54.12954
875.894	27.0665
876.291	47.11555
876.688	46.11884
877.085	33.07954
877.482	66.16493
877.878	57.13718
878.275	41.10443
878.671	72.15989
879.068	31.0752
879.464	80.1925
879.86	39.09254
880.256	98.24
880.652	37.09441
881.048	76.18764
881.444	66.15682
881.84	49.12468
882.236	73.18298
882.631	52.12773
883.027	95.22837
883.422	73.18607
883.817	-11.02797
884.213	80.20438
884.608	-12.02979
885.003	62.1493
885.398	16.04033
885.793	63.15791
886.188	-12.03019
886.582	147.37098
886.977	98.2307
887.371	87.21878
887.766	46.11458
888.16	72.17914
888.554	97.23804
888.949	91.22703
889.343	77.18735
889.737	31.08291
890.131	43.10809
890.525	82.20868
890.918	56.1409
891.312	107.2535
891.706	61.15985
892.099	96.24249
892.492	73.15694
892.886	10.02467
893.279	81.20537
893.672	44.11221
894.065	86.21413
894.458	48.12086
894.851	88.21431
895.244	51.13032
895.637	58.13961
896.029	78.18989
896.422	36.08826
896.814	53.13179
897.206	99.23374
897.599	61.15069
897.991	97.23265
898.383	49.11591
898.775	55.12414
899.167	-5.0118
899.559	95.23872
899.951	102.23825
900.342	92.23239
900.734	-12.03013
901.125	58.15207
901.517	43.10576
901.908	121.28645
902.299	35.08586
902.69	62.14607
903.082	84.20228
903.473	67.16002
903.863	68.17305
904.254	58.13452
904.645	80.19803
905.036	27.06569
905.426	110.24904
905.817	84.20495
906.207	38.09081
906.597	60.14015
906.987	92.23685
907.378	63.15905
907.768	68.17931
908.158	54.13166
908.547	45.1164
908.937	77.19675
909.327	71.17185
909.717	109.274
910.106	54.12969
910.495	97.24024
910.885	68.17177
911.274	98.24294
911.663	64.16212
912.052	88.21575
912.441	92.23231
912.83	59.13529
913.219	70.18266
913.608	66.16128
913.997	26.06549
914.385	51.1219
914.774	37.09036
915.162	78.18498
915.55	45.10904
915.939	58.14625
916.327	87.21579
916.715	-5.01287
917.103	129.31304
917.491	121.29561
917.878	50.123
918.266	36.09362
918.654	62.15812
919.041	47.12279
919.429	41.09699
919.816	73.18436
920.203	37.08999
920.591	83.20466
920.978	76.1853
921.365	55.14423
921.752	44.10507
922.139	75.16208
922.525	67.16045
922.912	50.122
923.299	43.10704
923.685	40.10455
924.072	72.1654
924.458	51.12636
924.844	36.08934
925.231	56.13024
925.617	30.07659
926.003	46.11769
926.389	70.176
926.774	82.20669
927.16	80.19767
927.546	24.06155
927.931	135.33178
928.317	70.16067
928.702	82.19289
929.088	24.05707
929.473	29.07408
929.858	20.04864
930.243	20.04829
930.628	14.0343
931.013	10.02497
931.398	119.27002
931.783	44.11599
932.167	71.17294
932.552	38.09544
932.937	118.2893
933.321	20.05047
933.705	76.19074
934.09	101.25298
934.474	52.12351
934.858	42.10911
935.242	39.09061
935.626	59.15081
936.009	36.09598
936.393	35.08931
936.777	45.11535
937.16	39.10168
937.544	55.1295
937.927	6.01534
938.311	73.17748
938.694	76.20014
939.077	0
939.46	110.26719
939.843	84.17402
940.226	52.13336
940.609	42.0966
940.991	52.13233
941.374	13.032
941.757	41.10136
942.139	44.09897
942.522	103.24101
942.904	65.15584
943.286	82.2072
943.668	57.14749
944.05	41.10117
944.432	55.13562
944.814	76.18633
945.196	54.13151
945.578	0
945.959	116.26839
946.341	92.22414
946.722	74.17291
947.104	67.15966
947.485	42.09791
947.866	27.06831
948.247	65.16357
948.628	72.17495
949.009	80.20381
949.39	76.18833
949.771	96.22132
950.152	70.17118
950.532	13.0322
950.913	36.08708
951.293	22.0597
951.674	62.14964
952.054	44.10916
952.434	66.16337
952.814	69.1636
953.194	109.28242
953.574	109.2656
953.954	70.16562
954.334	56.13943
954.714	32.07825
955.093	108.26272
955.473	63.15717
955.853	92.23644
956.232	61.1669
956.611	76.18142
956.99	42.10571
957.37	89.22525
957.749	123.28938
958.128	42.10598
958.506	62.16051
958.885	53.13371
959.264	23.05665
959.643	50.1138
960.021	62.1533
960.4	35.07958
960.778	80.19599
961.156	6.01516
961.535	68.15796
961.913	48.11238
962.291	34.08747
962.669	38.09647
963.047	72.18304
963.424	52.13266
963.802	50.12295
964.18	143.35585
964.557	94.21464
964.935	82.19311
965.312	44.1147
965.69	87.21642
966.067	71.17223
966.444	76.1864
966.821	65.16714
967.198	97.23327
967.575	74.18116
967.952	84.19667
968.329	53.12891
968.705	99.21009
969.082	72.18394
969.458	-23.05594
969.835	75.18173
970.211	94.23939
970.587	102.25156
970.963	50.12828
971.339	39.10203
971.715	103.25473
972.091	73.17901
972.467	68.16906
972.843	17.04244
973.219	125.29592
973.594	17.04472
973.97	104.24502
974.345	32.07685
974.721	61.14742
975.096	69.16638
975.471	80.18869
975.846	76.18169
976.221	33.08406
976.596	46.11035
976.971	69.16977
977.346	83.192
977.72	88.22268
978.095	65.16755
978.469	42.10041
978.844	130.32214
979.218	37.08891
979.593	116.27445
979.967	89.21525
980.341	90.20559
980.715	69.17327
981.089	77.19182
981.463	35.08061
981.837	55.13427
982.21	91.21009
982.584	75.1803
982.957	48.1199
983.331	66.15555
983.704	37.09114
984.078	60.1476
984.451	101.24996
984.824	15.03677
985.197	102.24534
985.57	58.14525
985.943	128.31161
986.316	82.2003
986.688	65.15632
987.061	54.12648
987.434	56.14578
987.806	43.10443
988.179	61.14363
988.551	95.23907
988.923	73.17901
989.295	87.21595
989.667	38.09099
990.039	37.09164
990.411	39.08997
990.783	59.13562
991.155	-1.00243
991.527	100.24399
991.898	50.12458
992.27	46.11387
992.641	102.2535
993.012	80.18715
993.384	45.10744
993.755	60.15269
994.126	42.10118
994.497	56.1373
994.868	84.19165
995.239	38.0923
995.61	36.09081
995.98	27.06587
996.351	38.0943
996.722	-14.03288
997.092	58.13712
997.462	26.06102
997.833	64.15131
998.203	88.21183
998.573	44.10967
998.943	50.11725
999.313	41.09841
999.683	47.11286
1000.053	32.07389
1000.423	12.02937
1000.792	43.11157
1001.162	6.01488
1001.531	65.15981
1001.901	42.10484
1002.27	79.17554
1002.639	46.1176
1003.009	44.10475
1003.378	62.15817
1003.747	50.11812
1004.116	36.08636
1004.485	19.04568
1004.853	49.12415
1005.222	24.0608
1005.591	54.12811
1005.959	7.01591
1006.328	-8.01822
1006.696	22.05334
1007.064	59.14815
1007.433	105.25977
1007.801	78.19046
1008.169	99.24779
1008.537	115.25118
1008.905	51.11877
1009.273	94.23029
1009.64	46.1098
1010.008	74.17556
1010.375	119.2852
1010.743	112.25543
1011.11	57.13468
1011.478	75.18473
1011.845	36.08488
1012.212	57.12881
1012.579	45.11055
1012.946	86.20324
1013.313	90.21253
1013.68	57.12792
1014.047	10.02401
1014.414	38.08994
1014.78	71.17572
1015.147	90.21598
1015.513	46.1109
1015.88	89.22597
1016.246	105.25653
1016.612	79.17977
1016.978	41.10062
1017.344	89.21833
1017.71	111.26754
1018.076	92.21514
1018.442	62.15912
1018.808	50.12495
1019.174	51.12788
1019.539	166.37322
1019.905	48.11322
1020.27	37.0915
1020.636	46.11035
1021.001	86.20442
1021.366	39.09383
1021.731	23.05941
1022.096	15.03806
1022.461	81.1905
1022.826	80.18899
1023.191	67.17522
1023.556	85.1978
1023.92	83.20278
1024.285	29.07104
1024.649	47.11521
1025.014	100.24536
1025.378	15.03794
1025.742	55.13642
1026.107	19.04324
1026.471	87.20157
1026.835	37.09191
1027.199	38.09165
1027.562	51.11849
1027.926	109.26352
1028.29	46.11644
1028.654	64.14678
1029.017	88.21471
1029.381	69.16417
1029.744	78.19787
1030.107	60.14163
1030.471	41.0983
1030.834	48.1092
1031.197	111.2642
1031.56	64.15055
1031.923	65.16755
1032.286	48.11273
1032.648	69.16436
1033.011	16.03696
1033.374	111.25769
1033.736	0
1034.099	40.09763
1034.461	34.0861
1034.823	36.08983
1035.185	53.13328
1035.548	52.12645
1035.91	52.12446
1036.272	34.0776
1036.634	64.1561
1036.995	49.11515
1037.357	59.14323
1037.719	62.15037
1038.08	42.09983
1038.442	49.11627
1038.803	60.14372
1039.165	64.16103
1039.526	74.17793
1039.887	61.14558
1040.248	25.06185
1040.609	86.21101
1040.97	45.11002
1041.331	62.15655
1041.692	-19.04493
1042.053	90.20318
1042.413	65.15096
1042.774	74.17907
1043.134	86.20324
1043.495	57.14303
1043.855	64.15476
1044.215	84.20709
1044.576	60.14311
1044.936	88.20013
1045.296	42.10492
1045.656	70.17105
1046.016	55.13257
1046.375	37.08992
1046.735	16.0365
1047.095	67.15622
1047.454	51.10799
1047.814	57.13676
1048.173	97.22955
1048.533	67.15289
1048.892	-5.01212
1049.251	90.22417
1049.61	60.14738
1049.969	55.12945
1050.328	39.08471
1050.687	65.15762
1051.046	80.19359
1051.405	59.14645
1051.763	38.08754
1052.122	74.18365
1052.48	38.09334
1052.839	17.04023
1053.197	17.04025
1053.555	92.20787
1053.914	76.18488
1054.272	79.18984
1054.63	8.0197
1054.988	29.06913
1055.345	72.15423
1055.703	27.06523
1056.061	29.07483
1056.419	45.11652
1056.776	90.21648
1057.134	26.06044
1057.491	45.11272
1057.848	85.21013
1058.206	40.0942
1058.563	41.0905
1058.92	118.26813
1059.277	59.14522
1059.634	90.20997
1059.991	74.17637
1060.348	22.04997
1060.704	32.07647
1061.061	108.2479
1061.418	45.10916
1061.774	64.15749
1062.131	46.12163
1062.487	61.14223
1062.843	61.15169
1063.199	84.20747
1063.555	44.10201
1063.911	78.1959
1064.267	71.14732
1064.623	30.07309
1064.979	84.19759
1065.335	90.21335
1065.691	86.20458
1066.046	44.09682
1066.402	53.12026
1066.757	48.12112
1067.112	74.18069
1067.468	27.06399
1067.823	57.13676
1068.178	38.09206
1068.533	60.14509
1068.888	46.10993
1069.243	59.14527
1069.598	64.15499
1069.952	20.04528
1070.307	25.06212
1070.662	85.20029
1071.016	33.07415
1071.371	70.15848
1071.725	75.17845
1072.079	37.08915
1072.434	15.03666
1072.788	58.13781
1073.142	121.29352
1073.496	89.20939
1073.85	55.12733
1074.203	56.13562
1074.557	83.21935
1074.911	107.25243
1075.265	58.13452
1075.618	108.26066
1075.971	65.15406
1076.325	64.16212
1076.678	60.13684
1077.031	47.10634
1077.385	87.19002
1077.738	42.0949
1078.091	20.04572
1078.444	67.15493
1078.796	14.03455
1079.149	59.14639
1079.502	51.12036
1079.855	48.1119
1080.207	68.16684
1080.56	33.08548
1080.912	87.21017
1081.264	80.1914
1081.617	25.06117
1081.969	12.03045
1082.321	49.11958
1082.673	10.02299
1083.025	70.1653
1083.377	66.14107
1083.728	63.14649
1084.08	40.09996
1084.432	59.14194
1084.783	110.25451
1085.135	25.06289
1085.486	1.00231
1085.838	67.16436
1086.189	32.07787
1086.54	72.17108
1086.891	31.0786
1087.242	39.09507
1087.593	76.18398
1087.944	64.14431
1088.295	100.22484
1088.646	47.11389
1088.996	1.00243
1089.347	47.1153
1089.698	8.01905
1090.048	82.21162
1090.398	36.08366
1090.749	48.1148
1091.099	28.07063
1091.449	40.09974
1091.799	50.12508
1092.149	-17.04193
1092.499	22.0539
1092.849	52.13201
1093.199	61.15246
1093.548	13.03143
1093.898	35.08773
1094.248	78.19927
1094.597	2.00514
1094.947	10.02683
1095.296	29.07183
1095.645	69.17872
1095.994	69.16499
1096.343	40.10075
1096.692	12.0317
1097.041	39.10568
1097.39	49.12282
1097.739	49.12727
1098.088	53.1418
1098.437	61.1598
1098.785	59.15869
1099.134	49.13002
1099.482	78.21338
1099.83	58.15207
1100.179	26.06803
1100.527	80.21131
1100.875	35.09268
1101.223	55.14579
1101.571	47.12983
1101.919	6.01578
1102.267	12.03395
1102.615	1.00322
1102.962	13.04184
1103.31	-3.00965
1103.658	18.05793
