Data from N2 R1 sample 8_Subt2__4__13-33-47-455.txt Node

Date: Wed Aug 27 13:33:47 PDT 2025
User: uwsun
Spectrometer: HDX01956
Trigger mode: 0
Integration Time (sec): 5.000000E-1
Scans to average: 1
Nonlinearity correction enabled: true
Boxcar width: 0
Storing dark spectrum: false
XAxis mode: Wavelengths
Number of Pixels in Spectrum: 2068
>>>>>Begin Spectral Data<<<<<
194.03	-18.05266
194.578	8.02608
195.127	-8.02579
195.676	0
196.225	-15.04133
196.773	-16.04576
197.321	-10.02856
197.87	24.06414
198.418	41.11038
198.966	40.10873
199.513	-3.00795
200.061	40.10679
200.609	1.00274
201.156	10.02349
201.704	48.12747
202.251	34.09331
202.798	50.13639
203.345	35.09066
203.892	-2.00528
204.438	37.09308
204.985	16.04023
205.532	17.04657
206.078	46.11876
206.624	39.10133
207.17	67.16345
207.716	72.18498
208.262	-12.02562
208.808	29.07556
209.354	52.1336
209.899	1.00264
210.445	44.11442
210.99	22.05599
211.535	34.08432
212.08	56.13791
212.625	35.09128
213.17	-1.00263
213.715	48.11427
214.259	45.1097
214.804	38.09827
215.348	5.01215
215.892	2.00505
216.436	-1.00244
216.98	-9.02129
217.524	1.00249
218.068	10.02605
218.612	11.02906
219.155	30.07415
219.698	1.00249
220.242	15.03866
220.785	6.01476
221.328	58.15
221.871	-3.00781
222.414	45.11664
222.956	14.03545
223.499	14.03338
224.041	66.16194
224.583	-7.01593
225.126	14.03297
225.668	30.0767
226.21	-1.00262
226.751	38.08865
227.293	5.01204
227.835	12.03054
228.376	42.1021
228.918	32.08361
229.459	45.1172
230	-3.00744
230.541	59.14307
231.082	17.04338
231.622	72.17548
232.163	1.00256
232.704	43.11142
233.244	-6.01538
233.784	28.07083
234.324	14.03275
234.864	13.03112
235.404	30.07385
235.944	-6.01488
236.484	45.11511
237.023	-12.03006
237.563	38.09227
238.102	-10.02447
238.641	28.07306
239.18	-31.07726
239.719	41.107
240.258	13.03078
240.797	47.11823
241.335	25.06354
241.874	43.08914
242.412	31.07754
242.95	4.01015
243.488	26.06308
244.026	20.04836
244.564	2.00437
245.102	39.09333
245.64	51.12793
246.177	6.01416
246.715	17.04234
247.252	12.02882
247.789	3.00595
248.326	33.08376
248.863	2.00467
249.4	-17.0404
249.936	56.12363
250.473	36.08807
251.009	13.03169
251.546	34.08023
252.082	13.02985
252.618	52.12284
253.154	35.08773
253.69	35.0834
254.226	-16.03958
254.761	35.08299
255.297	32.07492
255.832	5.01233
256.367	29.07211
256.903	46.10681
257.438	34.08252
257.972	28.06661
258.507	27.06601
259.042	3.00683
259.576	36.08253
260.111	18.04359
260.645	34.07704
261.179	-8.01959
261.713	50.11716
262.247	-2.00487
262.781	-6.01336
263.315	30.07605
263.849	44.11422
264.382	37.08844
264.915	79.19466
265.449	26.0668
265.982	33.07861
266.515	18.04582
267.048	2.00446
267.58	-3.00689
268.113	24.05524
268.646	78.19927
269.178	28.06699
269.71	-49.11281
270.243	10.024
270.775	-4.01063
271.307	9.02249
271.838	1.00247
272.37	3.00768
272.902	28.06702
273.433	8.01858
273.965	25.06327
274.496	34.08692
275.027	34.08799
275.558	74.18585
276.089	48.12383
276.62	23.06035
277.15	46.11752
277.681	49.11204
278.211	57.14473
278.741	34.07963
279.272	27.06501
279.802	56.14498
280.332	42.10423
280.861	35.08783
281.391	32.0765
281.921	8.01991
282.45	67.1733
282.98	71.18952
283.509	44.10439
284.038	50.11908
284.567	60.14405
285.096	40.10014
285.625	-23.05487
286.153	28.06888
286.682	61.14736
287.21	30.07518
287.739	32.0791
288.267	26.06582
288.795	64.17244
289.323	13.03196
289.851	50.1209
290.378	68.16151
290.906	34.08692
291.433	47.1209
291.961	74.17671
292.488	27.06899
293.015	43.10556
293.542	65.17033
294.069	59.15124
294.596	74.18772
295.122	66.16331
295.649	32.0738
296.175	78.19625
296.702	39.09793
297.228	56.14024
297.754	27.06377
298.28	44.10531
298.806	44.1088
299.332	33.07797
299.857	59.13897
300.383	48.12409
300.908	76.19341
301.433	68.17017
301.958	101.24418
302.483	114.29329
303.008	56.1405
303.533	83.22155
304.058	28.06817
304.582	71.17623
305.107	54.14493
305.631	36.08557
306.155	68.16585
306.679	88.21423
307.203	41.09953
307.727	112.27592
308.251	50.12598
308.775	61.15047
309.298	68.17023
309.822	27.07025
310.345	77.18763
310.868	35.08675
311.391	42.10571
311.914	90.23307
312.437	22.05201
312.96	77.18735
313.482	80.19578
314.005	78.20263
314.527	68.18166
315.049	84.21603
315.571	76.17675
316.093	79.19987
316.615	79.19494
317.137	37.08433
317.659	48.11856
318.18	59.1457
318.702	79.19207
319.223	45.09779
319.744	66.15489
320.265	64.15976
320.786	94.23896
321.307	111.28213
321.828	92.2132
322.348	72.17299
322.869	113.27535
323.389	272.47206
323.909	111.26247
324.43	53.12982
324.95	82.19424
325.47	73.18443
325.989	65.15732
326.509	93.21462
327.029	101.23568
327.548	36.08435
328.067	114.28177
328.587	46.11541
329.106	122.28843
329.625	115.30043
330.144	55.1299
330.662	111.26379
331.181	56.13368
331.7	105.24838
332.218	124.27467
332.736	77.18201
333.255	119.28237
333.773	65.1559
334.291	108.26714
334.808	55.12571
335.326	126.28782
335.844	69.1648
336.361	96.24422
336.879	127.30216
337.396	137.32996
337.913	145.34154
338.43	144.32509
338.947	127.30425
339.464	131.28867
339.981	92.22028
340.497	155.37797
341.014	173.41871
341.53	119.27079
342.046	132.3205
342.562	88.21711
343.078	129.30326
343.594	184.43449
344.11	156.36466
344.626	162.39894
345.141	89.20228
345.657	109.2423
346.172	161.38364
346.687	141.3228
347.202	150.33849
347.717	139.32613
348.232	172.422
348.747	125.28686
349.261	121.26529
349.776	190.43942
350.29	176.42701
350.805	217.52242
351.319	167.38155
351.833	153.34674
352.347	165.38077
352.861	193.44272
353.374	117.26451
353.888	91.21326
354.401	183.41456
354.915	234.522
355.428	167.40251
355.941	211.47488
356.454	121.26462
356.967	149.34166
357.48	208.45785
357.993	206.48455
358.505	229.53791
359.018	260.60726
359.53	182.41657
360.042	138.3002
360.554	154.3556
361.066	253.58848
361.578	193.40706
362.09	170.39067
362.602	151.32142
363.113	197.43774
363.625	220.46982
364.136	222.46689
364.647	174.388
365.158	214.4758
365.669	237.53972
366.18	214.47659
366.691	220.46065
367.201	198.44626
367.712	309.66201
368.222	209.44933
368.733	247.50332
369.243	252.52438
369.753	208.44727
370.263	284.63483
370.773	308.70776
371.282	263.57757
371.792	292.62005
372.301	259.58194
372.811	280.66396
373.32	301.5955
373.829	256.54717
374.338	247.50286
374.847	280.58056
375.356	277.58551
375.865	312.58849
376.373	374.72935
376.882	347.75785
377.39	328.68495
377.898	394.83261
378.407	395.7628
378.915	386.68704
379.423	440.84298
379.93	405.7435
380.438	471.91394
380.946	466.85314
381.453	501.93878
381.96	541.9603
382.468	570.98321
382.975	574.0108
383.482	642.03094
383.989	674.22454
384.495	705.1071
385.002	715.95759
385.509	678.0225
386.015	789.90031
386.521	759.98112
387.028	781.98768
387.534	846.9356
388.04	903.11743
388.546	954.03742
389.051	1014.9819
389.557	1139.12563
390.063	1011.9225
390.568	1214.19452
391.073	1215.95701
391.578	1258.03719
392.084	1293.87654
392.589	1326.67876
393.093	1544.79273
393.598	1678.51325
394.103	1720.41134
394.607	1999.18917
395.112	2147.13167
395.616	2257.87365
396.12	2402.42727
396.624	2698.11601
397.128	2886.89602
397.632	3152.63107
398.136	3309.57667
398.639	3656.74455
399.143	4298.74635
399.646	4636.40069
400.15	5116.48431
400.653	5773.71739
401.156	6754.55418
401.659	7787.26314
402.162	9624.6592
402.664	13658.03206
403.167	21429.2783
403.67	2367.87907
404.172	0
404.674	0
405.176	0
405.678	0
406.18	0
406.682	0
407.184	0
407.686	12367.42319
408.187	34596.90747
408.688	22751.19762
409.19	17122.4943
409.691	14020.60795
410.192	11910.63629
410.693	10690.90343
411.194	9958.17384
411.694	9513.58474
412.195	8711.00967
412.696	8260.27644
413.196	7861.5473
413.696	7743.42612
414.196	7797.60159
414.696	7737.21153
415.196	7343.08007
415.696	6084.19485
416.196	4831.54051
416.695	3805.68108
417.195	3501.57749
417.694	3366.59961
418.194	3062.63267
418.693	2863.78667
419.192	2848.85826
419.691	2846.90595
420.19	2838.99152
420.688	2724.1257
421.187	2532.11094
421.685	2346.57823
422.184	2070.0977
422.682	1799.32767
423.18	1596.74145
423.678	1460.87791
424.176	1251.89846
424.674	1275.96022
425.172	1184.10759
425.669	1062.19978
426.167	945.06672
426.664	927.06455
427.161	874.10386
427.659	847.22776
428.156	688.86571
428.652	761.27576
429.149	630.03403
429.646	625.94157
430.143	603.01634
430.639	557.94977
431.135	543.00585
431.632	509.88847
432.128	442.80307
432.624	412.83591
433.12	362.65301
433.616	457.78126
434.111	443.85181
434.607	412.80002
435.103	380.6564
435.598	314.53226
436.093	303.59327
436.588	282.53111
437.083	292.56781
437.578	214.41514
438.073	238.52125
438.568	203.43605
439.062	211.39807
439.557	187.38834
440.051	223.45235
440.546	200.41154
441.04	199.42838
441.534	107.24466
442.028	173.37049
442.522	183.39529
443.015	217.43172
443.509	177.39493
444.002	141.31513
444.496	118.23701
444.989	155.34413
445.482	158.35727
445.975	131.27581
446.468	176.35366
446.961	54.10746
447.454	155.32792
447.947	113.2465
448.439	79.17831
448.931	63.13177
449.424	139.32013
449.916	78.1758
450.408	50.10571
450.9	15.0339
451.392	40.09427
451.884	68.14648
452.375	54.12504
452.867	-6.01274
453.358	17.03674
453.849	52.10565
454.341	22.04653
454.832	62.12677
455.323	52.12003
455.814	16.03488
456.304	57.12402
456.795	46.10088
457.285	29.06125
457.776	16.0343
458.266	72.16261
458.756	56.12864
459.247	66.14979
459.737	57.13139
460.226	44.09531
460.716	20.04582
461.206	47.10803
461.695	44.10543
462.185	50.11366
462.674	13.02892
463.163	65.13963
463.653	54.11077
464.142	23.05354
464.63	47.10941
465.119	48.10726
465.608	50.11242
466.096	41.08815
466.585	57.12776
467.073	48.11075
467.561	5.01171
468.05	37.08375
468.538	19.04528
469.026	8.01857
469.513	28.05814
470.001	73.16632
470.489	83.19452
470.976	14.03143
471.463	23.05582
471.951	11.0266
472.438	-46.10808
472.925	46.1074
473.412	19.0455
473.899	30.06795
474.385	10.02425
474.872	-42.09803
475.359	51.12335
475.845	45.09433
476.331	20.04369
476.817	-35.08459
477.303	14.03239
477.789	-7.0168
478.275	16.0393
478.761	21.0506
479.247	32.07094
479.732	-6.01494
480.218	3.00765
480.703	29.07104
481.188	-52.11278
481.673	-27.06246
482.158	49.10721
482.643	8.02019
483.128	-2.00466
483.612	-12.02824
484.097	46.11169
484.581	-18.04168
485.066	4.00978
485.55	20.04436
486.034	-12.02661
486.518	-44.10366
487.002	50.12381
487.486	-33.08176
487.969	-59.14613
488.453	-28.07042
488.936	-51.11798
489.42	0
489.903	-38.09547
490.386	48.08215
490.869	4.00881
491.352	-65.15904
491.835	-27.05735
492.318	5.01157
492.8	-14.03042
493.283	-29.07395
493.765	-17.04234
494.247	-55.13091
494.73	-18.0403
495.212	-60.14525
495.694	-50.11986
496.175	-82.20037
496.657	-46.11056
497.139	-46.0848
497.62	-26.0632
498.102	17.04284
498.583	1.00253
499.064	-119.27364
499.545	-37.08641
500.026	-29.06685
500.507	-10.02366
500.988	16.03987
501.469	-69.1765
501.949	-42.10408
502.43	-16.03886
502.91	-3.00643
503.39	-54.13655
503.87	-48.11567
504.35	-46.10985
504.83	-48.10885
505.31	-34.08348
505.79	-68.16758
506.269	-18.04254
506.749	-61.14324
507.228	-77.18602
507.707	-59.13393
508.187	-88.21431
508.666	-94.2343
509.145	-59.14135
509.623	-44.10648
510.102	-71.17559
510.581	-65.1578
511.059	-36.09197
511.538	-54.13999
512.016	-43.10584
512.494	-28.06969
512.972	-107.25995
513.45	-76.18266
513.928	-39.09673
514.406	-39.09723
514.884	-48.12495
515.361	-97.23592
515.839	-72.16963
516.316	-47.11572
516.793	-87.2248
517.27	-69.16995
517.747	-35.09144
518.224	-116.27626
518.701	-60.13789
519.178	-45.11308
519.654	-60.14498
520.131	-84.21195
520.607	-75.18833
521.083	-86.2034
521.56	-93.22467
522.036	-76.17242
522.512	-103.25734
522.987	-50.12154
523.463	-61.14864
523.939	-76.18813
524.414	-57.13505
524.89	-45.10978
525.365	-86.19922
525.84	-107.26306
526.315	-76.18792
526.79	-82.1892
527.265	-57.13447
527.74	-97.24094
528.215	-14.03418
528.689	-85.19444
529.164	-56.12622
529.638	-51.13265
530.112	-64.15493
530.587	-30.0669
531.061	-106.26498
531.534	-46.11412
532.008	-26.06393
532.482	-130.30686
532.956	-111.2886
533.429	-96.23676
533.903	-98.22269
534.376	-54.12425
534.849	-111.26329
535.322	-69.16707
535.795	-90.22351
536.268	-99.24564
536.741	-103.25201
537.213	-91.21576
537.686	-116.29018
538.158	-65.15132
538.631	-113.27812
539.103	-88.20627
539.575	-101.21817
540.047	-78.17853
540.519	-110.26799
540.991	-84.20747
541.463	-81.19973
541.934	-102.2389
542.406	-111.26997
542.877	-108.24909
543.348	-128.30928
543.82	-74.18344
544.291	-64.15031
544.762	-70.16997
545.233	-57.1439
545.703	-84.19188
546.174	-39.09226
546.645	-89.21905
547.115	0
547.585	-111.25993
548.056	-57.13895
548.526	-34.08116
548.996	-64.1554
549.466	-66.16206
549.935	-17.04084
550.405	-47.10548
550.875	-29.06929
551.344	-8.01918
551.814	21.0485
552.283	-4.00872
552.752	11.02543
553.221	26.05702
553.69	17.03754
554.159	51.12451
554.628	26.05889
555.096	92.22781
555.565	114.25515
556.033	93.21505
556.502	117.27891
556.97	95.206
557.438	137.31502
557.906	182.41741
558.374	213.4723
558.842	192.44475
559.31	221.47942
559.777	223.51973
560.245	258.5691
560.712	287.62656
561.18	319.66985
561.647	310.65081
562.114	429.92026
562.581	362.81949
563.048	500.04499
563.514	494.10256
563.981	536.10453
564.448	499.00716
564.914	560.14734
565.381	623.23433
565.847	634.29159
566.313	751.51053
566.779	819.57118
567.245	787.53801
567.711	896.78727
568.176	898.64322
568.642	992.01119
569.108	990.96951
569.573	1122.03533
570.038	1184.87345
570.504	1172.01822
570.969	1253.33631
571.434	1338.10566
571.899	1356.37126
572.363	1416.28043
572.828	1519.35418
573.293	1549.47482
573.757	1597.47346
574.222	1720.5231
574.686	1706.51892
575.15	1834.82148
575.614	1783.64298
576.078	1727.63403
576.542	1801.58092
577.006	1830.56927
577.469	1830.81687
577.933	1852.60399
578.396	1919.81907
578.86	1935.80547
579.323	1885.86505
579.786	1882.44024
580.249	1840.63049
580.712	1835.84346
581.175	1816.91334
581.637	1736.54692
582.1	1832.40568
582.563	1815.38523
583.025	1718.75911
583.487	1734.21409
583.95	1590.29324
584.412	1629.18456
584.874	1583.65086
585.336	1532.51989
585.797	1501.19998
586.259	1453.40411
586.721	1369.33126
587.182	1360.25602
587.643	1259.06411
588.105	1258.15444
588.566	1209.82119
589.027	1149.10499
589.488	1134.93405
589.949	1117.06973
590.41	1095.61302
590.87	1011.74344
591.331	1032.70774
591.791	985.78965
592.252	984.75127
592.712	891.69312
593.172	860.5601
593.632	806.3968
594.092	826.48158
594.552	757.31202
595.011	732.40369
595.471	744.3746
595.931	706.30296
596.39	743.49785
596.849	680.33206
597.308	614.09948
597.768	646.42093
598.227	590.21055
598.685	651.24961
599.144	630.26597
599.603	609.23412
600.062	566.04202
600.52	596.14358
600.978	601.22843
601.437	607.18239
601.895	533.96625
602.353	504.96515
602.811	592.13698
603.269	617.24865
603.727	603.23921
604.184	553.08723
604.642	610.26629
605.099	583.18027
605.557	539.13885
606.014	554.03113
606.471	600.29533
606.928	568.05043
607.385	597.25938
607.842	623.2303
608.299	609.21611
608.755	611.25003
609.212	590.13858
609.668	580.108
610.125	618.25952
610.581	652.27712
611.037	599.15349
611.493	611.22406
611.949	611.25172
612.405	614.07746
612.861	675.3182
613.316	642.32096
613.772	611.18116
614.227	557.11828
614.683	673.20382
615.138	598.20875
615.593	622.25217
616.048	591.16864
616.503	589.21856
616.958	576.23707
617.412	600.22167
617.867	609.17447
618.321	593.07189
618.776	593.12275
619.23	535.09183
619.684	620.2109
620.138	506.00658
620.592	513.08382
621.046	480.98277
621.5	583.23196
621.954	498.98364
622.407	491.96321
622.861	470.02121
623.314	520.03353
623.768	404.85037
624.221	434.7669
624.674	420.86771
625.127	387.81441
625.58	383.77548
626.033	398.78021
626.485	404.88475
626.938	352.75885
627.39	423.89173
627.843	337.70983
628.295	374.781
628.747	361.78709
629.199	368.76335
629.651	344.72855
630.103	361.76171
630.555	405.7945
631.006	331.71557
631.458	333.73374
631.909	335.70313
632.361	324.70538
632.812	281.61217
633.263	306.61291
633.714	383.76447
634.165	263.59214
634.616	241.53905
635.067	254.52312
635.518	240.53936
635.968	321.59907
636.419	263.53763
636.869	220.48853
637.319	303.6752
637.769	253.53431
638.219	252.56888
638.669	186.42401
639.119	211.48207
639.569	233.53511
640.019	239.51891
640.468	183.39428
640.918	185.4208
641.367	226.48786
641.816	143.30558
642.265	192.42157
642.714	208.45805
643.163	205.44907
643.612	181.42168
644.061	132.27247
644.51	200.43932
644.958	163.35149
645.406	159.36809
645.855	235.55523
646.303	184.41505
646.751	166.36786
647.199	151.33092
647.647	175.38821
648.095	181.40152
648.543	213.42752
648.99	197.45606
649.438	146.32758
649.885	120.286
650.333	223.42154
650.78	150.3538
651.227	199.4689
651.674	189.42118
652.121	178.4213
652.568	171.40575
653.015	209.50906
653.461	155.35841
653.908	182.40852
654.354	181.42002
654.801	232.53463
655.247	154.32702
655.693	163.40915
656.139	193.45583
656.585	191.44778
657.031	198.45701
657.477	174.37352
657.922	187.42431
658.368	218.52433
658.813	203.45837
659.259	161.37908
659.704	126.2913
660.149	211.4811
660.594	201.46587
661.039	137.30758
661.484	165.38471
661.929	167.38109
662.373	166.4133
662.818	116.28451
663.262	134.31937
663.707	166.41044
664.151	146.3477
664.595	175.41988
665.039	132.32267
665.483	219.54772
665.927	121.27946
666.371	158.36861
666.814	138.32688
667.258	122.28887
667.701	165.35198
668.145	152.37238
668.588	149.36158
669.031	171.40074
669.474	166.39411
669.917	155.3384
670.36	149.3651
670.803	138.33067
671.245	162.34611
671.688	130.31174
672.13	163.37001
672.573	126.31542
673.015	117.27976
673.457	163.35707
673.899	151.36133
674.341	108.25957
674.783	139.33313
675.225	148.36325
675.666	119.28878
676.108	84.18234
676.549	131.30712
676.991	138.30709
677.432	205.42211
677.873	98.22854
678.314	124.29554
678.755	147.35846
679.196	135.31489
679.637	145.35253
680.078	160.37327
680.518	138.31954
680.959	105.24896
681.399	99.24555
681.839	147.35632
682.28	189.46345
682.72	162.37467
683.16	139.34602
683.6	116.26434
684.039	133.2783
684.479	118.29005
684.919	124.29293
685.358	129.32358
685.798	132.34807
686.237	141.33921
686.676	53.1228
687.115	138.32448
687.554	123.29456
687.993	119.26585
688.432	80.18576
688.871	92.21286
689.309	142.34103
689.748	152.32151
690.186	170.40377
690.625	127.30123
691.063	141.34114
691.501	151.37356
691.939	156.39123
692.377	143.35157
692.815	92.22338
693.253	94.22644
693.69	89.19973
694.128	107.26374
694.565	100.24053
695.003	93.23646
695.44	162.38403
695.877	87.20755
696.314	87.19091
696.751	99.22619
697.188	65.15108
697.625	113.25797
698.061	137.33233
698.498	133.32215
698.934	96.2331
699.371	100.2387
699.807	105.25117
700.243	31.07577
700.679	85.1953
701.115	73.17135
701.551	72.17101
701.987	134.30387
702.422	80.19352
702.858	107.25829
703.294	42.0959
703.729	111.27169
704.164	91.21975
704.599	119.26684
705.035	71.16248
705.47	9.02227
705.904	79.18876
706.339	102.23834
706.774	124.29406
707.209	85.20107
707.643	85.20612
708.078	73.17888
708.512	68.17244
708.946	67.16161
709.38	100.23989
709.814	80.18811
710.248	107.26365
710.682	59.14361
711.116	108.26479
711.549	85.22236
711.983	64.15142
712.416	80.19148
712.85	90.22677
713.283	38.09133
713.716	64.16045
714.149	130.30793
714.582	111.25391
715.015	88.22014
715.448	128.32251
715.881	75.1634
716.313	29.06844
716.746	80.19155
717.178	81.19774
717.61	46.11748
718.043	35.08833
718.475	14.03452
718.907	69.17358
719.339	82.19116
719.77	17.04141
720.202	72.18401
720.634	31.07745
721.065	81.19598
721.497	68.16949
721.928	47.11802
722.359	50.12449
722.79	6.01487
723.221	16.04076
723.652	31.0803
724.083	46.10736
724.514	29.06783
724.945	44.10567
725.375	36.08692
725.806	-2.00502
726.236	21.05407
726.666	73.17655
727.096	85.21237
727.526	37.09577
727.956	20.04738
728.386	104.25885
728.816	96.2493
729.246	43.10662
729.675	31.07756
730.105	81.20186
730.534	46.1101
730.964	48.12233
731.393	8.02005
731.822	13.03339
732.251	64.16483
732.68	46.10913
733.109	60.15183
733.537	59.14527
733.966	22.05563
734.395	34.08051
734.823	32.07395
735.251	38.09337
735.68	37.09365
736.108	64.16431
736.536	50.12154
736.964	29.06908
737.392	49.12433
737.82	12.02897
738.247	60.14683
738.675	26.06242
739.102	41.10546
739.53	20.05172
739.957	14.03648
740.384	65.16052
740.811	-13.0336
741.238	-15.03742
741.665	17.04048
742.092	68.16412
742.519	41.10429
742.945	40.09774
743.372	10.02536
743.798	52.13536
744.225	-1.00246
744.651	7.01792
745.077	25.06343
745.503	56.13958
745.929	59.14409
746.355	-15.03707
746.781	9.02278
747.207	28.06737
747.632	15.03768
748.058	11.02774
748.483	42.09972
748.908	8.02031
749.334	29.07308
749.759	64.15499
750.184	12.0293
750.609	-16.03997
751.033	-25.05964
751.458	33.07522
751.883	-20.05009
752.307	-16.03927
752.732	40.1032
753.156	34.08598
753.58	20.04831
754.005	-6.01546
754.429	6.01454
754.853	31.07888
755.277	-16.03865
755.7	-4.01012
756.124	-10.02547
756.548	19.04654
756.971	14.03498
757.394	10.02616
757.818	-7.01841
758.241	42.10813
758.664	11.02866
759.087	-15.035
759.51	1.00253
759.933	-41.10125
760.356	15.03873
760.778	69.17482
761.201	9.02242
761.623	10.02479
762.046	4.0096
762.468	-3.00734
762.89	-29.0724
763.312	19.04687
763.734	-26.06455
764.156	36.09064
764.578	-31.07328
765	45.11231
765.421	45.1184
765.843	15.03984
766.264	-11.02686
766.686	-22.05613
767.107	30.07461
767.528	-18.047
767.949	-41.10609
768.37	4.0101
768.791	-15.03723
769.212	56.14432
769.632	-3.00724
770.053	10.02677
770.473	27.06687
770.894	-20.05054
771.314	-14.03384
771.734	15.03606
772.154	19.04955
772.575	-9.02131
772.994	-1.00235
773.414	14.03416
773.834	-30.07583
774.254	28.0704
774.673	5.01237
775.093	-51.12922
775.512	6.01526
775.931	36.09284
776.351	18.0455
776.77	21.053
777.189	30.07287
777.607	-15.03877
778.026	-39.0992
778.445	-47.12035
778.864	-22.05699
779.282	13.03217
779.701	-47.1217
780.119	-15.03887
780.537	1.00256
780.955	28.07191
781.373	-18.04534
781.791	17.03908
782.209	-24.05601
782.627	-23.06141
783.045	2.00472
783.462	-21.05445
783.88	17.04485
784.297	29.07452
784.715	-16.04211
785.132	-5.01234
785.549	2.00513
785.966	-53.13643
786.383	-5.01256
786.8	-26.06128
787.217	22.05302
787.633	-1.00257
788.05	-7.01665
788.466	9.0216
788.883	-30.07809
789.299	-9.02209
789.715	30.07467
790.131	9.02286
790.547	-31.07829
790.963	-24.06106
791.379	-12.0308
791.795	-6.01387
792.21	33.07882
792.626	-47.1141
793.041	-2.00504
793.457	-43.1086
793.872	10.02382
794.287	7.01742
794.702	-36.09006
795.117	19.0485
795.532	2.00511
795.947	25.06074
796.362	-33.07948
796.776	-30.07073
797.191	24.06017
797.605	37.08935
798.02	11.02743
798.434	40.09005
798.848	33.08272
799.262	-9.02296
799.676	-17.04195
800.09	-5.01237
800.504	17.04201
800.918	25.05925
801.331	-17.04478
801.745	-34.07939
802.158	7.01782
802.572	21.05081
802.985	30.07333
803.398	17.04127
803.811	18.04612
804.224	-25.06307
804.637	-17.04147
805.05	10.02372
805.462	53.13237
805.875	17.04499
806.288	-44.10844
806.7	35.0888
807.112	4.00947
807.525	2.00499
807.937	-22.05573
808.349	-14.03531
808.761	-33.08203
809.173	18.04431
809.584	-26.06443
809.996	-1.00251
810.408	-8.02111
810.819	22.0533
811.231	27.0719
811.642	24.05989
812.053	5.01233
812.464	-2.00489
812.875	10.02604
813.286	-20.05205
813.697	-27.06273
814.108	11.02699
814.519	-46.10461
814.929	-7.01785
815.34	57.13848
815.75	11.0283
816.16	10.02512
816.571	10.02636
816.981	-17.04032
817.391	2.00492
817.801	-7.01769
818.211	-25.0604
818.62	46.11266
819.03	-1.00249
819.44	32.0835
819.849	13.03325
820.259	8.02047
820.668	-3.00752
821.077	19.04822
821.486	26.06368
821.895	3.00743
822.304	-20.05352
822.713	-1.0024
823.122	3.00754
823.531	-41.09875
823.939	-14.03477
824.348	-6.0148
824.756	19.04797
825.164	4.01009
825.573	6.0153
825.981	-9.02232
826.389	69.1737
826.797	19.04862
827.205	-12.02848
827.612	-10.0249
828.02	0
828.428	2.00513
828.835	-33.08797
829.243	22.05276
829.65	11.02767
830.057	-17.0416
830.464	-13.03208
830.871	-14.03371
831.278	9.022
831.685	-13.02974
832.092	20.04962
832.499	-15.03369
832.905	12.03056
833.312	2.00463
833.718	-4.01002
834.124	17.03904
834.531	32.081
834.937	-15.03888
835.343	33.08035
835.749	30.07035
836.155	10.0265
836.561	-35.08713
836.966	19.04664
837.372	19.04896
837.777	-12.03032
838.183	-16.0365
838.588	-10.0253
838.993	-36.08823
839.399	29.07259
839.804	-49.12313
840.209	-3.00777
840.613	-11.02506
841.018	-2.00513
841.423	8.02068
841.828	-38.09759
842.232	33.08143
842.637	0
843.041	-14.03649
843.445	28.0709
843.849	-27.06819
844.253	-22.053
844.657	-34.08775
845.061	-10.02302
845.465	-3.00744
845.869	31.07288
846.272	-27.0676
846.676	-60.14525
847.079	-8.02077
847.483	-23.05773
847.886	28.06827
848.289	-20.05419
848.692	-27.06899
849.095	-4.00975
849.498	-29.07355
849.901	10.02325
850.304	-49.11873
850.707	-14.03598
851.109	-15.03795
851.512	13.03262
851.914	36.09336
852.316	23.05867
852.718	-6.01608
853.121	30.07478
853.523	26.06301
853.925	-5.01328
854.326	-19.04862
854.728	-25.0654
855.13	-13.03399
855.531	43.10494
855.933	-5.01219
856.334	-8.02022
856.736	18.04188
857.137	24.05687
857.538	44.11237
857.939	7.01774
858.34	1.00247
858.741	-2.00528
859.142	9.02177
859.542	-33.08841
859.943	55.13861
860.343	3.00763
860.744	11.02702
861.144	3.0074
861.544	34.08398
861.945	20.05158
862.345	12.02957
862.745	-8.02004
863.145	-15.036
863.544	-11.0282
863.944	51.12246
864.344	20.04962
864.743	-11.02741
865.143	44.11418
865.542	-25.05969
865.941	-44.11059
866.34	14.03356
866.74	-7.01892
867.139	-18.04389
867.537	37.09464
867.936	12.02921
868.335	-12.03081
868.734	31.07985
869.132	-18.0426
869.531	-53.12842
869.929	-15.03546
870.327	32.07819
870.726	-34.08536
871.124	15.03508
871.522	-21.05394
871.92	19.0474
872.318	-21.05176
872.715	-6.0148
873.113	28.0689
873.511	-37.09207
873.908	-50.12891
874.306	25.06314
874.703	37.09264
875.1	-4.01022
875.497	16.03878
875.894	15.03761
876.291	-56.13852
876.688	-8.02088
877.085	-27.06567
877.482	-2.00507
877.878	-2.00492
878.275	1.00256
878.671	-36.08018
879.068	2.00488
879.464	21.05155
879.86	1.00242
880.256	8.01983
880.652	25.06458
881.048	21.05224
881.444	-17.04074
881.84	6.01546
882.236	-13.033
882.631	12.02962
883.027	3.00726
883.422	18.04671
883.817	22.05658
884.213	27.06991
884.608	18.04531
885.003	40.09836
885.398	16.04059
885.793	25.06339
886.188	41.10362
886.582	11.02835
886.977	45.10777
887.371	-48.12168
887.766	-5.01265
888.16	26.06544
888.554	-65.16146
888.949	-19.04802
889.343	17.04183
889.737	-13.03527
890.131	14.03552
890.525	54.13927
890.918	4.01021
891.312	-2.00481
891.706	-13.03434
892.099	32.08138
892.492	-41.09012
892.886	11.02757
893.279	29.07506
893.672	-5.01293
894.065	-31.07868
894.458	-8.02021
894.851	-11.0269
895.244	18.0466
895.637	12.02914
896.029	42.10408
896.422	-10.02475
896.814	43.10848
897.206	-17.04139
897.599	-2.00495
897.991	10.02458
898.383	-54.12989
898.775	15.03433
899.167	-4.0096
899.559	6.01517
899.951	-2.00481
900.342	17.04361
900.734	-38.09732
901.125	30.07964
901.517	-10.02474
901.908	21.05029
902.299	43.10739
902.69	10.02393
903.082	-7.0169
903.473	-20.04927
903.863	-49.12635
904.254	-56.13275
904.645	-8.01982
905.036	-5.01237
905.426	7.01623
905.817	-2.00499
906.207	-26.06384
906.597	15.03562
906.987	-8.02062
907.378	-26.06647
907.768	-12.03211
908.158	33.08092
908.547	6.01585
908.937	-12.03077
909.327	-4.0098
909.717	9.02279
910.106	19.04664
910.495	15.03746
910.885	6.01537
911.274	13.03286
911.663	-18.04592
912.052	-7.01732
912.441	11.02841
912.83	17.03989
913.219	-47.124
913.608	-36.08839
913.997	-10.02563
914.385	45.10851
914.774	-1.00246
915.162	3.00732
915.55	1.00242
915.939	-32.08227
916.327	-38.09489
916.715	41.10645
917.103	45.11055
917.491	-17.0426
917.878	0
918.266	-13.03386
918.654	2.00515
919.041	-50.13269
919.429	-58.1393
919.816	7.01789
920.203	-13.032
920.591	3.00746
920.978	-5.01236
921.365	5.01322
921.752	-27.0653
922.139	43.09364
922.525	23.05701
922.912	-34.08401
923.299	45.11381
923.685	-23.06046
924.072	0
924.458	-2.00502
924.844	-3.0076
925.231	-34.08122
925.617	55.14226
926.003	-10.02577
926.389	-60.15383
926.774	4.01023
927.16	-4.01005
927.546	-5.01294
927.931	39.09825
928.317	-24.05634
928.702	-17.04051
929.088	26.06315
929.473	-21.05426
929.858	-17.04255
930.243	-25.06119
930.628	5.01245
931.013	-23.05796
931.398	-7.01605
931.783	-15.03935
932.167	-19.04678
932.552	-9.02251
932.937	-12.03002
933.321	-24.06164
933.705	-7.01782
934.09	-4.00998
934.474	18.04321
934.858	-35.09122
935.242	-9.02115
935.626	-25.06511
936.009	16.04293
936.393	-14.03578
936.777	-53.13695
937.16	27.0708
937.544	-22.05205
937.927	-53.13685
938.311	11.02696
938.694	0
939.077	14.03412
939.46	-16.03934
939.843	26.05461
940.226	15.03893
940.609	13.03065
940.991	-4.01035
941.374	-31.077
941.757	46.11433
942.139	-4.0091
942.522	13.03069
942.904	1.00242
943.286	5.01275
943.668	9.02361
944.05	18.04501
944.432	14.03525
944.814	58.14441
945.196	22.05506
945.578	0
945.959	-9.02145
946.341	21.05106
946.722	-23.05443
947.104	2.00481
947.485	46.10901
947.866	29.07402
948.247	0
948.628	3.00739
949.009	-8.0208
949.39	-27.06773
949.771	10.02353
950.152	-8.01996
950.532	-26.06577
950.913	59.1442
951.293	15.04104
951.674	-4.00979
952.054	-22.05531
952.434	-34.08542
952.814	-50.11908
953.194	-19.0495
953.574	-48.11925
953.954	10.02411
954.334	24.0601
954.714	-46.11499
955.093	-11.02693
955.473	-46.11727
955.853	-29.07545
956.232	-31.08506
956.611	23.05493
956.99	-55.13905
957.37	-35.09025
957.749	-14.03383
958.128	-22.05591
958.506	1.00262
958.885	4.01018
959.264	3.00752
959.643	25.05797
960.021	-22.05506
960.4	-7.0161
960.778	-8.01967
961.156	4.01018
961.535	-7.01652
961.913	-6.01426
962.291	-22.05772
962.669	-59.15002
963.047	-22.05697
963.424	-12.03094
963.802	-23.05726
964.18	-20.05088
964.557	4.00937
964.935	21.04973
965.312	20.05276
965.69	-1.00253
966.067	18.04413
966.444	20.0494
966.821	-29.07499
967.198	9.02172
967.575	-28.06921
967.952	-42.0993
968.329	-3.00738
968.705	17.0374
969.082	6.01568
969.458	10.02434
969.835	-36.08803
970.211	-25.06527
970.587	21.05243
970.963	1.00258
971.339	-7.01846
971.715	-15.03792
972.091	40.09901
972.467	21.05247
972.843	8.02025
973.219	-14.0337
973.594	-4.0106
973.97	27.06456
974.345	-14.03418
974.721	-7.01711
975.096	-3.00738
975.471	-49.11605
975.846	-9.02201
976.221	2.00519
976.596	15.03654
976.971	-8.01975
977.346	-4.00939
977.72	-22.05607
978.095	-23.05966
978.469	9.02158
978.844	28.06989
979.218	38.09282
979.593	-27.06483
979.967	3.00742
980.341	23.0538
980.715	1.00253
981.089	18.04557
981.463	-3.00702
981.837	-6.01493
982.21	2.00458
982.584	-19.04685
982.957	17.04287
983.331	-38.0913
983.704	33.08203
984.078	-39.09751
984.451	-20.0494
984.824	34.0845
985.197	-6.01474
985.57	0
985.943	-12.02958
986.316	21.05165
986.688	-12.02924
987.061	-5.01194
987.434	-29.0761
987.806	-9.02188
988.179	25.06033
988.551	55.1395
988.923	-7.01723
989.295	46.1152
989.667	27.06638
990.039	-3.00753
990.411	25.05808
990.783	-28.06458
991.155	5.01236
991.527	10.02428
991.898	-33.0834
992.27	5.0126
992.641	34.08524
993.012	47.11092
993.384	-8.0194
993.755	-2.00515
994.126	-2.00486
994.497	-1.00251
994.868	-8.01858
995.239	-5.01227
995.61	2.00512
995.98	37.09103
996.351	43.1079
996.722	-24.0572
997.092	-26.06266
997.462	27.06481
997.833	-16.03805
998.203	-28.06862
998.573	-58.14719
998.943	22.05241
999.313	-46.11136
999.683	-35.08541
1000.053	0
1000.423	-22.05386
1000.792	56.14627
1001.162	-9.02245
1001.531	29.0719
1001.901	-31.07818
1002.27	20.04548
1002.639	28.07181
1003.009	-46.11199
1003.378	24.06131
1003.747	0
1004.116	15.03639
1004.485	-5.01198
1004.853	-2.00509
1005.222	10.02547
1005.591	9.02158
1005.959	35.08177
1006.328	-4.00922
1006.696	-44.10776
1007.064	21.05343
1007.433	12.02989
1007.801	-44.10828
1008.169	56.14226
1008.537	6.01331
1008.905	38.0896
1009.273	29.07196
1009.64	45.10883
1010.008	6.01449
1010.375	-72.17351
1010.743	55.12693
1011.11	27.06473
1011.478	10.02474
1011.845	-13.0309
1012.212	5.01159
1012.579	-31.07717
1012.946	23.05519
1013.313	-24.05722
1013.68	7.01583
1014.047	45.10961
1014.414	-10.02406
1014.78	-23.05776
1015.147	8.01934
1015.513	-4.00977
1015.88	-6.01539
1016.246	40.09858
1016.612	30.06922
1016.978	50.12322
1017.344	11.02735
1017.71	-16.03869
1018.076	13.03073
1018.442	17.04376
1018.808	19.04792
1019.174	26.06591
1019.539	25.05703
1019.905	-15.03581
1020.27	2.00501
1020.636	-17.04104
1021.001	18.04376
1021.366	-6.01449
1021.731	2.00518
1022.096	-68.17427
1022.461	-45.10715
1022.826	-20.04858
1023.191	-9.02377
1023.556	29.06847
1023.92	-30.07421
1024.285	-8.01963
1024.649	-24.05926
1025.014	-7.01738
1025.378	18.04579
1025.742	27.06743
1026.107	3.00685
1026.471	-20.0469
1026.835	-44.10999
1027.199	-27.06655
1027.562	39.09179
1027.926	-16.03929
1028.29	48.1231
1028.654	42.09756
1029.017	-2.00493
1029.381	43.10513
1029.744	28.07211
1030.107	11.02589
1030.471	-23.05577
1030.834	-4.0092
1031.197	11.02635
1031.56	-39.09322
1031.923	3.0078
1032.286	-42.09887
1032.648	15.03628
1033.011	27.0635
1033.374	7.01642
1033.736	1.00267
1034.099	29.07167
1034.461	25.06446
1034.823	-11.02778
1035.185	19.04822
1035.548	-7.01728
1035.91	-5.01222
1036.272	-10.0232
1036.634	-2.00489
1036.995	-23.05443
1037.357	-23.05678
1037.719	-11.02686
1038.08	-9.02133
1038.442	1.0024
1038.803	44.1066
1039.165	-23.0585
1039.526	-23.05613
1039.887	-12.02917
1040.248	6.01516
1040.609	5.01236
1040.97	48.11908
1041.331	-32.08161
1041.692	43.10164
1042.053	-18.04147
1042.413	18.04203
1042.774	-22.05404
1043.134	9.02133
1043.495	17.04281
1043.855	-23.05638
1044.215	-31.07731
1044.576	1.00244
1044.936	-49.11281
1045.296	26.06483
1045.656	7.01731
1046.016	50.12068
1046.375	13.03216
1046.735	8.01863
1047.095	2.00476
1047.454	-15.03197
1047.814	-35.08443
1048.173	-11.02621
1048.533	2.00465
1048.892	-23.05688
1049.251	-2.00503
1049.61	-6.01499
1049.969	-4.00946
1050.328	-3.0066
1050.687	-5.01234
1051.046	26.06339
1051.405	3.00753
1051.763	13.03032
1052.122	72.18129
1052.48	-22.0543
1052.839	12.02856
1053.197	-17.0402
1053.555	4.00898
1053.914	6.01481
1054.272	12.02895
1054.63	-3.0075
1054.988	1.0024
1055.345	17.0373
1055.703	-45.109
1056.061	-10.02597
1056.419	-12.03139
1056.776	15.03625
1057.134	18.04226
1057.491	4.01006
1057.848	5.01254
1058.206	-30.07197
1058.563	-9.02032
1058.92	12.02781
1059.277	-28.06931
1059.634	35.08315
1059.991	-34.08138
1060.348	13.03028
1060.704	-7.01696
1061.061	-52.1196
1061.418	22.05412
1061.774	11.02743
1062.131	-3.00799
1062.487	-37.08786
1062.843	26.06514
1063.199	-32.08028
1063.555	-20.04705
1063.911	12.03065
1064.267	31.06481
1064.623	-25.06201
1064.979	-14.03287
1065.335	-15.03554
1065.691	-34.08166
1066.046	-32.07115
1066.402	5.01161
1066.757	-10.02522
1067.112	-49.12025
1067.468	-29.07014
1067.823	34.08215
1068.178	-44.10776
1068.533	15.03633
1068.888	36.08659
1069.243	40.09894
1069.598	36.08823
1069.952	15.03473
1070.307	52.12994
1070.662	20.04831
1071.016	-15.03466
1071.371	-24.0556
1071.725	1.0024
1072.079	-17.04098
1072.434	-12.02962
1072.788	58.14014
1073.142	12.02958
1073.496	48.11703
1073.85	-3.00701
1074.203	-5.01208
1074.557	17.04548
1074.911	-3.00717
1075.265	-21.04943
1075.618	40.09778
1075.971	2.00482
1076.325	24.0616
1076.678	4.00948
1077.031	-35.08167
1077.385	27.06047
1077.738	45.10397
1078.091	-2.00471
1078.444	2.00471
1078.796	3.00742
1079.149	-15.03752
1079.502	12.02893
1079.855	-15.03581
1080.207	-17.04206
1080.56	27.07056
1080.912	-4.00986
1081.264	16.03886
1081.617	3.00748
1081.969	-8.02061
1082.321	28.06934
1082.673	37.08675
1083.025	-32.07665
1083.377	-233.52932
1083.728	49.11448
1084.08	8.02027
1084.432	44.10732
1084.783	-24.05639
1085.135	6.0152
1085.486	19.04453
1085.838	5.01243
1086.189	-15.037
1086.54	-25.06003
1086.891	-8.02065
1087.242	-35.0864
1087.593	-24.05825
1087.944	32.07398
1088.295	3.00682
1088.646	-16.03929
1088.996	-8.01972
1089.347	-1.00248
1089.698	-3.00731
1090.048	-22.05747
1090.398	-25.05884
1090.749	5.012
1091.099	-1.00255
1091.449	-26.06523
1091.799	17.04318
1092.149	12.03019
1092.499	-26.06363
1092.849	-10.02567
1093.199	-7.0175
1093.548	-17.04129
1093.898	18.04571
1094.248	-7.01799
1094.597	-16.04182
1094.947	-10.02686
1095.296	0
1095.645	-1.00261
1095.994	42.10206
1096.343	-9.02284
1096.692	29.07728
1097.041	-3.00823
1097.39	-9.02274
1097.739	-10.02597
1098.088	24.06426
1098.437	-10.02663
1098.785	45.1217
1099.134	17.04517
1099.482	-13.03585
1099.83	-7.01831
1100.179	-39.10341
1100.527	22.05895
1100.875	-20.05354
1101.223	-43.11493
1101.571	-4.01118
1101.919	-27.07212
1102.267	-16.04534
1102.615	-3.00966
1102.962	-4.01288
1103.31	-6.01934
1103.658	-13.04191
