Data from N3 R9 sample 10_Subt2__1__15-11-26-540.txt Node

Date: Mon Sep 22 15:11:26 PDT 2025
User: uwsun
Spectrometer: HDX01956
Trigger mode: 0
Integration Time (sec): 5.000000E-1
Scans to average: 1
Nonlinearity correction enabled: true
Boxcar width: 0
Storing dark spectrum: false
XAxis mode: Wavelengths
Number of Pixels in Spectrum: 2068
>>>>>Begin Spectral Data<<<<<
194.03	5.01456
194.578	-3.00975
195.127	-1.00321
195.676	11.03533
196.225	-19.05031
196.773	-2.00557
197.321	0
197.87	29.07488
198.418	43.11253
198.966	22.05848
199.513	-8.0204
200.061	75.19178
200.609	40.10598
201.156	12.02663
201.704	31.07941
202.251	57.15311
202.798	45.11804
203.345	34.08432
203.892	82.20772
204.438	44.10632
204.985	36.08744
205.532	60.15981
206.078	50.12472
206.624	89.22196
207.17	35.08186
207.716	29.07133
208.262	-8.01614
208.808	14.03531
209.354	-39.09606
209.899	38.09708
210.445	36.09175
210.99	19.04685
211.535	94.22369
212.08	60.14048
212.625	9.02279
213.17	38.09633
213.715	56.12802
214.259	-2.00473
214.804	17.04215
215.348	64.1479
215.892	51.12274
216.436	42.09702
216.98	25.05592
217.524	9.02149
218.068	51.12894
218.612	63.1578
219.155	67.15806
219.698	55.13146
220.242	3.00748
220.785	14.03289
221.328	71.17681
221.871	-23.05798
222.414	65.16152
222.956	32.07808
223.499	24.05429
224.041	23.05287
224.583	53.11287
225.126	79.1751
225.668	35.08519
226.21	23.05821
226.751	-20.04473
227.293	41.09311
227.835	1.00245
228.376	47.10669
228.918	53.13352
229.459	43.10743
230	15.03602
230.541	5.0114
231.082	87.21421
231.622	36.0829
232.163	49.11949
232.704	14.03497
233.244	47.11747
233.784	27.06565
234.324	42.09362
234.864	-44.10031
235.404	49.11645
235.944	17.04021
236.484	77.19092
237.023	15.03558
237.563	27.06251
238.102	-25.059
238.641	-13.03291
239.18	-12.02825
239.719	50.1244
240.258	29.06535
240.797	52.12479
241.335	-32.07799
241.874	-10.01935
242.412	25.05948
242.95	6.01449
243.488	48.10876
244.026	-27.06186
244.564	24.04878
245.102	7.01574
245.64	39.09293
246.177	-14.03104
246.715	54.12737
247.252	58.1334
247.789	54.1
248.326	71.1723
248.863	55.12171
249.4	-4.00904
249.936	51.10615
250.473	0
251.009	4.00933
251.546	31.06791
252.082	-5.01085
252.618	19.04255
253.154	-10.02404
253.69	5.01114
254.226	34.08091
254.761	8.01805
255.297	57.1246
255.832	65.15459
256.367	29.06855
256.903	90.19645
257.438	8.01874
257.972	35.07858
258.507	2.0046
259.042	101.21957
259.576	47.10192
260.111	40.09229
260.645	6.01304
261.179	31.07202
261.713	53.1165
262.247	49.11313
262.781	-2.00418
263.315	27.06663
263.849	19.04768
264.382	44.10087
264.915	69.1631
265.449	40.09865
265.982	93.21154
266.515	46.10997
267.048	49.10603
267.58	4.00865
268.113	37.08037
268.646	18.045
269.178	23.05151
269.71	22.04702
270.243	35.07929
270.775	-27.06875
271.307	46.10976
271.838	47.11062
272.37	44.10708
272.902	22.04959
273.433	47.1027
273.965	29.06945
274.496	-9.02259
275.027	45.1119
275.558	52.12565
276.089	24.06008
276.62	15.03802
277.15	22.0541
277.681	44.09511
278.211	41.10088
278.741	47.10517
279.272	-61.13909
279.802	23.05753
280.332	26.06199
280.861	13.03124
281.391	42.09524
281.921	1.00238
282.45	78.19385
282.98	24.06222
283.509	87.19557
284.038	6.0137
284.567	32.0743
285.096	30.07235
285.625	32.07292
286.153	25.05941
286.682	62.14231
287.21	31.07537
287.739	30.07134
288.267	44.10668
288.795	38.0997
289.323	29.06892
289.851	37.08614
290.378	51.11413
290.906	40.09756
291.433	54.13499
291.961	63.14411
292.488	57.14133
293.015	-4.00943
293.542	17.04292
294.069	33.08137
294.596	19.0468
295.122	51.12251
295.649	23.05049
296.175	65.15703
296.702	46.11102
297.228	16.0384
297.754	78.17659
298.28	54.12136
298.806	36.08826
299.332	47.10526
299.857	73.16753
300.383	21.05251
300.908	30.07314
301.433	82.19873
301.958	47.1092
302.483	54.13635
303.008	70.1722
303.533	14.03632
304.058	60.14097
304.582	67.15947
305.107	57.15018
305.631	13.02956
306.155	15.03492
306.679	28.06589
307.203	85.19733
307.727	44.10467
308.251	42.10336
308.775	74.17759
309.298	20.04842
309.822	43.10864
310.345	5.01179
310.868	63.15162
311.391	40.09843
311.914	90.22758
312.437	1.00228
312.96	64.15207
313.482	101.23809
314.005	86.21754
314.527	63.16565
315.049	28.0707
315.571	94.2123
316.093	68.16684
316.615	95.2327
317.137	80.17381
317.659	97.2338
318.18	39.09358
318.702	41.09594
319.223	59.12198
319.744	83.18711
320.265	96.23476
320.786	75.18582
321.307	67.16691
321.828	43.09729
322.348	69.16177
322.869	15.03573
323.389	64.10841
323.909	82.18905
324.43	49.11641
324.95	83.18971
325.47	106.26142
325.989	61.14542
326.509	53.11899
327.029	5.01127
327.548	99.22665
328.067	131.31718
328.587	112.27561
329.106	106.24057
329.625	109.28203
330.144	114.26272
330.662	76.17759
331.181	125.2903
331.7	98.22998
332.218	181.39349
332.736	67.15763
333.255	96.22423
333.773	99.23346
334.291	100.24871
334.808	114.2561
335.326	61.13746
335.844	86.20127
336.361	102.25847
336.879	97.22626
337.396	137.32395
337.913	100.22732
338.43	92.20778
338.947	117.27859
339.464	87.18769
339.981	135.32046
340.497	89.21752
341.014	79.19157
341.53	118.26661
342.046	115.28315
342.562	114.28022
343.078	126.29453
343.594	111.26268
344.11	137.31779
344.626	139.34803
345.141	148.33412
345.657	138.31078
346.172	124.29418
346.687	84.18987
347.202	121.27289
347.717	152.3599
348.232	95.23511
348.747	89.20179
349.261	161.35165
349.776	166.38605
350.29	69.17127
350.805	110.26939
351.319	153.35153
351.833	183.41844
352.347	76.17563
352.861	124.28314
353.374	146.33404
353.888	204.48805
354.401	127.29121
354.915	198.44352
355.428	116.28493
355.941	195.45322
356.454	184.40077
356.967	150.35558
357.48	178.4043
357.993	175.42419
358.505	186.45533
359.018	173.41429
359.53	207.49722
360.042	142.311
360.554	189.45191
361.066	177.42791
361.578	196.42347
362.09	109.25435
362.602	201.43771
363.113	166.3798
363.625	209.46517
364.136	167.35733
364.647	177.41009
365.158	170.38613
365.669	174.40785
366.18	186.42863
366.691	198.42797
367.201	199.46471
367.712	138.30811
368.222	199.44622
368.733	180.38473
369.243	203.44338
369.753	241.5455
370.263	247.5752
370.773	214.5151
371.282	184.42538
371.792	224.50093
372.301	181.42915
372.811	254.64908
373.32	218.45605
373.829	280.64883
374.338	240.52274
374.847	253.56076
375.356	281.64611
375.865	290.59753
376.373	294.64633
376.882	316.76373
377.39	287.66834
377.898	308.73373
378.407	400.85676
378.915	377.77242
379.423	343.76717
379.93	332.7059
380.438	363.83861
380.946	395.8623
381.453	459.02874
381.96	475.04326
382.468	485.059
382.975	519.16918
383.482	543.12725
383.989	542.26203
384.495	547.13507
385.002	572.08635
385.509	599.26748
386.015	621.07579
386.521	724.41572
387.028	721.40884
387.534	740.38493
388.04	756.54956
388.546	799.52539
389.051	809.47893
389.557	868.68094
390.063	935.74417
390.568	954.86267
391.073	1105.96672
391.578	1102.14552
392.084	1083.89772
392.589	1132.88731
393.093	1258.30941
393.598	1316.20527
394.103	1436.47144
394.607	1642.72451
395.112	1693.83043
395.616	1804.83261
396.12	2016.73571
396.624	2168.062
397.128	2358.14861
397.632	2565.10237
398.136	2787.03951
398.639	2959.16139
399.143	3376.63801
399.646	3708.99288
400.15	4247.75584
400.653	4701.50701
401.156	5315.98488
401.659	6120.94248
402.162	7423.77678
402.664	9825.73695
403.167	13854.67047
403.67	25717.14456
404.172	58897.85386
404.674	62421.90989
405.176	60252.21675
405.678	57642.47783
406.18	55467.82182
406.682	56151.3881
407.184	60564.14267
407.686	63049.78229
408.187	43601.1266
408.688	25287.11013
409.19	17565.57884
409.691	14227.98441
410.192	12013.30428
410.693	10412.46754
411.194	9595.72126
411.694	8981.42745
412.195	8365.75107
412.696	7450.79138
413.196	6931.17679
413.696	6682.78572
414.196	7075.34205
414.696	6739.92889
415.196	6410.66413
415.696	5747.6204
416.196	4816.439
416.695	3714.14725
417.195	3088.27152
417.694	3026.41473
418.194	2753.60928
418.693	2645.03701
419.192	2497.16143
419.691	2485.14767
420.19	2381.15078
420.688	2343.24201
421.187	2253.45387
421.685	2144.93821
422.184	1949.81586
422.682	1647.39338
423.18	1416.36491
423.678	1240.1291
424.176	1155.04945
424.674	1097.88323
425.172	1073.0106
425.669	1027.0412
426.167	983.84292
426.664	771.47255
427.161	785.52975
427.659	677.42775
428.156	673.20073
428.652	632.42147
429.149	561.20145
429.646	559.11662
430.143	563.2047
430.639	514.07431
431.135	457.04145
431.632	436.90803
432.128	408.89464
432.624	390.92473
433.12	373.78599
433.616	313.6291
434.111	317.702
434.607	326.72058
435.103	339.66125
435.598	309.58812
436.093	294.63709
436.588	270.56533
437.083	246.52124
437.578	240.5183
438.073	234.55554
438.568	255.59359
439.062	230.45898
439.557	227.50649
440.051	193.41618
440.546	212.46333
441.04	277.63054
441.534	128.31161
442.028	199.45172
442.522	219.50276
443.015	129.27053
443.509	178.41461
444.002	153.35463
444.496	117.24265
444.989	141.32992
445.482	158.37859
445.975	135.29673
446.468	160.33235
446.961	64.13021
447.454	165.35489
447.947	165.37895
448.439	100.23431
448.931	114.24957
449.424	109.26332
449.916	69.15904
450.408	102.22406
450.9	70.16588
451.392	28.06814
451.884	91.20027
452.375	121.28988
452.867	100.21402
453.358	42.09195
453.849	57.11642
454.341	70.15124
454.832	75.15464
455.323	62.14584
455.814	63.13918
456.304	95.20978
456.795	75.16444
457.285	74.15879
457.776	69.15103
458.266	72.16321
458.756	114.26177
459.247	55.12531
459.737	78.17983
460.226	15.0326
460.716	91.20766
461.206	54.12583
461.695	33.0787
462.185	71.16124
462.674	52.11461
463.163	46.09888
463.653	85.17076
464.142	46.10728
464.63	48.11335
465.119	62.13837
465.608	28.06208
466.096	89.18772
466.585	79.17313
467.073	99.22901
467.561	45.10422
468.05	41.09073
468.538	6.01429
469.026	69.1586
469.513	26.05367
470.001	52.11408
470.489	87.20053
470.976	69.15453
471.463	37.08905
471.951	23.05521
472.438	37.0844
472.925	19.04327
473.412	50.11862
473.899	46.10151
474.385	56.13337
474.872	37.08348
475.359	71.17003
475.845	33.06614
476.331	53.11041
476.817	9.02135
477.303	38.08568
477.789	10.02332
478.275	-32.07732
478.761	43.09955
479.247	8.0176
479.732	32.07732
480.218	39.09951
480.703	35.08446
481.188	33.06881
481.673	-4.00888
482.158	50.10544
482.643	0
483.128	27.06079
483.612	-49.11281
484.097	39.09108
484.581	-19.04259
485.066	48.11331
485.55	-7.01518
486.034	60.12697
486.518	33.07482
487.002	25.06078
487.486	12.029
487.969	42.10114
488.453	-11.0271
488.936	29.06428
489.42	-100.21754
489.903	28.06829
490.386	8.01777
490.869	47.0987
491.352	43.10133
491.835	-12.02401
492.318	23.05056
492.8	12.02397
493.283	-14.03492
493.765	-10.02414
494.247	22.04973
494.73	3.00654
495.212	-20.04714
495.694	-1.00228
496.175	23.05411
496.657	1.00227
497.139	-23.03897
497.62	-21.04939
498.102	-4.00979
498.583	-40.098
499.064	-7.01534
499.545	-9.02014
500.026	-76.16793
500.507	-15.0344
500.988	-45.10863
501.469	-64.15773
501.949	-50.12072
502.43	-48.11304
502.91	-55.11228
503.39	-10.02456
503.87	-7.01612
504.35	8.01842
504.83	-39.08399
505.31	-15.03576
505.79	-71.1673
506.269	-21.0481
506.749	-74.16842
507.228	-38.08796
507.707	-64.13662
508.187	-33.07637
508.666	-40.0965
509.145	-38.08736
509.623	-74.17271
510.102	-59.14049
510.581	-31.07259
511.059	-18.04461
511.538	-69.17495
512.016	-44.10366
512.494	8.01895
512.972	-58.1359
513.45	-84.19536
513.928	-33.07936
514.406	-64.15557
514.884	-94.23778
515.361	-83.19702
515.839	-53.11885
516.316	-55.13016
516.793	-24.06045
517.27	-47.11101
517.747	10.02537
518.224	-66.15101
518.701	2.00435
519.178	-25.06151
519.654	-46.10833
520.131	-39.09549
520.607	-53.12905
521.083	-41.09235
521.56	-71.16698
522.036	-19.04027
522.512	-70.1678
522.987	-72.16824
523.463	-2.00466
523.939	-34.08153
524.414	-41.09198
524.89	10.02332
525.365	-91.20145
525.84	-62.14811
526.315	-32.07656
526.79	-3.00659
527.265	-55.12379
527.74	-58.13983
528.215	-59.13773
528.689	-52.11331
529.164	-36.07668
529.638	-67.16903
530.112	-53.12358
530.587	-110.2343
531.061	-65.15596
531.534	-55.13006
532.008	-77.18172
532.482	-77.17188
532.956	-75.18921
533.429	-40.09534
533.903	-61.1303
534.376	-34.07277
534.849	-102.23319
535.322	-29.06642
535.795	-59.14226
536.268	-91.21518
536.741	-40.09376
537.213	-39.08792
537.686	-29.07011
538.158	-78.1722
538.631	-87.20692
539.103	-89.19628
539.575	-31.06323
540.047	-81.17347
540.519	-46.1074
540.991	-71.17159
541.463	-95.22646
541.934	-73.16504
542.406	-82.19243
542.877	-92.20184
543.348	-28.06617
543.82	-80.19272
544.291	-63.14353
544.762	-69.16114
545.233	-39.09624
545.703	-74.16344
546.174	-92.21168
546.645	-97.23097
547.115	-72.17134
547.585	-71.16202
548.056	-80.19067
548.526	-48.11159
548.996	-105.24838
549.466	-37.08881
549.935	-83.19528
550.405	-68.14767
550.875	-48.11278
551.344	-88.2095
551.814	-44.10014
552.283	-32.06846
552.752	-39.08903
553.221	-40.08694
553.69	-69.15122
554.159	-63.15357
554.628	-33.07372
555.096	-41.10233
555.565	-9.01967
556.033	-49.11317
556.502	-33.07846
556.97	-33.07199
557.438	-65.14959
557.906	-33.07619
558.374	-22.0494
558.842	-68.15958
559.31	-62.13482
559.777	-59.14054
560.245	-53.1187
560.712	9.02031
561.18	-7.0151
561.647	-16.03472
562.114	-43.09599
562.581	-45.10736
563.048	-6.0132
563.514	-12.02873
563.981	-62.13665
564.448	-12.02615
564.914	31.06903
565.381	8.01773
565.847	67.15184
566.313	67.14999
566.779	115.24639
567.245	127.2856
567.711	92.21092
568.176	101.21817
568.642	85.2065
569.108	139.32766
569.573	123.27354
570.038	137.2685
570.504	183.38648
570.969	161.38188
571.434	183.38038
571.899	207.46454
572.363	164.34841
572.828	201.4299
573.293	248.52869
573.757	200.42711
574.222	249.51433
574.686	236.50005
575.15	206.44983
575.614	209.4443
576.078	224.49307
576.542	256.53151
577.006	225.46559
577.469	277.63258
577.933	169.35316
578.396	259.56712
578.86	244.53484
579.323	237.52683
579.786	274.5417
580.249	242.51142
580.712	239.54185
581.175	218.50537
581.637	246.51759
582.1	160.32597
582.563	204.40028
583.025	205.46798
583.487	150.2857
583.95	178.36016
584.412	183.35475
584.874	179.40501
585.336	153.34491
585.797	129.26143
586.259	119.2619
586.721	139.31271
587.182	111.241
587.643	133.28434
588.105	160.36519
588.566	84.16716
589.027	92.21328
589.488	95.2089
589.949	124.28736
590.41	158.29171
590.87	68.14761
591.331	128.2597
591.791	57.12629
592.252	123.27263
592.712	44.10241
593.172	52.11221
593.632	75.15673
594.092	47.10087
594.552	78.16122
595.011	33.07327
595.471	32.06846
595.931	25.05354
596.39	18.04165
596.849	63.14179
597.308	76.15617
597.768	63.15632
598.227	48.11146
598.685	22.04863
599.144	22.05025
599.603	102.23272
600.062	55.11238
600.52	34.07311
600.978	51.11727
601.437	48.10571
601.895	56.11482
602.353	86.18294
602.811	70.15046
603.269	92.21244
603.727	32.07454
604.184	-21.04657
604.642	83.19581
605.099	53.11699
605.557	110.25724
606.014	82.16858
606.471	35.08465
606.928	25.05224
607.385	98.23474
607.842	100.22179
608.299	109.2424
608.755	49.11362
609.212	96.20439
609.668	102.22019
610.125	124.28314
610.581	87.19468
611.037	118.2556
611.493	117.26084
611.949	148.34011
612.405	122.23282
612.861	121.26764
613.316	158.3612
613.772	89.19274
614.227	140.31632
614.683	92.18419
615.138	99.22099
615.593	118.26378
616.048	130.28123
616.503	119.27768
616.958	139.33566
617.412	99.22391
617.867	114.24303
618.321	136.25954
618.776	188.39208
619.23	130.28821
619.684	37.079
620.138	114.24863
620.592	87.20301
621.046	139.30655
621.5	50.1167
621.954	124.2609
622.407	93.19512
622.861	114.26533
623.314	60.12925
623.768	77.17209
624.221	117.21694
624.674	139.30925
625.127	30.06709
625.58	103.22297
626.033	103.21352
626.485	71.16496
626.938	96.21832
627.39	57.12529
627.843	83.18251
628.295	33.0726
628.747	3.00683
629.199	65.14167
629.651	68.15126
630.103	65.14383
630.555	51.10378
631.006	68.15176
631.458	55.12541
631.909	43.09281
632.361	39.08767
632.812	72.16102
633.263	34.07069
633.714	69.14112
634.165	53.12372
634.616	30.06861
635.067	75.15867
635.518	42.09629
635.968	83.15728
636.419	24.05034
636.869	39.09
637.319	-4.00889
637.769	-36.07801
638.219	40.09041
638.669	-37.08529
639.119	-3.00714
639.569	22.05157
640.019	24.05312
640.468	-44.096
640.918	-11.02564
641.367	-62.1355
641.816	8.01731
642.265	34.07679
642.714	-7.01567
643.163	-30.06673
643.612	-49.1156
644.061	-52.1069
644.51	-3.00665
644.958	39.0837
645.406	-20.04662
645.855	-8.01905
646.303	30.06709
646.751	-2.00444
647.199	36.07825
647.647	33.07403
648.095	-9.02007
648.543	5.00973
648.99	-55.12849
649.438	11.02501
649.885	55.13086
650.333	34.06284
650.78	27.06355
651.227	27.06459
651.674	-33.07351
652.121	-41.09695
652.568	8.01898
653.015	5.0123
653.461	7.01633
653.908	9.02024
654.354	45.1041
654.801	30.06869
655.247	19.03985
655.693	11.02816
656.139	-7.01622
656.585	16.03752
657.031	41.09533
657.477	7.01463
657.922	55.12394
658.368	19.04505
658.813	30.06698
659.259	-6.01416
659.704	43.09836
660.149	21.04738
660.594	53.12099
661.039	3.00664
661.484	17.03893
661.929	9.02043
662.373	27.06724
662.818	24.05788
663.262	19.04468
663.707	20.04956
664.151	27.06422
664.595	5.01178
665.039	-33.07993
665.483	63.15723
665.927	3.00679
666.371	72.16374
666.814	-5.01159
667.258	-15.03493
667.701	-18.03691
668.145	6.01438
668.588	16.03857
669.031	2.00459
669.474	18.04257
669.917	33.07064
670.36	-31.07523
670.803	18.04185
671.245	7.01434
671.688	12.0285
672.13	-24.05252
672.573	51.12543
673.015	30.07049
673.457	42.0888
673.899	0
674.341	65.15251
674.783	6.01414
675.225	29.06881
675.666	28.06697
676.108	1.00211
676.549	45.10252
676.991	19.04032
677.432	-21.04112
677.873	43.09729
678.314	44.10136
678.755	-10.02382
679.196	21.04647
679.637	81.18968
680.078	17.03825
680.518	28.06295
680.959	7.01637
681.399	15.03618
681.839	43.1018
682.28	31.07427
682.72	37.08177
683.16	29.07014
683.6	67.14485
684.039	40.07938
684.479	49.11753
684.919	39.08835
685.358	16.03937
685.798	34.08692
686.237	2.00465
686.676	55.12267
687.115	12.02727
687.554	9.02043
687.993	21.04443
688.432	51.11342
688.871	88.19168
689.309	57.13081
689.748	115.22645
690.186	-32.07348
690.625	42.09521
691.063	47.10868
691.501	31.07345
691.939	36.08676
692.377	30.07043
692.815	50.11559
693.253	100.23036
693.69	70.14904
694.128	99.2331
694.565	40.09207
695.003	-22.05416
695.44	39.08817
695.877	40.09056
696.314	19.03893
696.751	41.08807
697.188	26.05721
697.625	50.10724
698.061	73.17021
698.498	32.07301
698.934	99.22901
699.371	40.09104
699.807	49.11092
700.243	36.08286
700.679	38.08133
701.115	12.0266
701.551	98.21826
701.987	101.21331
702.422	89.20408
702.858	88.20248
703.294	70.14994
703.729	85.19811
704.164	37.08556
704.599	82.17383
705.035	91.19429
705.47	76.17863
705.904	66.14924
706.339	18.03951
706.774	23.05168
707.209	32.07074
707.643	67.15407
708.078	65.15114
708.512	70.16939
708.946	78.17645
709.38	66.14937
709.814	4.00871
710.248	33.07646
710.682	125.28513
711.116	88.20458
711.549	103.25566
711.983	95.20864
712.416	69.15377
712.85	79.18868
713.283	82.18429
713.716	91.21834
714.149	43.09749
714.582	20.04279
715.015	84.19782
715.448	58.1384
715.881	64.13045
716.313	76.17102
716.746	68.15264
717.178	61.14173
717.61	66.16001
718.043	64.15195
718.475	60.13904
718.907	136.32289
719.339	124.27009
719.77	88.2011
720.202	46.11123
720.634	81.18871
721.065	72.16142
721.497	57.13233
721.928	53.1262
722.359	95.22281
722.79	109.24964
723.221	94.22593
723.652	105.25691
724.083	53.11473
724.514	84.18133
724.945	98.22169
725.375	70.15635
725.806	82.19371
726.236	19.04649
726.666	139.31092
727.096	34.0796
727.526	54.13318
727.956	76.16456
728.386	71.16607
728.816	38.09317
729.246	97.22421
729.675	69.1619
730.105	87.20429
730.534	62.13654
730.964	65.15721
731.393	90.21195
731.822	68.16641
732.251	70.17226
732.68	82.18157
733.109	71.16737
733.537	39.09115
733.966	45.10682
734.395	85.18589
734.823	87.18398
735.251	34.07885
735.68	64.15049
736.108	69.16807
736.536	67.14931
736.964	115.2567
737.392	63.15133
737.82	64.14778
738.247	38.08638
738.675	17.03814
739.102	45.10912
739.53	51.1258
739.957	26.0645
740.384	52.11984
740.811	24.05843
741.238	-9.02102
741.665	80.17758
742.092	26.05798
742.519	64.15429
742.945	63.14382
743.372	51.12134
743.798	59.145
744.225	56.12725
744.651	84.20365
745.077	11.02614
745.503	72.16738
745.929	13.03
746.355	38.08911
746.781	54.12964
747.207	86.19574
747.632	4.00942
748.058	76.17919
748.483	34.07462
748.908	31.07401
749.334	58.13579
749.759	88.19948
750.184	94.21524
750.609	32.07516
751.033	50.11108
751.458	47.09874
751.883	47.11079
752.307	0
752.732	36.08662
753.156	83.20021
753.58	28.06249
754.005	29.07019
754.429	11.02469
754.853	53.12804
755.277	55.1246
755.7	7.01662
756.124	38.0913
756.548	50.11403
756.971	3.00695
757.394	79.1953
757.818	63.15666
758.241	24.05847
758.664	2.00487
759.087	-22.04741
759.51	37.08841
759.933	74.17149
760.356	8.01974
760.778	26.06192
761.201	18.04194
761.623	51.11713
762.046	80.17847
762.468	71.16019
762.89	11.0259
763.312	11.0256
763.734	28.06499
764.156	46.10875
764.578	-9.01952
765	-6.014
765.421	39.09726
765.843	29.07387
766.264	5.01152
766.686	29.07024
767.107	29.06796
767.528	-9.02222
767.949	53.13055
768.37	51.12022
768.791	14.03226
769.212	25.0616
769.632	51.11493
770.053	-12.03092
770.473	-1.00234
770.894	8.01913
771.314	39.08781
771.734	45.10091
772.154	-10.02484
772.575	-30.06598
772.994	-45.09954
773.414	10.0228
773.834	-33.07963
774.254	16.03734
774.673	33.07691
775.093	43.1027
775.512	20.0475
775.931	29.07077
776.351	28.06727
776.77	31.07359
777.189	12.02737
777.607	-1.00249
778.026	-12.02869
778.445	47.11521
778.864	50.12404
779.282	17.03934
779.701	-27.06557
780.119	50.12277
780.537	1.00244
780.955	35.08513
781.373	19.04528
781.791	37.07965
782.209	27.0587
782.627	3.00765
783.045	-49.10838
783.462	30.0744
783.88	-3.00756
784.297	34.08138
784.715	9.02257
785.132	38.08803
785.549	-2.00487
785.966	-23.05584
786.383	31.07342
786.8	-7.0153
787.217	56.12575
787.633	25.06055
788.05	30.06634
788.466	12.02652
788.883	8.02001
789.299	62.14402
789.715	-5.01163
790.131	44.10459
790.547	-10.02396
790.963	3.00717
791.379	14.03424
791.795	13.02833
792.21	15.03351
792.626	42.09598
793.041	2.00474
793.457	48.11339
793.872	20.04499
794.287	-29.06772
794.702	19.04434
795.117	26.06213
795.532	4.00977
795.947	-70.15713
796.362	40.08975
796.776	-70.15292
797.191	2.00467
797.605	66.14991
798.02	55.1289
798.434	17.03554
798.848	40.09361
799.262	-2.00484
799.676	35.08122
800.09	-21.04908
800.504	15.03445
800.918	16.03553
801.331	9.02258
801.745	-48.10446
802.158	-9.02161
802.572	13.03001
802.985	-27.06209
803.398	6.01351
803.811	27.06589
804.224	17.0404
804.637	-65.15042
805.05	-13.02844
805.462	-5.01167
805.875	30.07621
806.288	-18.04188
806.7	-8.0194
807.112	-5.01111
807.525	-65.15317
807.937	-13.031
808.349	12.02883
808.761	2.00469
809.173	-1.00232
809.584	-11.02567
809.996	26.06159
810.408	-9.02265
810.819	-1.00227
811.231	-7.01792
811.642	-23.05434
812.053	13.03017
812.464	-15.0343
812.875	-21.05169
813.286	36.08934
813.697	29.06315
814.108	-30.06994
814.519	30.06226
814.929	19.04574
815.34	9.02099
815.75	-4.00984
816.16	-22.05205
816.571	74.18398
816.981	9.02014
817.391	-17.0394
817.801	19.04559
818.211	43.0965
818.62	0
819.03	-61.14245
819.44	-15.03753
819.849	9.02167
820.259	2.00488
820.668	13.03081
821.077	58.13993
821.486	-10.02272
821.895	-12.02808
822.304	38.09677
822.713	5.01121
823.122	-6.01432
823.531	-15.034
823.939	20.04644
824.348	7.01621
824.756	16.03794
825.164	-43.10298
825.573	3.00722
825.981	8.01887
826.389	-1.00235
826.797	-12.02883
827.205	-6.01329
827.612	-7.0164
828.02	24.05425
828.428	26.06365
828.835	-14.03577
829.243	18.0412
829.65	58.13887
830.057	-26.06063
830.464	31.07202
830.871	24.05454
831.278	30.06961
831.685	-28.05858
832.092	-64.14943
832.499	33.06813
832.905	54.12989
833.312	20.04332
833.718	2.00474
834.124	-34.07299
834.531	16.03857
834.937	-37.09127
835.343	10.02299
835.749	19.04155
836.155	10.0253
836.561	-23.05397
836.966	12.02815
837.372	39.09457
837.777	-32.07685
838.183	14.0293
838.588	5.01195
838.993	-45.10397
839.399	-20.04684
839.804	20.04765
840.209	16.03918
840.613	-44.09335
841.018	-49.11869
841.423	48.11734
841.828	51.12446
842.232	-18.04181
842.637	3.00675
843.041	37.09194
843.445	-1.0024
843.849	44.10583
844.253	9.02019
844.657	-14.03398
845.061	31.06734
845.465	33.07731
845.869	-68.14969
846.272	21.0492
846.676	15.03413
847.079	3.00736
847.483	41.09639
847.886	3.00684
848.289	38.09841
848.692	-44.10708
849.095	7.01588
849.498	31.07464
849.901	24.05199
850.304	-26.05882
850.707	-28.06862
851.109	4.00969
851.512	6.0141
851.914	23.05661
852.316	19.04604
852.718	-9.02281
853.121	-53.12377
853.523	-16.03549
853.925	16.04056
854.326	-15.0361
854.728	15.0375
855.13	2.00506
855.531	10.02272
855.933	0
856.334	35.08423
856.736	-15.03242
857.137	25.05534
857.538	18.04376
857.939	45.10645
858.34	-16.0369
858.741	11.02755
859.142	-36.0823
859.542	16.0407
859.943	-39.09283
860.343	17.04067
860.744	-63.1455
861.144	6.01397
861.544	41.09609
861.945	32.07883
862.345	-9.021
862.745	17.04054
863.145	-26.05858
863.544	-7.01702
863.944	10.02225
864.344	-25.05898
864.743	-28.06532
865.143	-8.0197
865.542	44.09738
865.941	41.09804
866.34	-13.0294
866.74	39.10144
867.139	17.03897
867.537	22.05396
867.936	-27.06164
868.335	24.05867
868.734	50.12268
869.132	43.09479
869.531	18.04092
869.929	-4.00874
870.327	33.07522
870.726	56.13183
871.124	9.01988
871.522	56.13582
871.92	26.0608
872.318	56.13096
872.715	65.15114
873.113	-4.00931
873.511	-17.04088
873.908	11.02701
874.306	41.0974
874.703	3.00709
875.1	7.01691
875.497	-23.05185
875.894	64.15213
876.291	5.01167
876.688	-7.01724
877.085	2.00451
877.482	-15.03602
877.878	-12.02759
878.275	26.06315
878.671	10.02051
879.068	30.06817
879.464	-8.01823
879.86	16.03611
880.256	-56.13019
880.652	41.1008
881.048	60.1402
881.444	33.07415
881.84	48.1169
882.236	78.18598
882.631	36.08442
883.027	-18.04107
883.422	-27.06616
883.817	7.01702
884.213	-17.04189
884.608	-26.06183
885.003	15.03473
885.398	67.16058
885.793	-13.03126
886.188	37.08918
886.582	5.01202
886.977	-10.02219
887.371	3.00718
887.766	46.11186
888.16	14.03296
888.554	-65.1509
888.949	-86.20277
889.343	11.02537
889.737	-5.01314
890.131	67.16216
890.525	-15.03643
890.918	-5.01217
891.312	92.20761
891.706	-12.03025
892.099	-13.03136
892.492	46.09158
892.886	14.03246
893.279	18.04416
893.672	15.0367
894.065	-51.12167
894.458	-34.08119
894.851	-43.09979
895.244	-9.02229
895.637	-51.11568
896.029	-4.00934
896.422	5.01161
896.814	8.01898
897.206	4.0091
897.599	-5.01155
897.991	30.06878
898.383	-25.05608
898.775	38.08027
899.167	-14.0314
899.559	9.02164
899.951	-3.00669
900.342	-3.00721
900.734	-19.04587
901.125	-23.05721
901.517	-45.10591
901.908	27.06037
902.299	48.11278
902.69	-11.02445
903.082	3.00683
903.473	-36.08273
903.863	12.02904
904.254	12.02635
904.645	-21.04922
905.036	-3.007
905.426	-17.03642
905.817	39.09061
906.207	-6.01393
906.597	-7.01555
906.987	-10.02454
907.378	32.07758
907.768	7.01769
908.158	11.02517
908.547	5.01247
908.937	8.01955
909.327	30.06831
909.717	-14.03361
910.106	-26.05949
910.495	-12.02824
910.885	37.08891
911.274	13.03107
911.663	10.02399
912.052	4.00936
912.441	-2.00488
912.83	26.05579
913.219	-13.03235
913.608	57.13254
913.997	-22.05348
914.385	-47.105
914.774	42.09687
915.162	15.03375
915.55	38.08565
915.939	-33.0796
916.327	31.07345
916.715	10.02438
917.103	39.08946
917.491	55.12708
917.878	67.15696
918.266	-11.02723
918.654	-21.05111
919.041	12.03044
919.429	-7.01575
919.816	-28.06697
920.203	8.01838
920.591	-27.0636
920.978	-46.10618
921.365	16.04008
921.752	14.0317
922.139	51.10251
922.525	8.01834
922.912	35.08022
923.299	1.00238
923.685	15.03777
924.072	9.01962
924.458	3.0071
924.844	8.01905
925.231	-15.03328
925.617	-20.04864
926.003	15.03652
926.389	-19.04623
926.774	9.02182
927.16	-33.07785
927.546	69.17114
927.931	-20.04699
928.317	-44.09482
928.702	-14.0309
929.088	-74.1659
929.473	-11.02664
929.858	36.08485
930.243	17.03875
930.628	-81.18782
931.013	-29.06889
931.398	29.0624
931.783	-15.03756
932.167	-15.03482
932.552	21.05031
932.937	14.03268
933.321	-5.01192
933.705	-8.01933
934.09	-18.04251
934.474	-14.03119
934.858	5.01251
935.242	-27.06052
935.626	48.11738
936.009	-28.07171
936.393	29.07064
936.777	12.02946
937.16	-33.08284
937.544	14.03104
937.927	-1.00245
938.311	-16.03662
938.694	5.01265
939.077	-39.08889
939.46	-13.03
939.843	51.0974
940.226	-11.02694
940.609	-8.01754
940.991	-8.01947
941.374	0
941.757	28.06499
942.139	-30.06354
942.522	-17.03738
942.904	61.13903
943.286	-21.05033
943.668	-22.05456
944.05	-7.01641
944.432	-1.00235
944.814	-25.05825
945.196	8.01899
945.578	49.1111
945.959	1.00224
946.341	-2.00458
946.722	-26.05738
947.104	33.07458
947.485	-73.16073
947.866	83.20127
948.247	-17.0409
948.628	-9.02063
949.009	18.0441
949.39	-22.05177
949.771	-42.09195
950.152	10.02325
950.532	-60.14465
950.913	3.00686
951.293	-12.03157
951.674	0
952.054	-19.04538
952.434	-44.10423
952.814	5.01121
953.194	4.00998
953.574	-50.11633
953.954	-13.02897
954.334	4.00942
954.714	2.00469
955.093	-59.13556
955.473	32.07703
955.853	-4.00993
956.232	-13.03447
956.611	-40.0906
956.99	5.01217
957.37	48.11677
957.749	-14.03158
958.128	16.03866
958.506	-30.07513
958.885	-16.03881
959.264	-11.02615
959.643	-15.03161
960.021	6.0141
960.4	-5.01067
960.778	-40.092
961.156	-51.12256
961.535	-8.01761
961.913	-23.05062
962.291	-2.00496
962.669	10.02422
963.047	12.0296
963.424	12.02928
963.802	20.04642
964.18	15.03591
964.557	19.0411
964.935	16.03559
965.312	5.01264
965.69	18.04264
966.067	-3.00684
966.444	-2.00469
966.821	31.07622
967.198	3.0068
967.575	2.00464
967.952	-9.01984
968.329	-18.04156
968.705	-35.06931
969.082	-14.03441
969.458	10.02326
969.835	40.09347
970.211	54.13205
970.587	-27.06347
970.963	32.07849
971.339	-9.02264
971.715	-13.03104
972.091	17.04003
972.467	-44.1033
972.843	-28.06737
973.219	14.03095
973.594	-24.05987
973.97	5.01111
974.345	13.02953
974.721	41.09368
975.096	-2.00463
975.471	-7.01564
975.846	-36.08157
976.221	0
976.596	6.01359
976.971	-16.03723
977.346	54.11707
977.72	4.00976
978.095	-8.0198
978.469	16.03589
978.844	-3.00714
979.218	-11.02519
979.593	-41.09232
979.967	12.02746
980.341	-26.0567
980.715	20.04811
981.089	15.03565
981.463	-11.02363
981.837	-12.02791
982.21	-23.04924
982.584	4.00918
982.957	32.07659
983.331	-39.08637
983.704	37.08709
984.078	27.06357
984.451	9.02103
984.824	-6.01396
985.197	-12.02757
985.57	-10.0237
985.943	-39.08982
986.316	11.02516
986.688	49.11064
987.061	4.00882
987.434	-9.02253
987.806	-5.01136
988.179	0
988.551	9.02155
988.923	10.0233
989.295	21.04943
989.667	-17.03919
990.039	-7.01669
990.411	55.11896
990.783	10.02144
991.155	-13.03008
991.527	-15.03417
991.898	5.01187
992.27	21.04935
992.641	4.00951
993.012	33.07174
993.384	7.01586
993.755	-6.01463
994.126	5.01144
994.497	-34.07979
994.868	-27.05885
995.239	14.03199
995.61	0
995.98	-10.02288
996.351	-13.0312
996.722	12.02668
997.092	-33.07421
997.462	-3.0068
997.833	-8.01774
998.203	13.02952
998.573	72.17108
998.943	-9.01995
999.313	-6.0137
999.683	-12.02749
1000.053	-20.04316
1000.423	-12.02772
1000.792	-37.09147
1001.162	19.04441
1001.531	22.05211
1001.901	21.04975
1002.27	20.04127
1002.639	16.03932
1003.009	21.0474
1003.378	21.05169
1003.747	5.01114
1004.116	-3.0069
1004.485	-42.09552
1004.853	-12.02885
1005.222	32.0775
1005.591	13.02916
1005.959	-12.02557
1006.328	26.05497
1006.696	-39.09
1007.064	31.07413
1007.433	-14.0331
1007.801	-16.03699
1008.169	10.02385
1008.537	7.01443
1008.905	50.11094
1009.273	22.05104
1009.64	59.13502
1010.008	11.02471
1010.375	-9.02036
1010.743	61.12951
1011.11	-33.07372
1011.478	-36.08491
1011.845	-35.07819
1012.212	31.06605
1012.579	3.00696
1012.946	58.12816
1013.313	-9.01986
1013.68	-18.03787
1014.047	39.08925
1014.414	19.04269
1014.78	-7.01664
1015.147	-5.01127
1015.513	-20.04574
1015.88	-35.08449
1016.246	48.11119
1016.612	14.0297
1016.978	-10.02339
1017.344	6.01419
1017.71	-10.02253
1018.076	9.01977
1018.442	10.02425
1018.808	-4.00954
1019.174	-6.01442
1019.539	10.02088
1019.905	-1.00222
1020.27	-15.03555
1020.636	-28.0628
1021.001	-31.06974
1021.366	0
1021.731	2.00489
1022.096	-21.05094
1022.461	13.02898
1022.826	-16.03662
1023.191	-1.00251
1023.556	-23.05096
1023.92	0
1024.285	52.12017
1024.649	-19.04376
1025.014	16.03724
1025.378	-19.04571
1025.742	-11.02601
1026.107	51.10667
1026.471	14.0306
1026.835	-23.05426
1027.199	16.03703
1027.562	-20.04373
1027.926	17.03919
1028.29	39.09361
1028.654	-15.03253
1029.017	23.05333
1029.381	9.02054
1029.744	24.05856
1030.107	10.02211
1030.471	-8.01788
1030.834	14.0297
1031.197	-15.03365
1031.56	8.01794
1031.923	36.09009
1032.286	-3.00647
1032.648	32.07215
1033.011	9.01947
1033.374	58.12783
1033.736	3.00767
1034.099	26.05994
1034.461	12.02929
1034.823	5.01188
1035.185	1.00239
1035.548	11.02519
1035.91	11.02511
1036.272	36.07651
1036.634	-15.03442
1036.995	-8.01782
1037.357	38.08827
1037.719	55.12647
1038.08	23.05123
1038.442	-9.02026
1038.803	28.06373
1039.165	7.01694
1039.526	-39.08957
1039.887	7.01595
1040.248	-40.09416
1040.609	5.01163
1040.97	-19.04374
1041.331	2.00481
1041.692	21.0469
1042.053	28.05928
1042.413	18.03907
1042.774	-40.09167
1043.134	24.05325
1043.495	39.09404
1043.855	10.02288
1044.215	7.01642
1044.576	17.03862
1044.936	-51.10847
1045.296	30.07082
1045.656	2.00469
1046.016	65.14719
1046.375	15.03434
1046.735	21.04519
1047.095	44.09832
1047.454	1.00193
1047.814	15.03408
1048.173	49.11006
1048.533	14.03038
1048.892	-3.00701
1049.251	35.08244
1049.61	16.03759
1049.969	20.04502
1050.328	0
1050.687	-20.04627
1051.046	8.01841
1051.405	21.04952
1051.763	10.0218
1052.122	58.1385
1052.48	-47.10937
1052.839	0
1053.197	22.0491
1053.555	26.05398
1053.914	48.10969
1054.272	-6.01367
1054.63	13.03041
1054.988	37.08348
1055.345	42.08331
1055.703	-14.03165
1056.061	-6.01477
1056.419	25.06262
1056.776	-22.05015
1057.134	28.06179
1057.491	-29.0686
1057.848	36.08429
1058.206	-12.02698
1058.563	26.05352
1058.92	39.08341
1059.277	-22.05165
1059.634	-23.05032
1059.991	35.07855
1060.348	-41.08796
1060.704	15.03417
1061.061	-1.00215
1061.418	18.04213
1061.774	26.06114
1062.131	-9.02305
1062.487	25.0553
1062.843	18.04249
1063.199	-4.00946
1063.555	-36.07818
1063.911	-32.07706
1064.267	46.0874
1064.623	8.01885
1064.979	11.02423
1065.335	31.0696
1065.691	-30.06845
1066.046	19.03937
1066.402	47.10092
1066.757	2.00481
1067.112	14.03225
1067.468	29.06575
1067.823	54.12181
1068.178	-12.02731
1068.533	-33.07512
1068.888	-17.03799
1069.243	-3.00701
1069.598	-25.05811
1069.952	12.02584
1070.307	-3.00713
1070.662	-55.12465
1071.016	23.04902
1071.371	-36.07711
1071.725	17.03815
1072.079	-18.04084
1072.434	50.11486
1072.788	57.12692
1073.142	-12.0278
1073.496	8.01811
1073.85	2.00436
1074.203	2.00459
1074.557	4.01024
1074.911	42.09366
1075.265	11.02416
1075.618	-18.04125
1075.971	46.10334
1076.325	7.01711
1076.678	-4.00877
1077.031	24.05139
1077.385	-31.0636
1077.738	16.03349
1078.091	-54.11707
1078.444	34.07403
1078.796	20.04716
1079.149	-41.09695
1079.502	-22.04971
1079.855	-17.03754
1080.207	14.03252
1080.56	-52.12938
1080.912	14.03224
1081.264	-10.02291
1081.617	-3.00696
1081.969	6.01467
1082.321	22.0508
1082.673	42.09152
1083.025	3.00678
1083.377	308.65431
1083.728	-9.01985
1084.08	26.06216
1084.432	-17.03857
1084.783	29.06366
1085.135	21.0501
1085.486	27.05927
1085.838	32.07377
1086.189	34.07914
1086.54	38.08498
1086.891	10.02414
1087.242	-56.12916
1087.593	2.00458
1087.944	21.04421
1088.295	-7.01478
1088.646	-2.00457
1088.996	-54.12435
1089.347	19.04451
1089.698	20.04524
1090.048	-14.0343
1090.398	-33.07217
1090.749	-48.10836
1091.099	-17.04124
1091.449	19.04528
1091.799	28.0662
1092.149	24.05672
1092.499	-24.05546
1092.849	9.02196
1093.199	14.03324
1093.548	-21.04796
1093.898	-20.04747
1094.248	-25.06085
1094.597	38.09441
1094.947	18.04605
1095.296	-40.09387
1095.645	-23.05676
1095.994	1.00226
1096.343	-21.04995
1096.692	-33.0845
1097.041	20.05295
1097.39	-31.07242
1097.739	-18.04469
1098.088	-50.12819
1098.437	31.0793
1098.785	25.06435
1099.134	8.02024
1099.482	15.03984
1099.83	4.00998
1100.179	-7.0178
1100.527	16.04099
1100.875	-6.01538
1101.223	-18.04587
1101.571	-38.10246
1101.919	18.04628
1102.267	7.0192
1102.615	14.04495
1102.962	4.01283
1103.31	13.04174
1103.658	6.01924
