Data from N3 R9 sample 12_Subt2__4__14-47-11-573.txt Node

Date: Mon Sep 22 14:47:11 PDT 2025
User: uwsun
Spectrometer: HDX01956
Trigger mode: 0
Integration Time (sec): 5.000000E-1
Scans to average: 1
Nonlinearity correction enabled: true
Boxcar width: 0
Storing dark spectrum: false
XAxis mode: Wavelengths
Number of Pixels in Spectrum: 2068
>>>>>Begin Spectral Data<<<<<
194.03	13.03776
194.578	6.01949
195.127	10.03209
195.676	0
196.225	1.00266
196.773	-23.06385
197.321	60.16685
197.87	51.13137
198.418	57.14764
198.966	148.38789
199.513	23.05894
200.061	84.21535
200.609	71.18833
201.156	98.21699
201.704	78.1992
202.251	49.13162
202.798	72.18922
203.345	61.15125
203.892	89.22565
204.438	15.03565
204.985	47.1135
205.532	86.22846
206.078	58.14315
206.624	99.24645
207.17	98.22692
207.716	90.22205
208.262	89.17657
208.808	84.21188
209.354	117.28818
209.899	136.34573
210.445	63.16053
210.99	86.21108
211.535	12.02845
212.08	136.31941
212.625	86.2163
213.17	51.12825
213.715	26.05927
214.259	104.24282
214.804	75.18603
215.348	54.12643
215.892	109.26004
216.436	98.22512
216.98	85.18872
217.524	115.27319
218.068	20.05007
218.612	64.15993
219.155	87.20564
219.698	69.16272
220.242	33.08203
220.785	109.25595
221.328	96.23833
221.871	33.08215
222.414	19.04716
222.956	56.1348
223.499	87.19733
224.041	70.16203
224.583	108.22924
225.126	53.11635
225.668	60.14547
226.21	68.17115
226.751	26.0575
227.293	81.18335
227.835	61.14886
228.376	60.13678
228.918	91.22801
229.459	76.18957
230	55.13046
230.541	44.10144
231.082	27.06535
231.622	79.17948
232.163	67.16271
232.704	32.07953
233.244	47.11658
233.784	84.20319
234.324	22.04831
234.864	6.01362
235.404	111.26156
235.944	89.21216
236.484	60.14656
237.023	81.19035
237.563	19.04413
238.102	59.13784
238.641	61.15362
239.18	80.18811
239.719	4.00999
240.258	64.14212
240.797	89.21216
241.335	61.14853
241.874	51.09721
242.412	39.09343
242.95	54.13087
243.488	56.12658
244.026	109.25245
244.564	97.19784
245.102	81.18171
245.64	49.11681
246.177	24.0544
246.715	64.15172
247.252	73.16612
247.789	116.2102
248.326	62.14981
248.863	93.20244
249.4	67.14956
249.936	57.11716
250.473	43.10034
251.009	74.16911
251.546	65.14239
252.082	125.27233
252.618	76.16926
253.154	67.1607
253.69	86.19169
254.226	83.19718
254.761	66.14711
255.297	37.08099
255.832	57.1363
256.367	31.07333
256.903	51.11153
257.438	96.22643
257.972	85.1862
258.507	103.23855
259.042	119.25914
259.576	19.04129
260.111	37.08501
260.645	80.1704
261.179	85.19811
261.713	126.27945
262.247	107.24722
262.781	107.22518
263.315	101.24703
263.849	42.10473
264.382	63.144
264.915	89.20768
265.449	69.1702
265.982	73.16544
266.515	72.17443
267.048	-28.05938
267.58	82.17565
268.113	15.03236
268.646	96.23659
269.178	123.27898
269.71	91.19632
270.243	37.08341
270.775	63.15888
271.307	66.15749
271.838	122.28294
272.37	133.32638
272.902	96.21567
273.433	75.16312
273.965	58.1402
274.496	119.29365
275.027	105.26015
275.558	85.20464
276.089	94.23617
276.62	128.32436
277.15	91.22224
277.681	79.16977
278.211	113.27412
278.741	120.26371
279.272	101.23085
279.802	82.20565
280.332	123.2869
280.861	79.18854
281.391	74.16727
281.921	94.22421
282.45	118.29273
282.98	82.21265
283.509	113.25443
284.038	45.10178
284.567	122.27913
285.096	126.30203
285.625	71.16006
286.153	97.22697
286.682	112.25615
287.21	85.20309
287.739	47.11092
288.267	108.26115
288.795	97.25479
289.323	58.13558
289.851	79.1826
290.378	119.26629
290.906	121.2955
291.433	79.19573
291.961	82.18535
292.488	80.19868
293.015	51.11971
293.542	86.21553
294.069	99.24376
294.596	111.27179
295.122	94.22034
295.649	86.18843
296.175	130.31091
296.702	87.20644
297.228	154.37083
297.754	38.084
298.28	104.23709
298.806	88.21062
299.332	162.36244
299.857	127.28771
300.383	72.17927
300.908	79.19286
301.433	147.35485
301.958	113.25994
302.483	133.3294
303.008	85.21013
303.533	103.26494
304.058	94.21784
304.582	149.34672
305.107	99.25696
305.631	85.19037
306.155	153.35308
306.679	203.47275
307.203	135.30819
307.727	108.25286
308.251	120.29148
308.775	134.3163
309.298	66.15791
309.822	124.31019
310.345	137.32445
310.868	112.26878
311.391	117.28265
311.914	124.30986
312.437	118.26498
312.96	120.27952
313.482	131.30784
314.005	129.32183
314.527	117.30576
315.049	112.27977
315.571	147.32569
316.093	109.2657
316.615	140.33648
317.137	124.2702
317.659	150.36024
318.18	154.36577
318.702	145.33222
319.223	132.2688
319.744	166.36817
320.265	187.45003
320.786	140.34438
321.307	133.32674
321.828	135.30197
322.348	109.25335
322.869	115.27056
323.389	395.69451
323.909	162.36348
324.43	166.38788
324.95	240.5418
325.47	180.43803
325.989	145.33928
326.509	154.33842
327.029	189.41926
327.548	236.52667
328.067	184.43651
328.587	173.42202
329.106	190.4228
329.625	174.43982
330.144	165.3744
330.662	205.47496
331.181	184.41708
331.7	191.43479
332.218	208.44015
332.736	180.41249
333.255	212.48055
333.773	264.60933
334.291	218.5295
334.808	224.48955
335.326	194.43026
335.844	286.64905
336.361	266.65766
336.879	232.52181
337.396	294.68881
337.913	272.61378
338.43	230.50096
338.947	231.52988
339.464	292.61221
339.981	232.5391
340.497	267.64058
341.014	257.60932
341.53	231.50538
342.046	263.62811
342.562	274.65475
343.078	250.5692
343.594	285.6553
344.11	308.70804
344.626	281.67852
345.141	261.57463
345.657	301.65156
346.172	330.75951
346.687	364.79548
347.202	280.5982
347.717	347.80038
348.232	282.67257
348.747	342.75057
349.261	342.71196
349.776	325.73051
350.29	351.83693
350.805	317.74661
351.319	357.79189
351.833	261.56956
352.347	379.85012
352.861	324.71676
353.374	352.75755
353.888	410.93228
354.401	353.76867
354.915	312.66685
355.428	399.93639
355.941	360.79572
356.454	344.72982
356.967	365.80929
357.48	402.87443
357.993	363.83628
358.505	402.93366
359.018	401.90979
359.53	386.88801
360.042	441.91661
360.554	375.84874
361.066	358.82986
361.578	463.94046
362.09	366.81911
362.602	437.89979
363.113	435.94197
363.625	402.84281
364.136	400.8175
364.647	438.9701
365.158	504.08826
365.669	404.90264
366.18	432.95841
366.691	466.95928
367.201	396.88002
367.712	516.07611
368.222	443.93266
368.733	510.01833
369.243	485.99682
369.753	502.06448
370.263	496.08284
370.773	482.0868
371.282	440.95991
371.792	551.15407
372.301	546.20575
372.811	584.3871
373.32	575.11622
373.829	511.10363
374.338	607.21492
374.847	631.30383
375.356	675.43162
375.865	723.36405
376.373	702.4206
376.882	708.55743
377.39	679.44825
377.898	666.46312
378.407	722.40847
378.915	813.50646
379.423	856.72239
379.93	857.63867
380.438	857.75956
380.946	950.8356
381.453	916.83649
381.96	1029.00072
382.468	972.86027
382.975	1174.21387
383.482	1152.98168
383.989	1213.43275
384.495	1214.10748
385.002	1286.9698
385.509	1367.3738
386.015	1467.96607
386.521	1544.35807
387.028	1604.47509
387.534	1643.33079
388.04	1628.58105
388.546	1746.53399
389.051	1874.50447
389.557	2002.84211
390.063	2106.68465
390.568	2167.94521
391.073	2292.6891
391.578	2426.17829
392.084	2533.85056
392.589	2518.53236
393.093	2878.99874
393.598	3111.74404
394.103	3414.99101
394.607	3648.81855
395.112	3836.91564
395.616	4178.58139
396.12	4599.9654
396.624	4957.90317
397.128	5590.69516
397.632	6168.39148
398.136	6702.08455
398.639	7101.31077
399.143	8024.06478
399.646	9017.40272
400.15	9780.39422
400.653	10949.02819
401.156	12292.88097
401.659	14482.1855
402.162	17869.65366
402.664	23708.71076
403.167	34169.03733
403.67	56827.98653
404.172	52566.9044
404.674	31176.06428
405.176	3757.7064
405.678	27.69154
406.18	0
406.682	0
407.184	45159.96023
407.686	58897.86778
408.187	61455.21265
408.688	59267.77908
409.19	41010.1347
409.691	32733.44202
410.192	27699.41324
410.693	24184.30744
411.194	21526.71375
411.694	20234.22838
412.195	18603.56478
412.696	16853.90569
413.196	15717.92665
413.696	15196.65383
414.196	15236.16077
414.696	14929.22692
415.196	14166.98471
415.696	12764.53432
416.196	10346.38315
416.695	8000.84238
417.195	7010.35872
417.694	6580.58926
418.194	6263.71203
418.693	5780.24707
419.192	5659.48867
419.691	5499.54981
420.19	5457.81115
420.688	5269.01844
421.187	5002.17501
421.685	4703.98861
422.184	4164.35621
422.682	3592.23708
423.18	3170.80001
423.678	2848.84802
424.176	2664.7708
424.674	2457.63223
425.172	2368.92832
425.669	2246.19266
426.167	2128.7593
426.664	1938.64769
427.161	1761.58181
427.659	1626.63187
428.156	1496.10033
428.652	1402.57856
429.149	1374.42916
429.646	1240.99173
430.143	1239.23193
430.639	1124.03382
431.135	1071.10029
431.632	1063.88203
432.128	937.80052
432.624	947.98373
433.12	883.62343
433.616	845.4696
434.111	751.48974
434.607	781.56519
435.103	783.34069
435.598	731.20396
436.093	700.37583
436.588	656.23349
437.083	588.11897
437.578	604.19244
438.073	576.26043
438.568	507.08282
439.062	491.91731
439.557	484.00568
440.051	530.05295
440.546	508.04391
441.04	462.99381
441.534	429.98
442.028	402.85212
442.522	418.89763
443.015	425.82743
443.509	426.93095
444.002	429.93572
444.496	376.75067
444.989	433.94604
445.482	407.9204
445.975	376.77925
446.468	372.72269
446.961	394.75193
447.454	367.75533
447.947	369.78235
448.439	355.78024
448.931	284.58754
449.424	283.64811
449.916	323.70156
450.408	239.49456
450.9	329.73222
451.392	239.55482
451.884	229.47556
452.375	245.55816
452.867	263.53666
453.358	260.54343
453.849	257.49915
454.341	247.51248
454.832	230.45087
455.323	251.56489
455.814	296.6195
456.304	239.50342
456.795	235.49216
457.285	262.52696
457.776	215.4441
458.266	214.46829
458.756	266.59165
459.247	217.47656
459.737	176.38953
460.226	262.54616
460.716	182.39978
461.206	174.38768
461.695	152.35405
462.185	209.45551
462.674	194.41214
463.163	237.48624
463.653	177.34262
464.142	127.28548
464.63	153.34632
465.119	183.40054
465.608	149.32103
466.096	151.31036
466.585	154.32588
467.073	145.3242
467.561	164.36918
468.05	172.37782
468.538	94.21602
469.026	168.37741
469.513	193.38863
470.001	170.36729
470.489	146.32489
470.976	151.32617
471.463	94.21835
471.951	122.28552
472.438	126.2798
472.925	123.2749
473.412	126.29234
473.899	112.24095
474.385	84.19404
474.872	129.28914
475.359	87.20181
475.845	115.22453
476.331	130.2675
476.817	70.16273
477.303	185.40714
477.789	77.17777
478.275	94.22369
478.761	69.15822
479.247	104.21902
479.732	68.16282
480.218	101.25106
480.703	81.19368
481.188	50.10251
481.673	92.19988
482.158	91.18797
482.643	62.1502
483.128	-2.00441
483.612	101.22564
484.097	80.18532
484.581	67.14702
485.066	33.07613
485.55	36.07525
486.034	88.1814
486.518	74.16686
487.002	66.15736
487.486	41.09657
487.969	54.12801
488.453	117.28233
488.936	108.23404
489.42	51.10714
489.903	52.12669
490.386	56.12281
490.869	79.16399
491.352	38.09022
491.835	34.06725
492.318	45.09845
492.8	61.12023
493.283	65.15851
493.765	27.06459
494.247	9.02008
494.73	39.0828
495.212	-24.05555
495.694	6.01368
496.175	33.07661
496.657	42.0947
497.139	-1.00165
497.62	30.06905
498.102	62.14828
498.583	-15.0365
499.064	42.09067
499.545	51.11262
500.026	27.05867
500.507	7.01566
500.988	-18.04305
501.469	36.088
501.949	20.04776
502.43	25.05825
502.91	35.06957
503.39	-5.01205
503.87	10.02303
504.35	-71.16058
504.83	14.02998
505.31	-33.07785
505.79	-37.08671
506.269	-7.01574
506.749	35.07806
507.228	29.06556
507.707	-3.00646
508.187	-15.03431
508.666	-24.05773
509.145	-72.16361
509.623	-30.06834
510.102	-57.13306
510.581	-23.05329
511.059	-46.11224
511.538	-58.14415
512.016	-61.1401
512.494	7.01642
512.972	-69.15968
513.45	-11.02518
513.928	-45.10608
514.406	-64.15178
514.884	-59.14741
515.361	-55.12708
515.839	-26.05824
516.316	-35.0819
516.793	-38.09344
517.27	-18.04194
517.747	-27.06785
518.224	-37.08246
518.701	-20.0429
519.178	-54.13038
519.654	-91.2095
520.131	-59.14205
520.607	-21.05016
521.083	-53.11762
521.56	-29.06666
522.036	-42.08927
522.512	-36.08547
522.987	-63.14736
523.463	-69.15943
523.939	-78.18576
524.414	-31.06823
524.89	-7.01614
525.365	-90.19762
525.84	-45.1048
526.315	-71.16665
526.79	-94.20544
527.265	-67.14789
527.74	-43.10239
528.215	-61.13915
528.689	-116.24912
529.164	-55.11432
529.638	-73.18338
530.112	-69.15949
530.587	-115.24277
531.061	-84.19613
531.534	-70.16389
532.008	-57.13311
532.482	-91.20254
532.956	-82.20372
533.429	-79.18558
533.903	-62.1316
534.376	-92.19681
534.849	-87.19476
535.322	-140.32173
535.795	-122.28697
536.268	-56.13106
536.741	-42.09675
537.213	-103.22944
537.686	-91.2156
538.158	-69.15173
538.631	-99.23256
539.103	-87.19067
539.575	-59.11623
540.047	-129.27328
540.519	-109.24924
540.991	-87.20564
541.463	-47.11084
541.934	-93.20562
542.406	-87.19997
542.877	34.07459
543.348	-106.24662
543.82	-41.09669
544.291	-40.09019
544.762	-80.18252
545.233	-88.21439
545.703	-77.16505
546.174	-55.12404
546.645	-103.24469
547.115	-47.11045
547.585	-57.12729
548.056	-59.1393
548.526	-3.00683
548.996	-43.09935
549.466	-11.02596
549.935	-12.02762
550.405	20.04197
550.875	-41.09368
551.344	9.02068
551.814	-25.05514
552.283	14.02902
552.752	20.04473
553.221	26.055
553.69	-10.02164
554.159	-24.0574
554.628	52.11115
555.096	18.04394
555.565	-43.09181
556.033	49.10893
556.502	36.08247
556.97	79.16318
557.438	53.11782
557.906	-1.00222
558.374	49.1077
558.842	44.09937
559.31	30.06265
559.777	97.22421
560.245	102.21981
560.712	84.18188
561.18	69.14259
561.647	152.31813
562.114	142.30325
562.581	174.39682
563.048	148.31126
563.514	159.3599
563.981	177.36955
564.448	220.46146
564.914	181.38461
565.381	264.53784
565.847	240.50563
566.313	272.56448
566.779	273.55276
567.245	308.64689
567.711	333.72236
568.176	279.55611
568.642	277.63131
569.108	350.76683
569.573	336.69106
570.038	357.64811
570.504	374.73767
570.969	414.91658
571.434	459.86601
571.899	403.83016
572.363	473.93272
572.828	439.85672
573.293	451.89017
573.757	455.8909
574.222	471.89693
574.686	503.97511
575.15	515.04285
575.614	468.91918
576.078	499.01131
576.542	443.8633
577.006	504.97215
577.469	481.00988
577.933	460.87279
578.396	529.06685
578.86	405.81852
579.323	497.01552
579.786	507.91676
580.249	444.86463
580.712	457.97608
581.175	417.89452
581.637	380.74704
582.1	397.73652
582.563	371.67147
583.025	334.71974
583.487	369.64368
583.95	289.55568
584.412	368.67335
584.874	259.55274
585.336	336.70881
585.797	313.59603
586.259	237.49371
586.721	231.48721
587.182	228.46302
587.643	189.38268
588.105	263.55616
588.566	233.43095
589.027	205.45078
589.488	130.26835
589.949	194.42525
590.41	228.3999
590.87	200.40968
591.331	202.38605
591.791	125.26376
592.252	119.25
592.712	111.24624
593.172	62.12804
593.632	151.29677
594.092	154.31317
594.552	63.12394
595.011	40.08476
595.471	17.03475
595.931	106.21703
596.39	120.26315
596.849	58.12435
597.308	104.20522
597.768	83.19604
598.227	101.22583
598.685	50.1065
599.144	89.19456
599.603	40.08624
600.062	59.11579
600.52	98.20175
600.978	58.12676
601.437	45.09349
601.895	74.14527
602.353	77.15405
602.811	25.05069
603.269	38.08365
603.727	26.05812
604.184	99.20752
604.642	19.04271
605.099	83.17637
605.557	67.14956
606.014	67.13292
606.471	38.08855
606.928	98.19556
607.385	134.30696
607.842	82.17117
608.299	85.17991
608.755	100.22253
609.212	140.28366
609.668	91.18552
610.125	119.26266
610.581	156.33185
611.037	99.20348
611.493	105.22603
611.949	95.21285
612.405	127.23054
612.861	125.26503
613.316	88.19208
613.772	88.18532
614.227	120.2596
614.683	164.31419
615.138	131.28103
615.593	142.30719
616.048	133.27645
616.503	141.31721
616.958	189.43494
617.412	180.39223
617.867	133.26794
618.321	114.21164
618.776	85.17124
619.23	129.27794
619.684	110.22186
620.138	80.16736
620.592	73.16396
621.046	137.29187
621.5	129.28962
621.954	83.16782
622.407	120.24091
622.861	137.30884
623.314	12.02473
623.768	78.16751
624.221	142.25915
624.674	12.02565
625.127	76.16378
625.58	113.23111
626.033	129.25485
626.485	76.17003
626.938	117.25706
627.39	27.05827
627.843	63.13358
628.295	94.20066
628.747	37.08126
629.199	49.10317
629.651	70.1493
630.103	43.09253
630.555	59.11541
631.006	74.16118
631.458	32.07148
631.909	-3.00627
632.361	27.05865
632.812	40.08746
633.263	11.0221
633.714	23.0458
634.165	-6.01365
634.616	-5.01128
635.067	24.04979
635.518	22.04873
635.968	3.0056
636.419	18.0363
636.869	19.04241
637.319	15.03265
637.769	-6.01275
638.219	-21.04695
638.669	-17.03895
639.119	35.08058
639.569	31.07157
640.019	-42.09172
640.468	0
640.918	46.10453
641.367	-31.06547
641.816	-12.02535
642.265	22.04831
642.714	-44.09677
643.163	46.09981
643.612	-9.0212
644.061	13.02676
644.51	16.03515
644.958	16.03343
645.406	-25.05721
645.855	-6.01393
646.303	-16.03543
646.751	-51.11149
647.199	0
647.647	1.00222
648.095	-8.0177
648.543	-35.06772
648.99	60.13684
649.438	-3.00666
649.885	7.01667
650.333	18.0326
650.78	21.04866
651.227	-10.02323
651.674	6.0131
652.121	25.05818
652.568	34.07889
653.015	-11.02629
653.461	42.09637
653.908	35.077
654.354	-80.18304
654.801	28.06381
655.247	36.07488
655.693	-6.01522
656.139	57.1318
656.585	-2.00455
657.031	-51.11629
657.477	-1.00209
657.922	19.04204
658.368	1.00235
658.813	49.10798
659.259	-16.03711
659.704	41.0922
660.149	44.09803
660.594	15.0339
661.039	28.0614
661.484	-5.01131
661.929	44.09905
662.373	54.13156
662.818	-48.11432
663.262	29.06786
663.707	35.08621
664.151	7.01633
664.595	-10.0236
665.039	16.03778
665.483	13.032
665.927	78.17501
666.371	69.15568
666.814	38.08635
667.258	15.03469
667.701	92.18436
668.145	45.10661
668.588	9.02141
669.031	33.07588
669.474	26.06042
669.917	50.10553
670.36	16.03846
670.803	20.04605
671.245	10.0198
671.688	70.16427
672.13	50.10835
672.573	43.10431
673.015	31.07157
673.457	62.13022
673.899	39.08997
674.341	53.12343
674.783	66.15343
675.225	26.06154
675.666	57.13207
676.108	50.10581
676.549	120.27113
676.991	109.22859
677.432	44.08535
677.873	81.17916
678.314	74.16986
678.755	68.15877
679.196	74.16392
679.637	56.13142
680.078	22.04875
680.518	97.21375
680.959	53.12182
681.399	56.13495
681.839	113.26192
682.28	72.17312
682.72	50.11039
683.16	103.24657
683.6	116.24934
684.039	27.05357
684.479	81.19131
684.919	112.25068
685.358	52.12512
685.798	142.35932
686.237	102.23262
686.676	9.01956
687.115	109.24562
687.554	106.24067
687.993	97.20342
688.432	53.11571
688.871	118.25484
689.309	98.22485
689.748	47.09194
690.186	112.25285
690.625	121.27199
691.063	71.16163
691.501	94.21939
691.939	120.28578
692.377	151.35055
692.815	172.39273
693.253	63.14359
693.69	90.18653
694.128	77.17812
694.565	156.35505
695.003	127.30819
695.44	128.28743
695.877	89.19924
696.314	118.23602
696.751	143.30956
697.188	159.3464
697.625	75.1609
698.061	122.28025
698.498	154.35206
698.934	122.27778
699.371	117.26236
699.807	107.23875
700.243	118.27107
700.679	127.26963
701.115	133.29049
701.551	160.35309
701.987	103.21533
702.422	166.37659
702.858	116.26166
703.294	139.29704
703.729	134.31077
704.164	172.39067
704.599	147.30582
705.035	137.29187
705.47	140.3243
705.904	164.36025
706.339	147.31821
706.774	148.32661
707.209	166.36126
707.643	171.38943
708.078	201.4668
708.512	154.37238
708.946	158.35742
709.38	143.31894
709.814	93.19908
710.248	196.45131
710.682	115.25946
711.116	173.40003
711.549	147.3594
711.983	89.19579
712.416	143.31683
712.85	102.23946
713.283	97.21822
713.716	125.29535
714.149	125.27833
714.582	70.14774
715.015	145.34539
715.448	102.24236
715.881	158.31691
716.313	152.3322
716.746	92.20659
717.178	97.22171
717.61	98.2359
718.043	160.37489
718.475	165.3791
718.907	149.35314
719.339	101.21995
719.77	106.2392
720.202	128.31044
720.634	149.34549
721.065	130.28953
721.497	110.25319
721.928	116.27339
722.359	93.21607
722.79	143.32737
723.221	148.35463
723.652	138.3347
724.083	122.26201
724.514	152.33136
724.945	106.23979
725.375	140.31373
725.806	76.18037
726.236	143.34936
726.666	116.26059
727.096	94.21887
727.526	119.28889
727.956	58.12499
728.386	127.29518
728.816	123.30072
729.246	60.14009
729.675	90.21269
730.105	101.23512
730.534	32.07097
730.964	116.27753
731.393	136.31928
731.822	74.17954
732.251	77.18826
732.68	119.26354
733.109	95.22377
733.537	99.22974
733.966	84.19928
734.395	64.13964
734.823	62.13126
735.251	63.14637
735.68	93.21872
736.108	109.26471
736.536	69.15326
736.964	112.24675
737.392	127.30298
737.82	111.25381
738.247	39.08835
738.675	105.23215
739.102	71.16958
739.53	35.08637
739.957	29.07154
740.384	101.23355
740.811	59.14194
741.238	95.2195
741.665	69.15434
742.092	14.03153
742.519	68.1622
742.945	74.17026
743.372	44.10439
743.798	74.18271
744.225	126.28712
744.651	21.05037
745.077	70.16812
745.503	58.13404
745.929	63.14394
746.355	25.05854
746.781	49.11645
747.207	88.19826
747.632	37.08722
748.058	-23.055
748.483	8.01749
748.908	49.11837
749.334	27.0637
749.759	48.10735
750.184	44.10128
750.609	42.09903
751.033	48.1069
751.458	72.15109
751.883	67.16015
752.307	52.1172
752.732	54.1322
753.156	54.1287
753.58	31.06926
754.005	55.13267
754.429	24.05387
754.853	38.09026
755.277	32.07257
755.7	47.11101
756.124	46.11069
756.548	26.05949
756.971	23.05344
757.394	58.14536
757.818	69.17389
758.241	23.05621
758.664	51.12529
759.087	54.11622
759.51	18.04265
759.933	64.14837
760.356	65.16152
760.778	11.0262
761.201	53.12333
761.623	48.11234
762.046	2.00452
762.468	16.03611
762.89	36.08574
763.312	6.01389
763.734	28.06512
764.156	52.12384
764.578	83.18152
765	-3.00702
765.421	39.09673
765.843	61.15329
766.264	21.04825
766.686	53.12813
767.107	-13.03034
767.528	20.04914
767.949	72.176
768.37	53.12499
768.791	66.1524
769.212	-7.01719
769.632	-13.02946
770.053	16.04101
770.473	15.03495
770.894	32.07752
771.314	-15.03366
771.734	24.05343
772.154	-7.01743
772.575	-22.04896
772.994	27.05952
773.414	61.1396
773.834	20.04796
774.254	-32.07507
774.673	19.04465
775.093	47.11367
775.512	-43.10231
775.931	-4.00974
776.351	-4.00961
776.77	65.15436
777.189	52.11883
777.607	7.01727
778.026	44.10587
778.445	20.04874
778.864	-3.00743
779.282	39.09033
779.701	-27.06631
780.119	-35.08567
780.537	27.06562
780.955	39.09493
781.373	8.01899
781.791	18.03871
782.209	34.07314
782.627	23.05873
783.045	65.14257
783.462	-10.0247
783.88	0
784.297	17.04143
784.715	30.07505
785.132	25.05838
785.549	18.04369
785.966	-19.04637
786.383	62.14664
786.8	8.01768
787.217	-6.01366
787.633	-13.03187
788.05	-29.06409
788.466	24.0537
788.883	76.18826
789.299	25.0582
789.715	5.01172
790.131	-29.06964
790.547	26.06216
790.963	61.14592
791.379	50.12263
791.795	22.04727
792.21	56.12405
792.626	57.12834
793.041	13.03122
793.457	11.02613
793.872	10.02282
794.287	20.0467
794.702	22.05187
795.117	27.06515
795.532	-24.05886
795.947	-40.09052
796.362	-10.02269
796.776	4.00877
797.191	18.04226
797.605	-23.05293
798.02	-11.02579
798.434	0
798.848	50.11885
799.262	18.04349
799.676	-60.13899
800.09	-8.01891
800.504	-1.00232
800.918	-39.08724
801.331	18.04522
801.745	-14.03071
802.158	-6.01447
802.572	19.04374
802.985	32.0726
803.398	-4.00917
803.811	-7.01732
804.224	-41.09781
804.637	-10.02325
805.05	-24.05294
805.462	18.04246
805.875	26.06561
806.288	10.02318
806.7	-11.02665
807.112	60.13158
807.525	-15.0351
807.937	10.0243
808.349	-12.02897
808.761	47.11092
809.173	6.01393
809.584	4.00941
809.996	-11.02638
810.408	11.02768
810.819	20.04511
811.231	-4.01029
811.642	66.15634
812.053	74.17183
812.464	84.19435
812.875	-21.05157
813.286	13.03241
813.697	-26.05687
814.108	59.13703
814.519	5.01049
814.929	42.10339
815.34	21.04869
815.75	30.0738
816.16	38.0898
816.571	17.04258
816.981	22.04942
817.391	52.12022
817.801	-9.02173
818.211	-7.01586
818.62	-23.05293
819.03	0
819.44	23.05734
819.849	42.1021
820.259	1.00245
820.668	-53.12533
821.077	20.04792
821.486	10.0229
821.895	29.06847
822.304	-11.0282
822.713	25.05624
823.122	16.03837
823.531	-22.04975
823.939	15.0348
824.348	68.15827
824.756	4.00957
825.164	-11.02657
825.573	30.07232
825.981	30.07158
826.389	-10.02387
826.797	9.02159
827.205	15.03315
827.612	55.12864
828.02	-9.02052
828.428	24.05873
828.835	25.06339
829.243	-13.02952
829.65	2.00482
830.057	8.01866
830.464	57.13374
830.871	5.01123
831.278	22.05066
831.685	-3.00634
832.092	55.12874
832.499	-19.03916
832.905	4.00962
833.312	-10.02143
833.718	48.11458
834.124	71.15376
834.531	25.06005
834.937	-9.02206
835.343	-6.01366
835.749	-39.08608
836.155	19.04764
836.561	13.0309
836.966	-26.06035
837.372	38.0923
837.777	9.02175
838.183	3.00626
838.588	61.14625
838.993	47.10851
839.399	-9.02115
839.804	7.01653
840.209	-46.11266
840.613	-16.03353
841.018	-35.08519
841.423	-48.11851
841.828	4.00982
842.232	72.16831
842.637	35.07881
843.041	-19.04733
843.445	44.10688
843.849	21.05012
844.253	-37.08481
844.657	22.05368
845.061	39.08284
845.465	-18.04153
845.869	37.08146
846.272	13.03065
846.676	35.08042
847.079	27.06606
847.483	-29.06857
847.886	-50.11504
848.289	-4.01038
848.692	7.01713
849.095	60.13717
849.498	-4.00953
849.901	71.15337
850.304	14.03166
850.707	-22.05388
851.109	-1.00241
851.512	1.00234
851.914	21.05176
852.316	26.06266
852.718	-8.02019
853.121	-32.07551
853.523	-7.01551
853.925	52.13243
854.326	-11.02659
854.728	34.0845
855.13	2.00505
855.531	-5.01157
855.933	62.14083
856.334	-7.01675
856.736	19.04076
857.137	-4.00896
857.538	37.08996
857.939	-10.02382
858.34	4.0093
858.741	4.01006
859.142	-7.01609
859.542	39.09934
859.943	37.08807
860.343	-28.06697
860.744	18.04219
861.144	18.04242
861.544	42.09818
861.945	17.0418
862.345	35.08135
862.745	17.04065
863.145	-33.07382
863.544	-16.03892
863.944	44.09803
864.344	37.0879
864.743	-37.08793
865.143	36.08817
865.542	29.06369
865.941	-1.00236
866.34	-4.00906
866.74	-5.01288
867.139	47.10898
867.537	20.04856
867.936	-10.0229
868.335	-12.02954
868.734	11.02712
869.132	12.02613
869.531	45.10302
869.929	-8.01754
870.327	41.09401
870.726	19.04448
871.124	-22.04829
871.522	24.05891
871.92	-19.04421
872.318	-13.03036
872.715	9.02118
873.113	17.03947
873.511	-6.01445
873.908	-12.02965
874.306	-47.11359
874.703	13.03088
875.1	-17.04161
875.497	46.10427
875.894	4.00943
876.291	-13.03044
876.688	23.05761
877.085	-53.12104
877.482	22.05233
877.878	-10.02324
878.275	-32.07851
878.671	0
879.068	-6.01384
879.464	-29.06698
879.86	50.11412
880.256	-14.03269
880.652	33.08077
881.048	5.01182
881.444	-14.03159
881.84	7.01715
882.236	-34.08249
882.631	2.00464
883.027	0
883.422	6.01489
883.817	8.01942
884.213	-12.02962
884.608	-24.05711
885.003	26.05939
885.398	-51.12395
885.793	34.08197
886.188	20.04796
886.582	-7.01705
886.977	16.03578
887.371	-21.05119
887.766	12.02885
888.16	18.04272
888.554	-2.00466
888.949	28.0662
889.343	7.01615
889.737	15.03911
890.131	13.03122
890.525	-17.04181
890.918	0
891.312	20.04543
891.706	17.04296
892.099	-1.00242
892.492	9.01808
892.886	26.06106
893.279	8.01957
893.672	-19.04639
894.065	-31.0735
894.458	-25.06078
894.851	-18.04133
895.244	-9.02216
895.637	25.0573
896.029	57.13311
896.422	-38.08869
896.814	-6.01443
897.206	22.04987
897.599	4.00931
897.991	26.05944
898.383	39.08684
898.775	65.13794
899.167	10.02251
899.559	25.06035
899.951	4.00893
900.342	8.01948
900.734	-25.06019
901.125	-12.03001
901.517	10.02339
901.908	34.07648
902.299	8.0188
902.69	6.01345
903.082	-20.04582
903.473	-8.0185
903.863	-20.04911
904.254	28.06145
904.645	-2.00467
905.036	2.0047
905.426	43.09153
905.817	-13.03039
906.207	52.11902
906.597	-10.02237
906.987	58.14336
907.378	-11.02659
907.768	-24.06121
908.158	-27.06278
908.547	-72.17849
908.937	-4.00985
909.327	-25.05746
909.717	-37.08861
910.106	-8.01805
910.495	10.02373
910.885	2.00484
911.274	12.02857
911.663	-2.00485
912.052	-27.06271
912.441	12.0291
912.83	81.17677
913.219	-50.12607
913.608	9.0208
913.997	-12.02914
914.385	-5.01127
914.774	31.07217
915.162	19.04317
915.55	-60.13678
915.939	27.06572
916.327	15.0359
916.715	70.17308
917.103	-36.08329
917.491	9.02088
917.878	6.01406
918.266	-37.09224
918.654	-16.03953
919.041	-18.04565
919.429	4.009
919.816	18.04372
920.203	-33.07646
920.591	35.08385
920.978	16.03734
921.365	-49.12349
921.752	-1.00224
922.139	-8.01628
922.525	6.01396
922.912	24.05588
923.299	2.00478
923.685	32.08008
924.072	-23.04962
924.458	-3.00711
924.844	2.00473
925.231	-4.00888
925.617	-2.00495
926.003	-3.00733
926.389	-2.00483
926.774	7.01694
927.16	-16.03797
927.546	14.03478
927.931	-19.04479
928.317	7.01502
928.702	-15.03348
929.088	-17.03834
929.473	-11.02704
929.858	26.0608
930.243	19.04343
930.628	-22.05145
931.013	34.08153
931.398	11.02364
931.783	-11.02783
932.167	-29.06714
932.552	-14.03367
932.937	-19.04449
933.321	-32.07735
933.705	30.07279
934.09	5.01194
934.474	-3.00671
934.858	10.02515
935.242	48.10664
935.626	29.07082
936.009	12.03104
936.393	40.09694
936.777	35.08646
937.16	1.0025
937.544	-8.01763
937.927	-42.10301
938.311	-37.0845
938.694	8.0203
939.077	-42.09668
939.46	18.04156
939.843	14.02689
940.226	17.04175
940.609	-37.08047
940.991	8.01963
941.374	12.02823
941.757	-8.01863
942.139	13.02772
942.522	-6.0134
942.904	68.15658
943.286	8.01913
943.668	38.09417
944.05	-26.06178
944.432	30.0704
944.814	26.06133
945.196	17.04025
945.578	-2.00457
945.959	21.04707
946.341	5.01147
946.722	0
947.104	11.0251
947.485	13.02889
947.866	-26.06287
948.247	-40.09731
948.628	-7.01626
949.009	21.05192
949.39	14.03318
949.771	-19.04132
950.152	23.05373
950.532	11.02645
950.913	14.03216
951.293	3.00786
951.674	-52.12012
952.054	11.02627
952.434	-16.03793
952.814	-15.03398
953.194	-39.0974
953.574	-47.10937
953.954	10.02262
954.334	-15.03555
954.714	-20.04701
955.093	-5.01169
955.473	-1.0024
955.853	0
956.232	41.10853
956.611	34.07666
956.99	44.1066
957.37	35.08557
957.749	17.03801
958.128	48.11659
958.506	-20.04996
958.885	28.06827
959.264	9.02117
959.643	-61.12979
960.021	-31.07398
960.4	33.0715
960.778	-8.01858
961.156	-14.03375
961.535	33.07351
961.913	35.07687
962.291	24.05939
962.669	-7.01703
963.047	10.02451
963.424	10.02446
963.802	22.05157
964.18	8.01908
964.557	-72.15429
964.935	-4.00895
965.312	-11.02766
965.69	-14.03339
966.067	6.01381
966.444	8.01878
966.821	11.02717
967.198	1.00229
967.575	45.10393
967.952	72.15789
968.329	58.13457
968.705	64.12718
969.082	63.15546
969.458	1.00232
969.835	-31.07214
970.211	53.13155
970.587	59.13951
970.963	28.06878
971.339	-1.00252
971.715	-37.08847
972.091	32.0753
972.467	30.07073
972.843	11.02625
973.219	-26.05807
973.594	13.03268
973.97	-7.0156
974.345	37.08406
974.721	-15.034
975.096	-9.02073
975.471	66.1465
975.846	23.05246
976.221	1.00243
976.596	-21.04794
976.971	55.12789
977.346	6.01321
977.72	21.05159
978.095	-5.0125
978.469	62.13957
978.844	5.0118
979.218	-6.01387
979.593	41.09262
979.967	10.0231
980.341	20.04367
980.715	-18.04323
981.089	16.03812
981.463	48.10455
981.837	13.03048
982.21	35.07476
982.584	41.0942
982.957	-4.00962
983.331	-20.0446
983.704	35.0827
984.078	12.02847
984.451	0
984.824	34.07873
985.197	11.02519
985.57	44.10531
985.943	78.18183
986.316	35.08061
986.688	19.04366
987.061	46.10088
987.434	17.04266
987.806	1.00229
988.179	47.10526
988.551	40.09607
988.923	49.11564
989.295	30.07115
989.667	-19.04404
990.039	-6.01435
990.411	-14.03086
990.783	-39.08515
991.155	29.06714
991.527	-12.0275
991.898	15.03573
992.27	-20.04774
992.641	-1.00238
993.012	79.17233
993.384	16.0362
993.755	25.06085
994.126	28.06424
994.497	-17.0402
994.868	25.05379
995.239	-28.06424
995.61	-35.08468
995.98	39.09118
996.351	48.11453
996.722	-9.01987
997.092	-9.02057
997.462	65.14743
997.833	5.01117
998.203	-8.01833
998.573	40.09585
998.943	14.03122
999.313	-4.00916
999.683	72.16533
1000.053	31.06711
1000.423	26.06037
1000.792	7.01732
1001.162	88.20611
1001.531	-28.06558
1001.901	33.07834
1002.27	37.07674
1002.639	8.01954
1003.009	35.07939
1003.378	-10.02457
1003.747	48.10836
1004.116	36.0817
1004.485	20.04572
1004.853	-2.00483
1005.222	-2.00481
1005.591	12.02667
1005.959	105.2272
1006.328	67.14448
1006.696	28.06558
1007.064	10.02397
1007.433	-15.03559
1007.801	36.08382
1008.169	40.09694
1008.537	11.02254
1008.905	-2.00449
1009.273	-21.04941
1009.64	4.0091
1010.008	83.18711
1010.375	-27.06005
1010.743	-3.00639
1011.11	49.11083
1011.478	17.03997
1011.845	34.07535
1012.212	7.01493
1012.579	8.01873
1012.946	19.04239
1013.313	68.15107
1013.68	-6.01243
1014.047	-28.06422
1014.414	28.06352
1014.78	-4.00952
1015.147	18.04115
1015.513	17.03926
1015.88	40.09654
1016.246	61.14173
1016.612	25.05347
1016.978	22.05094
1017.344	-32.07536
1017.71	-38.086
1018.076	20.04417
1018.442	46.11266
1018.808	48.11528
1019.174	40.09588
1019.539	68.14358
1019.905	79.17977
1020.27	15.03576
1020.636	-13.02927
1021.001	53.12104
1021.366	-20.0458
1021.731	44.10708
1022.096	9.02201
1022.461	47.10491
1022.826	32.07236
1023.191	6.01512
1023.556	32.07103
1023.92	36.08346
1024.285	64.14802
1024.649	2.00464
1025.014	4.00938
1025.378	13.03135
1025.742	30.07158
1026.107	0
1026.471	10.02169
1026.835	107.25497
1027.199	0
1027.562	68.14975
1027.926	1.00232
1028.29	2.00482
1028.654	-43.09404
1029.017	55.12703
1029.381	48.11026
1029.744	7.01717
1030.107	22.04845
1030.471	29.06628
1030.834	-8.01732
1031.197	-30.06756
1031.56	13.02904
1031.923	19.04713
1032.286	-12.02629
1032.648	4.0091
1033.011	54.11817
1033.374	-9.01958
1033.736	8.02029
1034.099	-2.00463
1034.461	56.13659
1034.823	-44.10571
1035.185	23.05531
1035.548	25.05776
1035.91	12.02716
1036.272	29.06186
1036.634	14.03211
1036.995	-39.08742
1037.357	4.00923
1037.719	4.00925
1038.08	-2.00447
1038.442	47.10708
1038.803	54.12231
1039.165	7.01692
1039.526	-5.01143
1039.887	23.05276
1040.248	-6.01429
1040.609	38.08876
1040.97	11.02595
1041.331	17.04127
1041.692	-16.0359
1042.053	36.07671
1042.413	31.06837
1042.774	32.07327
1043.134	26.05767
1043.495	19.04522
1043.855	-3.00687
1044.215	20.04761
1044.576	31.07088
1044.936	-1.00215
1045.296	-25.05925
1045.656	-32.07442
1046.016	45.1019
1046.375	9.02088
1046.735	62.13419
1047.095	5.01112
1047.454	2.00387
1047.814	37.08542
1048.173	-6.01339
1048.533	8.01744
1048.892	34.0792
1049.251	27.06439
1049.61	-42.0988
1049.969	-20.04493
1050.328	11.0222
1050.687	42.09695
1051.046	34.07898
1051.405	-1.00237
1051.763	-4.00877
1052.122	-3.0072
1052.48	36.08462
1052.839	-16.03575
1053.197	14.03117
1053.555	27.05702
1053.914	24.05544
1054.272	52.11883
1054.63	9.02116
1054.988	30.06825
1055.345	44.08813
1055.703	39.08882
1056.061	-51.12724
1056.419	19.04747
1056.776	15.03466
1057.134	39.08533
1057.491	7.01684
1057.848	-45.1062
1058.206	-43.09499
1058.563	27.05567
1058.92	7.01514
1059.277	35.08141
1059.634	42.09296
1059.991	-47.10444
1060.348	60.12869
1060.704	16.03684
1061.061	21.0456
1061.418	30.07016
1061.774	6.01414
1062.131	23.05922
1062.487	22.04918
1062.843	62.14698
1063.199	3.00709
1063.555	-8.01775
1063.911	46.11094
1064.267	50.09519
1064.623	1.00231
1064.979	1.00218
1065.335	-27.0602
1065.691	-22.04926
1066.046	3.00623
1066.402	37.08037
1066.757	5.01204
1067.112	35.08087
1067.468	8.01816
1067.823	13.02987
1068.178	22.05009
1068.533	-13.03014
1068.888	0
1069.243	21.04902
1069.598	20.04629
1069.952	12.02577
1070.307	0
1070.662	-50.11339
1071.016	-2.00432
1071.371	15.0321
1071.725	-53.11909
1072.079	40.09233
1072.434	-7.01624
1072.788	28.0629
1073.142	3.00687
1073.496	-6.01348
1073.85	22.04792
1074.203	0
1074.557	22.05615
1074.911	7.01561
1075.265	13.02877
1075.618	27.06241
1075.971	23.05251
1076.325	5.01215
1076.678	-13.02843
1077.031	44.09376
1077.385	-36.07465
1077.738	51.10894
1078.091	5.0109
1078.444	13.02855
1078.796	28.06586
1079.149	48.11405
1079.502	-6.01354
1079.855	-11.02436
1080.207	-34.07998
1080.56	11.0274
1080.912	-19.04397
1081.264	-4.00913
1081.617	1.00232
1081.969	-7.01707
1082.321	21.04914
1082.673	-40.08724
1083.025	-51.11474
1083.377	-17.03352
1083.728	48.10571
1084.08	-12.0285
1084.432	16.03687
1084.783	4.00879
1085.135	1.00242
1085.486	-8.01759
1085.838	11.02584
1086.189	31.0716
1086.54	-23.052
1086.891	-25.06092
1087.242	-34.07892
1087.593	-16.03653
1087.944	7.01513
1088.295	36.07625
1088.646	-58.13361
1088.996	35.08058
1089.347	-11.02566
1089.698	3.00679
1090.048	18.04495
1090.398	-36.07908
1090.749	-8.01833
1091.099	8.01967
1091.449	15.03588
1091.799	18.04275
1092.149	22.05185
1092.499	19.04425
1092.849	6.01466
1093.199	9.02133
1093.548	-3.0069
1093.898	25.06005
1094.248	3.00736
1094.597	39.0974
1094.947	-14.03628
1095.296	31.07364
1095.645	-30.07461
1095.994	-51.11587
1096.343	-27.06412
1096.692	-39.09937
1097.041	34.09059
1097.39	19.04557
1097.739	22.05466
1098.088	-11.02803
1098.437	15.03849
1098.785	73.19039
1099.134	-19.04812
1099.482	11.02893
1099.83	69.17432
1100.179	29.0734
1100.527	84.21452
1100.875	-1.00257
1101.223	-3.00769
1101.571	17.04584
1101.919	0
1102.267	9.02488
1102.615	5.01607
1102.962	-8.02567
1103.31	7.02247
1103.658	-1.00321
