Data from N3 R9 sample 8_Subt2__0__15-10-22-042.txt Node

Date: Mon Sep 22 15:10:22 PDT 2025
User: uwsun
Spectrometer: HDX01956
Trigger mode: 0
Integration Time (sec): 5.000000E-1
Scans to average: 1
Nonlinearity correction enabled: true
Boxcar width: 0
Storing dark spectrum: false
XAxis mode: Wavelengths
Number of Pixels in Spectrum: 2068
>>>>>Begin Spectral Data<<<<<
194.03	13.03781
194.578	0
195.127	2.00641
195.676	-5.01609
196.225	-22.05829
196.773	12.03337
197.321	9.02522
197.87	19.04915
198.418	72.18749
198.966	53.14016
199.513	-14.03573
200.061	25.06449
200.609	14.03725
201.156	24.05312
201.704	31.07941
202.251	47.12645
202.798	15.03955
203.345	66.16272
203.892	5.01284
204.438	54.13023
204.985	53.12833
205.532	23.06164
206.078	49.12225
206.624	44.11063
207.17	31.07257
207.716	24.05908
208.262	50.0995
208.808	0
209.354	-58.14336
209.899	31.0793
210.445	72.18232
210.99	-5.01238
211.535	96.22837
212.08	39.09169
212.625	-18.04579
213.17	8.02039
213.715	38.08719
214.259	47.11019
214.804	2.00497
215.348	39.09058
215.892	48.11559
216.436	29.06717
216.98	39.08698
217.524	23.05477
218.068	34.08622
218.612	43.10809
219.155	41.09721
219.698	40.09588
220.242	28.06954
220.785	44.10277
221.328	38.0952
221.871	12.03006
222.414	79.1958
222.956	59.14323
223.499	14.03174
224.041	-14.03242
224.583	31.06633
225.126	53.11811
225.668	48.11655
226.21	47.11845
226.751	33.07299
227.293	56.12679
227.835	7.01713
228.376	-22.05064
228.918	99.24734
229.459	69.17158
230	38.09085
230.541	-2.00456
231.082	122.29844
231.622	28.06458
232.163	35.08557
232.704	40.09945
233.244	61.15207
233.784	42.10183
234.324	14.03139
234.864	-2.00452
235.404	56.13291
235.944	25.05905
236.484	56.13938
237.023	54.12712
237.563	26.0602
238.102	3.00704
238.641	22.05535
239.18	18.04213
239.719	47.117
240.258	55.12328
240.797	-7.01699
241.335	-13.03157
241.874	33.0632
242.412	12.02862
242.95	1.00242
243.488	31.07049
244.026	-48.11044
244.564	39.079
245.102	46.10258
245.64	35.08347
246.177	14.03086
246.715	35.08286
247.252	72.16513
247.789	70.12911
248.326	66.16032
248.863	38.08439
249.4	19.04273
249.936	90.18569
250.473	17.03944
251.009	36.08343
251.546	22.04829
252.082	-51.11172
252.618	7.01572
253.154	35.08344
253.69	-16.03581
254.226	4.00957
254.761	42.09408
255.297	14.03088
255.832	34.08135
256.367	51.12004
256.903	13.02884
257.438	34.07923
257.972	22.04953
258.507	-26.06018
259.042	92.20039
259.576	29.06313
260.111	16.03709
260.645	55.1183
261.179	10.02333
261.713	26.05747
262.247	78.17904
262.781	-17.03564
263.315	10.02475
263.849	30.07513
264.382	54.12355
264.915	38.09036
265.449	12.02975
265.982	74.16897
266.515	11.02647
267.048	47.10174
267.58	15.03237
268.113	60.12969
268.646	28.06987
269.178	60.13335
269.71	20.04277
270.243	16.03639
270.775	-31.07899
271.307	23.05512
271.838	66.15477
272.37	7.01715
272.902	16.03611
273.433	74.16077
273.965	-15.03622
274.496	42.10446
275.027	46.11437
275.558	45.10888
276.089	27.06756
276.62	-1.00254
277.15	27.06633
277.681	45.09725
278.211	58.14225
278.741	35.07852
279.272	16.03591
279.802	11.02757
280.332	62.14681
280.861	33.079
281.391	-10.02292
281.921	12.02847
282.45	57.14221
282.98	20.05188
283.509	64.14454
284.038	16.03646
284.567	42.09733
285.096	36.08672
285.625	32.07292
286.153	41.09714
286.682	66.15137
287.21	45.10912
287.739	66.15585
288.267	40.09705
288.795	54.14129
289.323	51.12069
289.851	21.04904
290.378	51.11413
290.906	5.01227
291.433	32.08031
291.961	98.2226
292.488	37.09207
293.015	30.07024
293.542	28.07055
294.069	39.09606
294.596	-11.02724
295.122	108.25661
295.649	31.06794
296.175	40.09709
296.702	46.11102
297.228	11.02642
297.754	101.2276
298.28	78.17444
298.806	66.16092
299.332	41.09194
299.857	68.15621
300.383	16.04004
300.908	-7.01718
301.433	58.1412
301.958	57.13217
302.483	65.16381
303.008	55.13567
303.533	6.01559
304.058	4.0095
304.582	41.09808
305.107	66.17363
305.631	46.10389
306.155	34.07885
306.679	43.10089
307.203	65.1515
307.727	40.09523
308.251	65.15928
308.775	80.19177
309.298	38.09168
309.822	52.13116
310.345	-10.02365
310.868	77.18482
311.391	70.1713
311.914	56.14246
312.437	55.12424
312.96	77.1825
313.482	42.10014
314.005	100.25233
314.527	33.08721
315.049	45.11328
315.571	105.23661
316.093	45.11088
316.615	71.17469
317.137	51.11149
317.659	86.20772
318.18	19.04576
318.702	45.10521
319.223	87.17874
319.744	81.18268
320.265	114.27784
320.786	101.24905
321.307	93.23059
321.828	82.18406
322.348	54.12697
322.869	59.13935
323.389	-221.40344
323.909	124.28348
324.43	7.01676
324.95	88.20094
325.47	106.26142
325.989	100.2366
326.509	84.18739
327.029	24.05387
327.548	53.12246
328.067	114.2769
328.587	58.14415
329.106	32.07372
329.625	71.18492
330.144	88.20385
330.662	120.27798
331.181	114.26533
331.7	88.20692
332.218	147.32189
332.736	142.3292
333.255	51.12018
333.773	115.27035
334.291	76.18985
334.808	103.23191
335.326	70.15745
335.844	126.29257
336.361	111.28083
336.879	114.26502
337.396	71.17003
337.913	55.12617
338.43	120.26947
338.947	142.33649
339.464	130.27786
339.981	114.2717
340.497	79.19344
341.014	123.29579
341.53	104.23565
342.046	149.36456
342.562	77.19057
343.078	106.24876
343.594	81.1928
344.11	108.25196
344.626	138.34559
345.141	137.30998
345.657	162.36303
346.172	127.30112
346.687	58.1318
347.202	168.37524
347.717	159.37597
348.232	135.33166
348.747	130.29228
349.261	157.3432
349.776	159.37028
350.29	128.31428
350.805	169.40934
351.319	138.31802
351.833	175.40079
352.347	108.24799
352.861	121.27645
353.374	209.47211
353.888	169.40703
354.401	136.31129
354.915	194.43492
355.428	120.29453
355.941	202.46884
356.454	167.36506
356.967	192.45144
357.48	186.42179
357.993	169.41011
358.505	211.51413
359.018	180.43048
359.53	215.51564
360.042	137.30037
360.554	250.59078
361.066	175.42323
361.578	239.51161
362.09	140.32469
362.602	169.37053
363.113	223.50435
363.625	200.44597
364.136	124.2678
364.647	187.4324
365.158	205.46232
365.669	164.38516
366.18	231.52754
366.691	242.51814
367.201	186.43546
367.712	202.44502
368.222	189.42467
368.733	209.44391
369.243	241.52213
369.753	242.54765
370.263	258.59951
370.773	244.58396
371.282	228.52248
371.792	231.51584
372.301	179.42457
372.811	266.6783
373.32	245.50947
373.829	325.74636
374.338	232.50618
374.847	243.53972
375.356	285.65478
375.865	300.61675
376.373	279.61529
376.882	293.71123
377.39	327.75546
377.898	343.81159
378.407	310.67691
378.915	323.66987
379.423	306.68964
379.93	311.66428
380.438	397.91094
380.946	395.8623
381.453	432.97553
381.96	485.06303
382.468	488.06489
382.975	544.21933
383.482	533.10892
383.989	503.18006
384.495	532.10757
385.002	562.06991
385.509	619.30415
386.015	600.04511
386.521	659.30821
387.028	710.39092
387.534	764.42148
388.04	809.63854
388.546	827.56826
389.051	792.45398
389.557	859.66705
390.063	967.78975
390.568	1005.93879
391.073	990.81376
391.578	1044.06018
392.084	1036.83742
392.589	1147.9046
393.093	1252.30179
393.598	1349.24072
394.103	1460.49708
394.607	1617.70093
395.112	1716.85144
395.616	1906.90845
396.12	1905.67412
396.624	2224.08903
397.128	2365.15118
397.632	2652.11711
398.136	2880.04054
398.639	2981.16061
399.143	3460.62443
399.646	3852.93668
400.15	4219.77003
400.653	4645.53848
401.156	5312.98647
401.659	6297.88569
402.162	7603.85834
402.664	9887.01104
403.167	14090.60629
403.67	26596.8043
404.172	58965.7272
404.674	62421.90989
405.176	60252.21675
405.678	57642.47783
406.18	55467.82182
406.682	56151.3881
407.184	60564.14267
407.686	63049.78229
408.187	44522.34413
408.688	25872.08083
409.19	18068.97202
409.691	14533.67207
410.192	12038.44486
410.693	10553.01143
411.194	9463.3962
411.694	8895.28047
412.195	8398.78458
412.696	7569.84478
413.196	6994.19114
413.696	6830.77612
414.196	6856.30141
414.696	6879.91936
415.196	6466.65336
415.696	5893.56247
416.196	4769.46565
416.695	3750.13448
417.195	3102.27045
417.694	2999.42051
418.194	2819.60473
418.693	2648.03738
419.192	2560.17675
419.691	2553.16441
420.19	2380.15043
420.688	2375.25488
421.187	2274.45814
421.685	2148.94011
422.184	1996.84391
422.682	1681.4182
423.18	1467.41683
423.678	1262.15443
424.176	1247.16106
424.674	1086.86974
425.172	1092.03679
425.669	998.9983
426.167	976.83292
426.664	862.61053
427.161	836.60963
427.659	746.54969
428.156	620.12109
428.652	671.49725
429.149	589.2539
429.646	629.23636
430.143	595.26449
430.639	464.98223
431.135	472.07245
431.632	474.97882
432.128	414.90664
432.624	462.07803
433.12	378.79565
433.616	320.64214
434.111	351.77178
434.607	321.71027
435.103	318.62338
435.598	370.69379
436.093	271.59013
436.588	291.60647
437.083	269.5671
437.578	263.56517
438.073	258.60968
438.568	297.68562
439.062	222.44383
439.557	222.49584
440.051	219.46961
440.546	238.51729
441.04	276.62839
441.534	164.39655
442.028	162.3705
442.522	188.43428
443.015	179.37123
443.509	182.42359
444.002	122.28451
444.496	102.21225
444.989	166.38651
445.482	171.40872
445.975	136.29887
446.468	139.29008
446.961	38.07777
447.454	133.28803
447.947	189.43198
448.439	123.2869
448.931	126.27515
449.424	95.23011
449.916	48.1111
450.408	88.19387
450.9	79.18688
451.392	84.20228
451.884	76.16779
452.375	129.30857
452.867	64.13804
453.358	60.13086
453.849	76.15455
454.341	91.19573
454.832	15.03135
455.323	107.24948
455.814	118.25768
456.304	86.19026
456.795	78.17091
457.285	96.20501
457.776	78.1704
458.266	80.18105
458.756	80.18495
459.247	66.15003
459.737	70.16164
460.226	47.10144
460.716	65.14911
461.206	89.20596
461.695	37.08817
462.185	95.21469
462.674	38.084
463.163	95.20204
463.653	14.02859
464.142	46.10728
464.63	110.25663
465.119	59.13176
465.608	33.07308
466.096	87.18358
466.585	47.1037
467.073	39.09129
467.561	40.09273
468.05	8.01782
468.538	61.1438
469.026	13.03022
469.513	30.06187
470.001	61.13357
470.489	85.196
470.976	55.12353
471.463	22.0531
471.951	34.08144
472.438	38.08666
472.925	27.06139
473.412	74.17475
473.899	40.08838
474.385	60.14278
474.872	-9.0205
475.359	53.12736
475.845	4.00807
476.331	24.05032
476.817	36.08495
477.303	35.07897
477.789	35.08122
478.275	-14.03371
478.761	41.09496
479.247	55.11977
479.732	-19.04635
480.218	33.08429
480.703	-3.00729
481.188	30.06259
481.673	2.00444
482.158	15.03187
482.643	24.05921
483.128	53.1187
483.612	2.00456
484.097	2.0047
484.581	-20.04484
485.066	59.13897
485.55	46.09862
486.034	13.02779
486.518	-4.00914
487.002	29.07046
487.486	48.11519
487.969	56.13449
488.453	29.07093
488.936	24.05325
489.42	0
489.903	0
490.386	45.09916
490.869	-4.00849
491.352	3.00712
491.835	-34.06838
492.318	2.00442
492.8	-12.0241
493.283	-8.01993
493.765	-27.06537
494.247	35.0789
494.73	22.04776
495.212	3.00704
495.694	1.00228
496.175	-9.02131
496.657	-34.07779
497.139	-19.03216
497.62	6.01404
498.102	10.02442
498.583	-38.09306
499.064	-36.07938
499.545	-7.01566
500.026	29.06267
500.507	18.041
500.988	-40.09647
501.469	-51.12539
501.949	-7.01676
502.43	-17.03979
502.91	-32.06499
503.39	1.00245
503.87	-29.06706
504.35	-31.07194
504.83	-87.1893
505.31	18.04264
505.79	-69.16253
506.269	-46.10588
506.749	-51.11554
507.228	-55.12774
507.707	-47.09996
508.187	-34.0787
508.666	-34.08194
509.145	-42.09664
509.623	-57.13259
510.102	-43.10207
510.581	-79.18673
511.059	-28.06951
511.538	-44.11106
512.016	-53.12508
512.494	-35.0836
512.972	-45.10517
513.45	-52.12017
513.928	-59.14259
514.406	-19.0458
514.884	-58.14577
515.361	-28.06576
515.839	-97.21948
516.316	-52.12299
516.793	-24.06045
517.27	-75.1781
517.747	-11.02801
518.224	-62.14174
518.701	-79.17467
519.178	-26.06398
519.654	1.00233
520.131	-32.07825
520.607	-32.07761
521.083	-77.17472
521.56	-53.12421
522.036	-81.17399
522.512	-104.25091
522.987	-49.11398
523.463	-39.09158
523.939	-44.10571
524.414	-77.17401
524.89	-15.03515
525.365	-150.33614
525.84	-56.13362
526.315	17.04029
526.79	-54.11997
527.265	-50.11242
527.74	-58.13983
528.215	-42.09772
528.689	-61.13318
529.164	-51.10899
529.638	-60.15118
530.112	-83.19467
530.587	-33.06911
531.061	-33.0787
531.534	-80.19009
532.008	-80.18891
532.482	-45.09979
532.956	-129.32857
533.429	-52.12422
533.903	-66.14113
534.376	-99.21486
534.849	-84.19134
535.322	-98.22755
535.795	-87.21089
536.268	-83.19596
536.741	-106.25167
537.213	-88.20037
537.686	-78.19031
538.158	-86.19018
538.631	-87.20692
539.103	-113.25047
539.575	-72.14822
540.047	-92.1975
540.519	-43.10034
540.991	-65.15691
541.463	-68.16126
541.934	-81.18342
542.406	-83.19482
542.877	-120.26482
543.348	-66.15712
543.82	-49.11735
544.291	-68.15508
544.762	-51.11868
545.233	-75.1863
545.703	-66.14553
546.174	-23.05219
546.645	-125.29923
547.115	-34.08032
547.585	-26.05879
548.056	-127.30541
548.526	-69.16107
548.996	-68.15971
549.466	-21.05025
549.935	-97.22884
550.405	-76.16533
550.875	-30.07024
551.344	-66.15646
551.814	-42.09555
552.283	-61.13132
552.752	-79.1818
553.221	-57.12434
553.69	-58.12682
554.159	-66.16098
554.628	-28.06249
555.096	-28.06972
555.565	-96.21363
556.033	-58.1342
556.502	-67.16033
556.97	-52.11389
557.438	-81.187
557.906	-45.10414
558.374	-70.15874
558.842	-85.20014
559.31	-57.12381
559.777	-108.25967
560.245	-107.2423
560.712	-41.09349
561.18	-25.05414
561.647	-34.07406
562.114	-57.1276
562.581	-56.13388
563.048	-108.24272
563.514	-60.14498
563.981	-68.15006
564.448	-18.03927
564.914	-66.14991
565.381	6.0133
565.847	40.09115
566.313	-20.04558
566.779	-17.03746
567.245	-4.00924
567.711	20.04651
568.176	-28.06215
568.642	-6.01483
569.108	22.05304
569.573	20.04543
570.038	15.03025
570.504	45.09791
570.969	40.09709
571.434	76.16174
571.899	65.15012
572.363	28.06125
572.828	130.28232
573.293	76.16807
573.757	59.12985
574.222	64.13768
574.686	140.30287
575.15	75.16832
575.614	56.12301
576.078	123.27649
576.542	64.13857
577.006	64.13721
577.469	170.3966
577.933	63.13475
578.396	118.26607
578.86	122.2743
579.323	115.26211
579.786	134.27362
580.249	102.22217
580.712	111.2582
581.175	112.26509
581.637	99.21504
582.1	75.15575
582.563	104.20889
583.025	76.17801
583.487	70.13592
583.95	110.22604
584.412	95.18803
584.874	53.12299
585.336	82.18754
585.797	61.12555
586.259	51.11384
586.721	108.24451
587.182	23.05087
587.643	95.20477
588.105	106.24457
588.566	96.1905
589.027	32.07507
589.488	46.10219
589.949	76.1778
590.41	-6.01153
590.87	26.05694
591.331	24.04985
591.791	-10.02247
592.252	20.04528
592.712	33.07697
593.172	7.01525
593.632	59.12373
594.092	5.01083
594.552	48.09988
595.011	-3.00671
595.471	-61.13312
595.931	-38.08249
596.39	-18.04194
596.849	16.03636
597.308	-3.00627
597.768	-8.02011
598.227	-9.02113
598.685	-3.00667
599.144	-12.0276
599.603	23.05331
600.062	-10.02073
600.52	-63.1383
600.978	-30.0701
601.437	-14.03123
601.895	-15.03125
602.353	7.01515
602.811	-26.05704
603.269	-35.08286
603.727	14.03273
604.184	22.04835
604.642	-21.05054
605.099	-62.14014
605.557	33.07834
606.014	-29.06111
606.471	-69.17014
606.928	-18.03797
607.385	-13.0318
607.842	37.08314
608.299	9.02043
608.755	-47.11105
609.212	4.00869
609.668	-25.05544
610.125	-7.01641
610.581	8.01819
611.037	-9.02002
611.493	-20.04585
611.949	-9.02133
612.405	2.00393
612.861	29.06538
613.316	7.01649
613.772	-30.06662
614.227	21.0486
614.683	-7.01434
615.138	-34.07798
615.593	74.16692
616.048	14.03104
616.503	21.04995
616.958	28.06903
617.412	19.04367
617.867	-14.03068
618.321	-36.07157
618.776	18.03896
619.23	-17.03884
619.684	-1.00215
620.138	40.08861
620.592	-16.03809
621.046	-38.08691
621.5	-20.04732
621.954	-4.00865
622.407	-4.00857
622.861	29.06863
623.314	9.0196
623.768	-14.03188
624.221	58.10913
624.674	45.10207
625.127	-91.20858
625.58	40.08776
626.033	24.05063
626.485	-4.00943
626.938	37.08515
627.39	-63.14197
627.843	-13.02916
628.295	-36.08034
628.747	-22.05032
629.199	-30.0667
629.651	33.07394
630.103	-15.03375
630.555	8.01644
631.006	17.03834
631.458	-23.05327
631.909	-24.05254
632.361	-43.09828
632.812	-37.0846
633.263	-10.02099
633.714	8.01659
634.165	9.02119
634.616	-27.06246
635.067	-21.04536
635.518	-2.00463
635.968	5.00966
636.419	21.04408
636.869	-8.01863
637.319	-63.14173
637.769	-70.15279
638.219	-41.0942
638.669	-58.13425
639.119	0
639.569	11.02584
640.019	-26.05815
640.468	-21.0456
640.918	-42.09849
641.367	-43.0936
641.816	-70.15402
642.265	3.00682
642.714	-34.07654
643.163	-51.11394
643.612	-63.14903
644.061	-80.16551
644.51	-36.08031
644.958	2.00433
645.406	-33.07713
645.855	-18.04295
646.303	-88.20158
646.751	-12.02667
647.199	-19.04178
647.647	2.00452
648.095	-47.10561
648.543	-67.13268
648.99	-40.09317
649.438	12.02728
649.885	-38.09203
650.333	24.04447
650.78	-33.07858
651.227	-14.03375
651.674	-14.03106
652.121	-66.15682
652.568	-50.11995
653.015	-52.12928
653.461	-1.00234
653.908	-5.01128
654.354	-3.00701
654.801	-44.10225
655.247	-13.02746
655.693	-10.02569
656.139	-54.12628
656.585	8.01879
657.031	42.09764
657.477	-42.08872
657.922	16.03634
658.368	-48.11528
658.813	-10.02251
659.259	5.01177
659.704	11.02532
660.149	-48.10982
660.594	-32.0743
661.039	-51.11417
661.484	-12.02764
661.929	-26.05944
662.373	22.05484
662.818	-24.05841
663.262	1.00236
663.707	-25.06246
664.151	-36.08666
664.595	-56.13347
665.039	-31.07506
665.483	22.05531
665.927	-80.18399
666.371	-6.01386
666.814	-31.07222
667.258	-53.12435
667.701	-44.09074
668.145	-55.13337
668.588	3.00725
669.031	-17.03912
669.474	15.0355
669.917	13.02795
670.36	-36.08744
670.803	0
671.245	-37.07656
671.688	15.03561
672.13	-53.11669
672.573	15.03714
673.015	13.03065
673.457	25.05305
673.899	11.02571
674.341	-11.02619
674.783	-10.02364
675.225	-37.08891
675.666	-8.01926
676.108	-26.05516
676.549	9.02065
676.991	-34.07299
677.432	50.09625
677.873	40.09056
678.314	-49.11497
678.755	-34.08138
679.196	-59.13274
679.637	-13.031
680.078	-8.01809
680.518	-14.03175
680.959	-24.05648
681.399	-39.09503
681.839	12.02858
682.28	-20.04838
682.72	-26.05822
683.16	-19.04637
683.6	-8.01757
684.039	11.02198
684.479	17.04102
684.919	10.02279
685.358	-6.01483
685.798	-8.0206
686.237	-21.04902
686.676	58.12928
687.115	-28.06414
687.554	-30.06864
687.993	-4.00851
688.432	7.01571
688.871	18.03979
689.309	-22.05129
689.748	31.06225
690.186	-14.03203
690.625	20.04554
691.063	-2.00467
691.501	-7.01671
691.939	-16.03894
692.377	-15.03552
692.815	9.02098
693.253	-1.00235
693.69	17.03661
694.128	44.10471
694.565	-3.00696
695.003	-34.08388
695.44	-7.01597
695.877	28.06355
696.314	-6.01236
696.751	1.00217
697.188	-6.01329
697.625	-12.02608
698.061	56.13101
698.498	7.01605
698.934	44.1029
699.371	-4.00919
699.807	5.01142
700.243	-10.02323
700.679	-34.0739
701.115	-55.12363
701.551	0
701.987	21.04513
702.422	58.13382
702.858	43.09983
703.294	13.02819
703.729	14.03309
704.164	-19.04442
704.599	24.05152
705.035	17.03688
705.47	24.05698
705.904	29.06607
706.339	-6.01324
706.774	5.01128
707.209	-24.05367
707.643	32.0741
708.078	-29.06868
708.512	-22.05416
708.946	-28.06471
709.38	2.00459
709.814	-10.02184
710.248	-46.10825
710.682	78.17961
711.116	14.03302
711.549	12.03028
711.983	24.0535
712.416	-15.03401
712.85	3.00727
713.283	24.05458
713.716	82.19709
714.149	47.10647
714.582	-23.04966
715.015	-29.06979
715.448	10.02408
715.881	15.03091
716.313	41.09292
716.746	57.12824
717.178	-14.03301
717.61	22.05378
718.043	-25.06037
718.475	50.1161
718.907	29.07027
719.339	43.09527
719.77	12.02784
720.202	33.07999
720.634	-22.05229
721.065	13.0295
721.497	-21.0495
721.928	39.09311
722.359	19.04522
722.79	0
723.221	6.01466
723.652	54.13338
724.083	67.1446
724.514	-39.08641
724.945	23.05282
725.375	13.02938
725.806	-13.03128
726.236	-7.01721
726.666	33.07543
727.096	6.01412
727.526	-2.00498
727.956	0
728.386	-7.01662
728.816	15.03693
729.246	-18.04256
729.675	-26.06213
730.105	32.07595
730.534	-20.0448
730.964	16.03905
731.393	57.1351
731.822	2.00495
732.251	21.05214
732.68	11.02472
733.109	28.06656
733.537	-10.0236
733.966	-34.08194
734.395	-31.06946
734.823	25.05359
735.251	-17.03983
735.68	-1.00238
736.108	-3.00741
736.536	23.05172
736.964	11.02508
737.392	-4.00973
737.82	-1.00234
738.247	-41.09469
738.675	-43.09765
739.102	5.01222
739.53	3.00747
739.957	-2.00499
740.384	15.03482
740.811	26.06327
741.238	-34.07979
741.665	4.00902
742.092	-33.07449
742.519	51.12325
742.945	-5.01157
743.372	2.0048
743.798	0
744.225	13.0298
744.651	5.0123
745.077	-30.07186
745.503	-12.02836
745.929	38.08726
746.355	43.10073
746.781	53.12726
747.207	13.03002
747.632	-61.14553
748.058	-29.06977
748.483	-31.06897
748.908	2.0048
749.334	0
749.759	42.0961
750.184	24.05573
750.609	-21.04983
751.033	28.06249
751.458	11.02329
751.883	-5.01191
752.307	-28.06453
752.732	-29.07064
753.156	66.15971
753.58	-25.05641
754.005	-6.01462
754.429	-60.13662
754.853	22.05346
755.277	-4.00917
755.7	-8.01905
756.124	23.05542
756.548	-6.01384
756.971	-50.11697
757.394	15.03752
757.818	12.03012
758.241	6.01467
758.664	-18.04402
759.087	6.01285
759.51	-29.07016
759.933	10.02347
760.356	-24.05956
760.778	10.02389
761.201	-27.06347
761.623	-6.01394
762.046	-12.02728
762.468	46.10432
762.89	0
763.312	2.00466
763.734	9.02097
764.156	4.00953
764.578	-62.13596
765	-8.01868
765.421	24.06002
765.843	16.04085
766.264	-23.05327
766.686	28.06783
767.107	-1.00236
767.528	-8.01974
767.949	40.09876
768.37	13.03087
768.791	14.03226
769.212	20.04933
769.632	25.05664
770.053	19.04869
770.473	-7.0164
770.894	2.00479
771.314	17.03845
771.734	-12.02722
772.154	10.02474
772.575	-30.06598
772.994	-33.07281
773.414	-13.02977
773.834	-36.08692
774.254	-22.05173
774.673	44.10233
775.093	16.03841
775.512	-21.05027
775.931	3.00736
776.351	35.08398
776.77	26.06178
777.189	12.02737
777.607	63.155
778.026	-17.04068
778.445	32.07866
778.864	43.10681
779.282	34.07842
779.701	-43.10474
780.119	22.0543
780.537	13.03161
780.955	13.03175
781.373	22.05239
781.791	32.06896
782.209	19.04138
782.627	-7.01789
783.045	18.03926
783.462	62.15285
783.88	-7.01765
784.297	-31.07512
784.715	29.07246
785.132	-5.01168
785.549	29.07027
785.966	8.01931
786.383	31.07342
786.8	2.00436
787.217	-13.02961
787.633	35.08462
788.05	-25.05592
788.466	3.00664
788.883	15.03746
789.299	51.11873
789.715	15.03474
790.131	13.03109
790.547	-10.02396
790.963	27.06424
791.379	-7.01718
791.795	41.08883
792.21	19.04241
792.626	72.16354
793.041	-7.01661
793.457	11.02617
793.872	21.04723
794.287	-23.05365
794.702	2.00468
795.117	-19.0458
795.532	58.14025
795.947	-94.21204
796.362	5.0113
796.776	-49.10657
797.191	-4.00935
797.605	43.09813
798.02	40.09402
798.434	-10.02103
798.848	-34.08072
799.262	48.1151
799.676	13.0303
800.09	-25.05847
800.504	-24.05555
800.918	0
801.331	30.07497
801.745	-21.04544
802.158	0
802.572	22.0507
802.985	2.00457
803.398	-13.02938
803.811	-11.02703
804.224	23.0546
804.637	-19.04357
805.05	-36.07915
805.462	9.02094
805.875	48.12155
806.288	-58.13601
806.7	-40.09756
807.112	23.05079
807.525	-15.035
807.937	0
808.349	33.07897
808.761	-30.07084
809.173	1.00232
809.584	14.03251
809.996	21.04979
810.408	11.02758
810.819	39.08792
811.231	-32.08227
811.642	-11.02593
812.053	10.02322
812.464	13.02956
812.875	-20.04922
813.286	22.05474
813.697	32.06964
814.108	-28.06525
814.519	-34.07157
814.929	-30.0729
815.34	8.01866
815.75	39.09521
816.16	-11.02597
816.571	38.0951
816.981	3.00672
817.391	-1.00231
817.801	6.01443
818.211	-16.03634
818.62	13.03014
819.03	-16.03703
819.44	-3.00749
819.849	14.03367
820.259	2.00488
820.668	-13.03097
821.077	79.18984
821.486	13.0294
821.895	-2.00467
822.304	8.02048
822.713	-23.05187
823.122	-12.02868
823.531	6.01354
823.939	15.03486
824.348	27.06226
824.756	-6.01429
825.164	-43.10298
825.573	-24.05803
825.981	-43.10243
826.389	-39.0924
826.797	12.0287
827.205	59.12887
827.612	3.00701
828.02	-26.05937
828.428	-1.00246
828.835	3.00764
829.243	51.11596
829.65	36.08656
830.057	-11.02558
830.464	16.03728
830.871	16.03642
831.278	-10.02339
831.685	-28.05858
832.092	-28.06491
832.499	45.09266
832.905	18.04359
833.312	29.0627
833.718	12.0284
834.124	-68.14705
834.531	56.13398
834.937	-28.06895
835.343	61.13881
835.749	26.05678
836.155	29.07311
836.561	-5.01169
836.966	25.0585
837.372	21.0511
837.777	25.05939
838.183	37.07704
838.588	15.03577
838.993	8.01829
839.399	-53.12494
839.804	53.12547
840.209	-34.08404
840.613	22.046
841.018	-56.13582
841.423	-17.04206
841.828	52.12688
842.232	-12.02784
842.637	2.0045
843.041	21.05233
843.445	-31.07475
843.849	47.11299
844.253	7.01571
844.657	-17.04129
845.061	62.13378
845.465	43.10054
845.869	-29.06331
846.272	40.09336
846.676	19.0432
847.079	27.06594
847.483	28.06599
847.886	11.02505
848.289	37.09584
848.692	9.02168
849.095	31.06997
849.498	56.13419
849.901	48.10344
850.304	19.04259
850.707	31.07514
851.109	71.1699
851.512	27.0632
851.914	34.08351
852.316	36.08695
852.718	-6.0152
853.121	-41.09552
853.523	-38.08467
853.925	27.06831
854.326	-27.06513
854.728	53.1316
855.13	54.13523
855.531	-19.04343
855.933	-3.00679
856.334	25.06028
856.736	30.06421
857.137	-5.01114
857.538	23.05586
857.939	4.00954
858.34	-20.04616
858.741	-3.00753
859.142	5.01134
859.542	3.00765
859.943	-55.13131
860.343	17.04067
860.744	-84.19482
861.144	0
861.544	22.05175
861.945	24.05921
862.345	9.02093
862.745	27.06427
863.145	1.00224
863.544	29.07003
863.944	22.04883
864.344	21.0491
864.743	-13.03024
865.143	-11.0271
865.542	7.01561
865.941	65.15471
866.34	26.05834
866.74	27.07037
867.139	25.05721
867.537	46.11232
867.936	-51.11699
868.335	47.1144
868.734	21.0518
869.132	67.14696
869.531	-1.00228
869.929	36.07801
870.327	10.0229
870.726	71.16665
871.124	48.10517
871.522	26.06342
871.92	19.04449
872.318	42.09849
872.715	39.09115
873.113	-2.00465
873.511	57.13515
873.908	-14.03454
874.306	-5.01198
874.703	-41.09774
875.1	-14.03396
875.497	-40.09049
875.894	60.14273
876.291	15.03493
876.688	-49.12158
877.085	-5.01129
877.482	-12.0288
877.878	-62.14396
878.275	1.00244
878.671	24.04907
879.068	-3.00686
879.464	-19.04339
879.86	4.00905
880.256	-9.02073
880.652	48.11786
881.048	20.0471
881.444	15.03383
881.84	8.01963
882.236	30.07219
882.631	-5.01182
883.027	-13.02963
883.422	-6.01465
883.817	-1.00243
884.213	-6.01475
884.608	-7.01658
885.003	8.01855
885.398	-4.00972
885.793	39.09286
886.188	12.02906
886.582	-23.05558
886.977	-30.06684
887.371	-27.06503
887.766	64.15511
888.16	-28.06645
888.554	-26.05989
888.949	-28.06527
889.343	-16.03709
889.737	32.08356
890.131	33.08038
890.525	-30.07306
890.918	10.02426
891.312	68.15421
891.706	-9.02267
892.099	-40.09698
892.492	-11.02219
892.886	-25.05841
893.279	41.10017
893.672	23.05619
894.065	-30.07128
894.458	-33.07879
894.851	43.09809
895.244	24.05908
895.637	-53.12026
896.029	-18.04214
896.422	-6.01397
896.814	17.04026
897.206	15.03406
897.599	-33.07667
897.991	-12.02774
898.383	1.00223
898.775	20.04242
899.167	-11.02466
899.559	-14.0338
899.951	41.09065
900.342	-30.07252
900.734	2.00481
901.125	-25.06221
901.517	14.03257
901.908	-25.0565
902.299	23.0543
902.69	-3.00666
903.082	-36.0826
903.473	-30.06886
903.863	13.03145
904.254	18.03947
904.645	-31.07279
905.036	1.00233
905.426	13.02767
905.817	12.02803
906.207	14.03238
906.597	18.03979
906.987	-51.12608
907.378	45.10883
907.768	-26.0661
908.158	-2.00459
908.547	3.00748
908.937	-30.07383
909.327	-5.01147
909.717	32.07615
910.106	13.02951
910.495	-39.09226
910.885	40.09607
911.274	18.04298
911.663	6.0144
912.052	13.03037
912.441	30.07271
912.83	4.00862
913.219	-17.04234
913.608	57.13254
913.997	-18.04372
914.385	-33.07351
914.774	-9.02097
915.162	-33.07497
915.55	-42.09621
915.939	-37.08932
916.327	56.13204
916.715	-25.06135
917.103	-20.04642
917.491	3.007
917.878	28.06609
918.266	-33.08203
918.654	-35.08541
919.041	26.06579
919.429	16.03583
919.816	-22.05256
920.203	-9.02075
920.591	-12.02818
920.978	-14.03211
921.365	-23.05803
921.752	10.02266
922.139	-14.02856
922.525	-54.12534
922.912	3.00692
923.299	-2.00477
923.685	44.11023
924.072	70.15059
924.458	-6.01423
924.844	49.11573
925.231	14.03087
925.617	-43.10502
926.003	20.04865
926.389	5.01211
926.774	13.03149
927.16	-9.02113
927.546	33.08239
927.931	-48.11339
928.317	-63.13632
928.702	26.0569
929.088	-42.09354
929.473	-8.01937
929.858	27.06375
930.243	8.01827
930.628	1.00228
931.013	12.02828
931.398	36.07735
931.783	-29.0728
932.167	-30.06985
932.552	47.11204
932.937	17.03965
933.321	-32.07671
933.705	17.04088
934.09	-42.09964
934.474	-10.02226
934.858	18.04493
935.242	31.06866
935.626	2.00493
936.009	-9.02297
936.393	41.09965
936.777	12.02946
937.16	-12.03001
937.544	17.03767
937.927	0
938.311	-33.07579
938.694	-2.00507
939.077	-3.00679
939.46	4.0092
939.843	18.03465
940.226	0
940.609	36.07818
940.991	-1.00243
941.374	-18.0417
941.757	-17.03981
942.139	34.071
942.522	-60.13313
942.904	54.12325
943.286	-37.08895
943.668	-2.00494
944.05	0
944.432	-20.04721
944.814	-29.06762
945.196	34.08029
945.578	4.00915
945.959	35.07793
946.341	24.05471
946.722	-35.07738
947.104	51.11483
947.485	12.02595
947.866	60.14612
948.247	-9.02162
948.628	-26.0598
949.009	-7.01723
949.39	9.02105
949.771	-13.02829
950.152	-21.04912
950.532	-36.08639
950.913	23.0524
951.293	3.00787
951.674	42.09571
952.054	-6.01429
952.434	-23.05426
952.814	10.02239
953.194	43.10654
953.574	47.10725
953.954	-23.05136
954.334	-12.02835
954.714	-14.03294
955.093	-94.21749
955.473	15.03622
955.853	-4.00993
956.232	15.03959
956.611	8.01794
956.99	31.07509
957.37	40.09745
957.749	28.06262
958.128	-10.02428
958.506	20.04963
958.885	-7.01695
959.264	7.01658
959.643	-39.08262
960.021	-21.0496
960.4	2.00426
960.778	-24.05502
961.156	-31.07421
961.535	14.03068
961.913	-23.05062
962.291	-10.02485
962.669	-7.01701
963.047	47.11517
963.424	-4.00979
963.802	3.00699
964.18	19.04545
964.557	32.06902
964.935	-1.00223
965.312	22.05545
965.69	49.11537
966.067	-17.03886
966.444	52.12055
966.821	44.10792
967.198	-14.03183
967.575	-20.04659
967.952	26.0569
968.329	-8.01844
968.705	-18.0355
969.082	-7.01718
969.458	38.08789
969.835	77.17862
970.211	60.14656
970.587	-2.00468
970.963	90.21836
971.339	3.00753
971.715	-6.01431
972.091	8.01887
972.467	-34.07967
972.843	40.09501
973.219	-13.0289
973.594	-40.10006
973.97	14.03104
974.345	-3.00684
974.721	5.01151
975.096	26.0598
975.471	-13.02908
975.846	-8.01802
976.221	-28.06827
976.596	-28.06386
976.971	7.01621
977.346	34.07403
977.72	24.05832
978.095	-2.00494
978.469	9.02021
978.844	13.03084
979.218	-1.00229
979.593	-28.06288
979.967	8.01832
980.341	7.01516
980.715	14.03371
981.089	37.08756
981.463	-9.01932
981.837	-23.05361
982.21	-12.02563
982.584	8.01835
982.957	-10.02413
983.331	-11.02422
983.704	67.15677
984.078	52.12184
984.451	33.07673
984.824	2.00465
985.197	-23.05295
985.57	7.01653
985.943	11.02508
986.316	-18.04142
986.688	20.04543
987.061	1.00221
987.434	-3.0075
987.806	-30.06853
988.179	3.00671
988.551	-7.01681
988.923	10.0233
989.295	37.08681
989.667	-6.0138
990.039	26.06159
990.411	67.14454
990.783	0
991.155	9.02074
991.527	-9.02048
991.898	4.0095
992.27	17.03998
992.641	-32.07662
993.012	6.01312
993.384	48.10788
993.755	-8.01951
994.126	3.00687
994.497	-11.0257
994.868	52.11144
995.239	13.02971
995.61	17.04096
995.98	-17.03895
996.351	24.0572
996.722	17.03776
997.092	-24.05387
997.462	35.07874
997.833	0
998.203	33.07464
998.573	22.05278
998.943	-27.06007
999.313	12.0273
999.683	-23.0528
1000.053	-33.07141
1000.423	52.11859
1000.792	-36.08898
1001.162	24.05604
1001.531	59.13876
1001.901	-10.02383
1002.27	-4.0083
1002.639	23.05644
1003.009	9.02036
1003.378	32.0786
1003.747	-26.05829
1004.116	52.11835
1004.485	-25.05666
1004.853	7.01677
1005.222	46.11111
1005.591	20.0448
1005.959	10.02121
1006.328	25.05287
1006.696	-1.00229
1007.064	-2.00481
1007.433	-20.04734
1007.801	13.02988
1008.169	-28.06727
1008.537	-15.03108
1008.905	51.11314
1009.273	5.01164
1009.64	45.10327
1010.008	-4.00901
1010.375	63.1404
1010.743	55.11692
1011.11	-23.05128
1011.478	19.04434
1011.845	5.01108
1012.212	40.08505
1012.579	-11.02558
1012.946	11.02454
1013.313	-43.09555
1013.68	24.05003
1014.047	18.04137
1014.414	-5.01129
1014.78	22.05201
1015.147	-32.07251
1015.513	8.01819
1015.88	10.02393
1016.246	41.09511
1016.612	12.02547
1016.978	19.0442
1017.344	18.04246
1017.71	-51.11587
1018.076	-28.062
1018.442	-27.06594
1018.808	-31.0743
1019.174	20.04781
1019.539	-16.03361
1019.905	-37.0829
1020.27	4.00945
1020.636	-20.04478
1021.001	-30.06748
1021.366	-29.06685
1021.731	28.06817
1022.096	0
1022.461	11.02453
1022.826	47.10621
1023.191	-8.02013
1023.556	-9.01988
1023.92	10.02321
1024.285	33.07655
1024.649	-35.08087
1025.014	-22.05159
1025.378	-13.03124
1025.742	29.06804
1026.107	27.05677
1026.471	10.02187
1026.835	8.01876
1027.199	26.06006
1027.562	36.07778
1027.926	19.04378
1028.29	1.00242
1028.654	-10.02166
1029.017	0
1029.381	15.03419
1029.744	-12.02948
1030.107	20.04414
1030.471	-6.0134
1030.834	-27.0578
1031.197	5.01117
1031.56	29.06473
1031.923	10.02514
1032.286	2.00431
1032.648	53.11899
1033.011	8.01731
1033.374	52.11475
1033.736	6.01533
1034.099	-4.00928
1034.461	26.0633
1034.823	19.04503
1035.185	3.00718
1035.548	11.02519
1035.91	-2.00458
1036.272	15.03203
1036.634	-5.01145
1036.995	23.0509
1037.357	14.03268
1037.719	45.10368
1038.08	-11.02468
1038.442	-11.02477
1038.803	43.09757
1039.165	20.04829
1039.526	-29.06647
1039.887	53.11968
1040.248	-57.13463
1040.609	16.03712
1040.97	-26.05994
1041.331	-12.02891
1041.692	31.06908
1042.053	-24.05139
1042.413	-10.02184
1042.774	-43.0986
1043.134	-13.02907
1043.495	71.17016
1043.855	41.09322
1044.215	3.00704
1044.576	-22.05038
1044.936	-4.00842
1045.296	20.0473
1045.656	32.07457
1046.016	9.02061
1046.375	-14.03224
1046.735	50.10692
1047.095	39.08724
1047.454	8.01543
1047.814	-2.00456
1048.173	39.08778
1048.533	-6.01307
1048.892	18.0419
1049.251	-23.05479
1049.61	6.01412
1049.969	53.1185
1050.328	-14.028
1050.687	-38.08824
1051.046	15.03448
1051.405	-7.0166
1051.763	-14.03068
1052.122	64.15265
1052.48	-55.12819
1052.839	3.0067
1053.197	-13.02922
1053.555	-11.02303
1053.914	-1.00231
1054.272	-19.04341
1054.63	2.00469
1054.988	-1.00227
1055.345	-21.04227
1055.703	-11.02485
1056.061	-2.00492
1056.419	14.03514
1056.776	-21.04786
1057.134	51.11201
1057.491	-9.02121
1057.848	-13.03073
1058.206	34.07572
1058.563	27.05557
1058.92	-3.00647
1059.277	3.00701
1059.634	-25.05472
1059.991	10.02256
1060.348	0
1060.704	7.01597
1061.061	-20.04323
1061.418	34.07932
1061.774	-20.04745
1062.131	11.02808
1062.487	0
1062.843	-2.00474
1063.199	1.00236
1063.555	-64.13982
1063.911	-12.02879
1064.267	56.10614
1064.623	64.1492
1064.979	32.07017
1065.335	-2.00452
1065.691	7.01585
1066.046	16.03318
1066.402	22.04749
1066.757	3.00721
1067.112	-25.05804
1067.468	63.14185
1067.823	10.02276
1068.178	18.04072
1068.533	-37.0843
1068.888	5.01112
1069.243	-19.04453
1069.598	28.0644
1069.952	22.04727
1070.307	-10.0238
1070.662	-37.08355
1071.016	14.0299
1071.371	-11.02344
1071.725	6.0135
1072.079	-46.10495
1072.434	7.01622
1072.788	16.03593
1073.142	2.00462
1073.496	7.01585
1073.85	15.03258
1074.203	43.09777
1074.557	16.04089
1074.911	42.09366
1075.265	48.1046
1075.618	-6.01372
1075.971	-14.03184
1076.325	-12.02943
1076.678	9.01967
1077.031	17.03645
1077.385	3.00611
1077.738	-49.10403
1078.091	-37.07992
1078.444	59.12777
1078.796	17.04011
1079.149	-11.02586
1079.502	-23.05198
1079.855	-20.04419
1080.207	18.04178
1080.56	-5.01233
1080.912	2.00462
1081.264	23.05234
1081.617	-4.00928
1081.969	9.02199
1082.321	-9.02091
1082.673	22.04814
1083.025	8.01805
1083.377	302.6424
1083.728	42.09164
1084.08	17.04071
1084.432	-11.02493
1084.783	15.03303
1085.135	-9.02159
1085.486	52.11355
1085.838	-41.0959
1086.189	41.0953
1086.54	16.03594
1086.891	-50.12209
1087.242	6.01367
1087.593	28.06373
1087.944	-24.05103
1088.295	17.03571
1088.646	-40.09218
1088.996	-33.07567
1089.347	-7.01648
1089.698	22.04975
1090.048	-18.04413
1090.398	3.00651
1090.749	-11.02465
1091.099	-15.03637
1091.449	32.07606
1091.799	31.07325
1092.149	16.03787
1092.499	0
1092.849	43.10423
1093.199	8.01902
1093.548	-2.00455
1093.898	-37.0881
1094.248	-8.01941
1094.597	38.09441
1094.947	32.08167
1095.296	-35.08206
1095.645	4.00982
1095.994	-11.02497
1096.343	-66.15833
1096.692	9.02288
1097.041	4.01062
1097.39	-103.24403
1097.739	-7.01734
1098.088	-22.05613
1098.437	25.06402
1098.785	25.06435
1099.134	10.0253
1099.482	15.03984
1099.83	-26.06525
1100.179	44.11091
1100.527	20.0512
1100.875	-24.06172
1101.223	5.01269
1101.571	-21.05646
1101.919	15.03858
1102.267	6.01646
1102.615	-2.00643
1102.962	-2.00642
1103.31	10.03212
1103.658	4.01283
