Data from N3 R9 sample 11_Subt2__5__14-44-09-077.txt Node

Date: Mon Sep 22 14:44:09 PDT 2025
User: uwsun
Spectrometer: HDX01956
Trigger mode: 0
Integration Time (sec): 5.000000E-1
Scans to average: 1
Nonlinearity correction enabled: true
Boxcar width: 0
Storing dark spectrum: false
XAxis mode: Wavelengths
Number of Pixels in Spectrum: 2068
>>>>>Begin Spectral Data<<<<<
194.03	23.0667
194.578	32.10366
195.127	55.17556
195.676	26.0833
196.225	52.1374
196.773	27.07437
197.321	59.1641
197.87	83.2126
198.418	119.30492
198.966	140.36742
199.513	98.24781
200.061	129.32811
200.609	123.32341
201.156	120.26448
201.704	164.41247
202.251	104.27682
202.798	144.37381
203.345	108.26547
203.892	113.28528
204.438	110.25663
204.985	144.34136
205.532	85.22584
206.078	134.32609
206.624	158.38909
207.17	137.31477
207.716	162.39437
208.262	86.17074
208.808	122.30563
209.354	110.27129
209.899	174.43935
210.445	140.35186
210.99	117.28552
211.535	106.24671
212.08	156.36494
212.625	109.27302
213.17	105.26148
213.715	75.16928
214.259	149.34481
214.804	134.32877
215.348	116.26828
215.892	121.288
216.436	105.24086
216.98	151.33064
217.524	119.28248
218.068	91.22488
218.612	113.27987
219.155	138.32296
219.698	85.19983
220.242	80.19716
220.785	178.41232
221.328	158.3878
221.871	68.1682
222.414	122.29711
222.956	61.1467
223.499	115.25936
224.041	125.28617
224.583	169.35394
225.126	100.21735
225.668	79.19085
226.21	140.34781
226.751	140.30222
227.293	133.29786
227.835	109.26362
228.376	64.14578
228.918	132.3283
229.459	90.22392
230	87.20509
230.541	136.30778
231.082	40.09658
231.622	90.20401
232.163	137.32833
232.704	112.27429
233.244	106.26008
233.784	101.24353
234.324	53.11561
234.864	87.1942
235.404	137.32119
235.944	173.40574
236.484	60.14656
237.023	114.26617
237.563	117.26645
238.102	75.17467
238.641	92.2304
239.18	109.25485
239.719	85.20913
240.258	92.20311
240.797	108.25652
241.335	131.31479
241.874	133.24845
242.412	135.31749
242.95	134.31986
243.488	95.21302
244.026	116.26828
244.564	162.32553
245.102	120.26703
245.64	107.25223
246.177	153.33771
246.715	135.31563
247.252	108.24402
247.789	124.22424
248.326	89.21395
248.863	100.21735
249.4	141.30992
249.936	138.27846
250.473	124.28473
251.009	114.25841
251.546	131.28297
252.082	149.32296
252.618	135.29698
253.154	111.264
253.69	73.16315
254.226	114.2692
254.761	116.25588
255.297	110.23705
255.832	131.3088
256.367	114.26533
256.903	128.27537
257.438	178.41314
257.972	115.25033
258.507	164.37522
259.042	150.3245
259.576	124.26343
260.111	120.27113
260.645	138.29023
261.179	136.31379
261.713	126.27945
262.247	174.39666
262.781	147.30664
263.315	128.31149
263.849	94.23217
264.382	117.26451
264.915	136.31441
265.449	120.29323
265.982	139.31079
266.515	157.37426
267.048	10.02103
267.58	126.26733
268.113	65.13872
268.646	161.39201
269.178	164.36888
269.71	128.27394
270.243	116.25728
270.775	128.31904
271.307	113.2672
271.838	121.28068
272.37	152.37169
272.902	134.29868
273.433	110.23746
273.965	115.27498
274.496	172.42028
275.027	144.35422
275.558	119.28465
276.089	158.39238
276.62	145.36632
277.15	159.38338
277.681	160.33784
278.211	186.44499
278.741	117.25728
279.272	148.33507
279.802	196.48141
280.332	144.33449
280.861	128.30261
281.391	94.21161
281.921	125.29638
282.45	148.36514
282.98	135.34689
283.509	164.3654
284.038	64.14419
284.567	137.3125
285.096	163.38796
285.625	124.27651
286.153	169.38985
286.682	171.38643
287.21	130.30793
287.739	112.26099
288.267	151.36216
288.795	174.45106
289.323	126.2906
289.851	135.30856
290.378	146.32489
290.906	145.35253
291.433	149.36442
291.961	155.34513
292.488	150.36775
293.015	136.31391
293.542	122.30376
294.069	176.42717
294.596	213.51163
295.122	124.28895
295.649	196.41947
296.175	164.38967
296.702	147.34477
297.228	229.54357
297.754	122.26494
298.28	198.44279
298.806	153.36164
299.332	217.47997
299.857	206.45916
300.383	122.30099
300.908	190.45422
301.433	190.45491
301.958	193.43686
302.483	160.3943
303.008	189.45829
303.533	196.49595
304.058	151.34597
304.582	164.3805
305.107	116.3002
305.631	136.30138
306.155	208.47474
306.679	244.56362
307.203	148.33698
307.727	176.40656
308.251	168.40439
308.775	166.3894
309.298	128.30261
309.822	179.44331
310.345	250.57909
310.868	204.48097
311.391	164.39266
311.914	220.54015
312.437	163.36264
312.96	150.34733
313.482	176.40995
314.005	184.45445
314.527	163.42262
315.049	219.53641
315.571	204.4466
316.093	193.46306
316.615	200.4752
317.137	248.52616
317.659	228.53942
318.18	197.46401
318.702	186.42264
319.223	273.53807
319.744	245.53442
320.265	219.52384
320.786	245.59094
321.307	248.59625
321.828	215.47296
322.348	185.42352
322.869	249.57048
323.389	480.82524
323.909	212.47077
324.43	254.58322
324.95	256.57603
325.47	270.64593
325.989	270.61623
326.509	261.56063
327.029	231.50794
327.548	326.71395
328.067	276.6431
328.587	219.52963
329.106	296.64416
329.625	263.65417
330.144	279.61838
330.662	327.73922
331.181	253.56543
331.7	283.6322
332.218	296.61428
332.736	290.64985
333.255	319.70732
333.773	305.6982
334.291	282.67669
334.808	298.64107
335.326	314.67897
335.844	323.7275
336.361	362.87916
336.879	338.74367
337.396	397.9113
337.913	379.83648
338.43	339.72126
338.947	304.6871
339.464	385.79059
339.981	369.83415
340.497	352.83079
341.014	365.84725
341.53	364.77394
342.046	391.91081
342.562	314.74457
343.078	407.89714
343.594	377.85084
344.11	407.91703
344.626	374.88715
345.141	388.83142
345.657	421.8879
346.172	431.97188
346.687	429.92462
347.202	387.8076
347.717	483.08174
348.232	421.9772
348.747	447.95927
349.261	431.87945
349.776	444.97356
350.29	452.05466
350.805	417.96294
351.319	514.10088
351.833	451.94449
352.347	520.13053
352.861	480.02527
353.374	486.01388
353.888	486.08601
354.401	487.02834
354.915	463.95718
355.428	516.18111
355.941	510.08994
356.454	525.06799
356.967	468.01341
357.48	566.18632
357.993	507.13232
358.505	571.27967
359.018	544.19632
359.53	610.33829
360.042	578.16292
360.554	558.21379
361.066	568.25962
361.578	634.23595
362.09	564.20867
362.602	550.10191
363.113	595.24253
363.625	549.11183
364.136	608.18237
364.647	621.32097
365.158	685.42252
365.669	605.29359
366.18	638.35276
366.691	681.33245
367.201	579.23578
367.712	660.33306
368.222	652.30784
368.733	676.29862
369.243	724.40636
369.753	667.36416
370.263	661.39336
370.773	646.40844
371.282	710.45844
371.792	683.38936
372.301	754.59344
372.811	754.73266
373.32	803.47533
373.829	757.54987
374.338	814.55219
374.847	825.63141
375.356	931.86531
375.865	918.65037
376.373	1025.92276
376.882	951.98599
377.39	989.96888
377.898	988.02305
378.407	1004.82933
378.915	1138.94089
379.423	1143.14844
379.93	1152.04673
380.438	1198.27133
380.946	1306.3108
381.453	1360.45016
381.96	1398.48452
382.468	1452.46226
382.975	1531.64078
383.482	1587.42233
383.989	1692.0257
384.495	1757.62882
385.002	1835.37707
385.509	1882.84123
386.015	1992.2367
386.521	2074.69973
387.028	2279.8672
387.534	2276.63314
388.04	2343.00447
388.546	2541.86011
389.051	2576.71871
389.557	2802.07658
390.063	2911.80495
390.568	3077.09052
391.073	3195.68502
391.578	3265.23261
392.084	3415.76463
392.589	3514.34403
393.093	3833.76345
393.598	4091.37759
394.103	4561.48108
394.607	5006.12343
395.112	5341.12002
395.616	5638.79313
396.12	6075.26881
396.624	6739.30508
397.128	7265.49619
397.632	8230.17029
398.136	8654.70651
398.639	9295.01494
399.143	10394.13984
399.646	11611.98952
400.15	13017.22824
400.653	14218.60543
401.156	15950.92549
401.659	18757.51237
402.162	22739.63254
402.664	30037.31692
403.167	42513.42409
403.67	57698.97303
404.172	52566.9044
404.674	31176.06428
405.176	3757.7064
405.678	27.69154
406.18	0
406.682	0
407.184	45159.96023
407.686	58897.86778
408.187	61455.21265
408.688	62150.63916
409.19	53280.04855
409.691	42792.62807
410.192	36229.0616
410.693	31440.97697
411.194	28700.0831
411.694	27149.45285
412.195	25385.9252
412.696	23128.2331
413.196	21234.8103
413.696	20681.1329
414.196	20963.23735
414.696	20560.87576
415.196	19545.61324
415.696	17853.9064
416.196	14487.80717
416.695	11150.5598
417.195	9473.43935
417.694	9049.55146
418.194	8640.64291
418.693	7936.73341
419.192	7655.59013
419.691	7418.43856
420.19	7365.57023
420.688	7094.56498
421.187	6950.83903
421.685	6475.26573
422.184	5738.52366
422.682	5043.46367
423.18	4300.34451
423.678	3742.62454
424.176	3426.65207
424.674	3255.56019
425.172	3161.96344
425.669	3026.36325
426.167	2803.89234
426.664	2547.85251
427.161	2317.85972
427.659	2170.00448
428.156	2030.39758
428.652	1918.08673
429.149	1807.84786
429.646	1780.44002
430.143	1571.59658
430.639	1596.55132
431.135	1491.64043
431.632	1401.26685
432.128	1244.2154
432.624	1220.4015
433.12	1152.97747
433.616	1180.87456
434.111	1103.00933
434.607	1066.99737
435.103	1045.6662
435.598	947.46813
436.093	990.81467
436.588	860.53718
437.083	850.51614
437.578	815.53044
438.073	811.68747
438.568	713.45573
439.062	757.32035
439.557	701.38718
440.051	741.40081
440.546	651.29531
441.04	627.29903
441.534	606.33285
442.028	548.12272
442.522	598.23251
443.015	577.08122
443.509	583.22981
444.002	558.18189
444.496	563.07364
444.989	518.10946
445.482	527.16058
445.975	547.08856
446.468	443.84607
446.961	494.91995
447.454	510.01409
447.947	430.89952
448.439	435.93996
448.931	444.88561
449.424	452.99985
449.916	468.98507
450.408	414.82309
450.9	432.94087
451.392	378.85327
451.884	391.78262
452.375	381.84406
452.867	379.75298
453.358	384.78053
453.849	390.73346
454.341	415.82873
454.832	339.64742
455.323	357.78596
455.814	385.78988
456.304	312.64662
456.795	358.72934
457.285	316.62766
457.776	314.63417
458.266	312.66858
458.756	379.82318
459.247	280.60675
459.737	282.6103
460.226	379.76949
460.716	313.66855
461.206	250.54822
461.695	295.66771
462.185	251.54217
462.674	298.61871
463.163	316.63675
463.653	287.54093
464.142	237.5207
464.63	203.45481
465.119	311.66227
465.608	235.49695
466.096	293.58293
466.585	194.40693
467.073	253.55304
467.561	220.48955
468.05	292.62519
468.538	200.44984
469.026	230.5101
469.513	285.56173
470.001	245.52082
470.489	204.44848
470.976	203.43361
471.463	128.29533
471.951	171.39635
472.438	198.4331
472.925	193.4251
473.412	221.50308
473.899	162.34476
474.385	167.37939
474.872	205.45229
475.359	132.30347
475.845	217.41341
476.331	236.47401
476.817	151.34541
477.303	224.48893
477.789	195.43959
478.275	131.30952
478.761	151.34054
479.247	135.28236
479.732	123.29141
480.218	163.40059
480.703	164.38591
481.188	98.19875
481.673	89.19349
482.158	169.34297
482.643	107.25702
483.128	69.14981
483.612	140.31024
484.097	151.34485
484.581	88.19225
485.066	78.17832
485.55	90.18586
486.034	135.27535
486.518	68.15352
487.002	114.26931
487.486	69.16164
487.969	92.21649
488.453	119.28704
488.936	110.23827
489.42	73.15262
489.903	110.26508
490.386	77.16811
490.869	118.24281
491.352	126.29407
491.835	91.17758
492.318	53.11576
492.8	58.1144
493.283	48.11742
493.765	60.14262
494.247	39.08648
494.73	32.06804
495.212	12.02758
495.694	18.04094
496.175	13.0303
496.657	22.04981
497.139	41.06706
497.62	25.0576
498.102	90.21409
498.583	48.11541
499.064	4.00871
499.545	32.07094
500.026	39.08453
500.507	0
500.988	-18.04305
501.469	56.13638
501.949	55.13046
502.43	55.12738
502.91	-9.01807
503.39	-3.00723
503.87	76.1727
504.35	-18.04027
504.83	65.13764
505.31	25.05831
505.79	25.05788
506.269	35.078
506.749	29.06476
507.228	23.05206
507.707	59.12537
508.187	25.05673
508.666	27.06431
509.145	-66.14979
509.623	11.02485
510.102	-2.00462
510.581	23.0528
511.059	-2.00484
511.538	-52.1291
512.016	17.03843
512.494	53.12319
512.972	-13.02975
513.45	51.1153
513.928	-9.02107
514.406	29.06754
514.884	39.09571
515.361	55.12429
515.839	112.24375
516.316	74.16945
516.793	84.20189
517.27	37.08529
517.747	109.26719
518.224	21.04624
518.701	83.17406
519.178	7.01671
519.654	25.05622
520.131	25.05923
520.607	104.24244
521.083	55.11932
521.56	71.15993
522.036	74.1533
522.512	42.09822
522.987	27.06204
523.463	11.02501
523.939	64.14826
524.414	30.06518
524.89	31.07094
525.365	-30.06504
525.84	-16.03705
526.315	-22.05114
526.79	-7.01502
527.265	14.03038
527.74	7.01651
528.215	-40.09086
528.689	-29.06111
529.164	-29.05993
529.638	-4.00992
530.112	-9.02055
530.587	25.05115
531.061	-34.0786
531.534	-20.04637
532.008	-13.0301
532.482	-16.03506
532.956	-27.06641
533.429	-24.05577
533.903	0
534.376	-37.07821
534.849	-54.12007
535.322	-73.16551
535.795	-56.13003
536.268	-6.0139
536.741	-63.14574
537.213	-119.26596
537.686	-60.1413
538.158	-31.06762
538.631	-71.16587
539.103	-58.12633
539.575	-93.18468
540.047	-88.18475
540.519	-127.29145
540.991	-73.17208
541.463	-44.1037
541.934	-79.17416
542.406	-62.1418
542.877	5.01104
543.348	-69.15936
543.82	-16.03755
544.291	-35.07884
544.762	-68.15477
545.233	-24.05777
545.703	-57.12165
546.174	-53.11948
546.645	-33.07734
547.115	-26.06085
547.585	-39.08677
548.056	-20.04686
548.526	19.04304
548.996	-15.03446
549.466	-17.04017
549.935	-36.08326
550.405	-14.0296
550.875	-21.04779
551.344	-21.04854
551.814	-11.02419
552.283	29.0599
552.752	11.02465
553.221	35.07389
553.69	50.10683
554.159	39.09215
554.628	19.0409
555.096	3.00734
555.565	-5.01059
556.033	25.05585
556.502	-20.04633
556.97	-23.0486
557.438	-9.02026
557.906	-48.10766
558.374	20.04423
558.842	32.07245
559.31	0
559.777	32.07492
560.245	-1.0022
560.712	20.0439
561.18	-10.02103
561.647	99.20963
562.114	87.18801
562.581	60.13998
563.048	42.09039
563.514	16.03727
563.981	20.04321
564.448	138.29471
564.914	53.11576
565.381	61.13002
565.847	104.22566
566.313	37.08081
566.779	107.22489
567.245	83.18297
567.711	141.31838
568.176	68.14219
568.642	80.18957
569.108	89.20572
569.573	78.16975
570.038	129.24779
570.504	166.34342
570.969	155.36168
571.434	155.31427
571.899	119.2608
572.363	151.3203
572.828	171.35496
573.293	203.42402
573.757	151.31694
574.222	157.32182
574.686	176.36787
575.15	158.34663
575.614	164.34522
576.078	219.47305
576.542	174.36078
577.006	215.4435
577.469	163.36685
577.933	146.29826
578.396	175.38222
578.86	126.27095
579.323	186.40754
579.786	143.28264
580.249	105.22098
580.712	179.40534
581.175	126.28724
581.637	115.24021
582.1	119.23609
582.563	76.14792
583.025	117.26387
583.487	97.18138
583.95	147.29232
584.412	116.22578
584.874	63.14016
585.336	90.20011
585.797	95.1905
586.259	39.08482
586.721	37.08136
587.182	10.02132
587.643	36.07545
588.105	50.11066
588.566	92.17617
589.027	47.10678
589.488	-36.07708
589.949	124.27582
590.41	20.037
590.87	97.20333
591.331	36.07157
591.791	67.14318
592.252	28.06
592.712	5.01134
593.172	-8.01678
593.632	19.03851
594.092	67.13895
594.552	2.00399
595.011	-9.01927
595.471	-6.01233
595.931	9.01883
596.39	33.07369
596.849	26.05613
597.308	20.04024
597.768	36.0858
598.227	85.19068
598.685	80.16929
599.144	88.19241
599.603	9.01953
600.062	53.10417
600.52	107.21983
600.978	67.14615
601.437	68.14055
601.895	125.24243
602.353	41.08271
602.811	51.10279
603.269	124.26802
603.727	150.32672
604.184	153.31689
604.642	111.2448
605.099	143.29989
605.557	134.29497
606.014	214.40998
606.471	158.35946
606.928	166.32602
607.385	226.50811
607.842	191.38903
608.299	246.50231
608.755	281.60177
609.212	316.61448
609.668	284.55357
610.125	359.7525
610.581	360.73175
611.037	293.57586
611.493	279.5781
611.949	354.75071
612.405	370.63027
612.861	396.78987
613.316	386.78924
613.772	415.81104
614.227	334.68943
614.683	409.73724
615.138	368.74903
615.593	392.8026
616.048	435.84328
616.503	388.82855
616.958	426.9337
617.412	396.82327
617.867	359.68562
618.321	353.61641
618.776	379.71189
619.23	389.79123
619.684	350.66698
620.138	312.61914
620.592	374.78792
621.046	338.6886
621.5	356.76187
621.954	327.6242
622.407	323.61806
622.861	339.73255
623.314	318.61012
623.768	309.63052
624.221	371.63795
624.674	282.56745
625.127	290.59619
625.58	300.58754
626.033	267.51041
626.485	231.50026
626.938	294.62185
627.39	302.6133
627.843	228.46598
628.295	253.52141
628.747	257.53823
629.199	217.43998
629.651	231.47543
630.103	235.48475
630.555	229.42991
631.006	215.45426
631.458	210.45177
631.909	157.31658
632.361	179.37621
632.812	162.34506
633.263	217.41522
633.714	160.30845
634.165	162.356
634.616	140.30636
635.067	161.32375
635.518	195.41634
635.968	197.35034
636.419	106.20946
636.869	180.3884
637.319	159.3355
637.769	128.26398
638.219	128.27738
638.669	95.21276
639.119	157.35263
639.569	178.39889
640.019	140.29392
640.468	160.32997
640.918	177.3915
641.367	142.28851
641.816	173.35061
642.265	152.3246
642.714	197.4113
643.163	177.37332
643.612	183.4149
644.061	257.49987
644.51	239.50032
644.958	185.37201
645.406	163.35888
645.855	169.3788
646.303	211.44503
646.751	180.37422
647.199	204.42355
647.647	246.51736
648.095	229.48151
648.543	208.37903
648.99	225.496
649.438	219.46373
649.885	251.56952
650.333	228.39086
650.78	233.51708
651.227	198.44096
651.674	232.48233
652.121	197.44282
652.568	207.46377
653.015	201.46089
653.461	202.44857
653.908	241.50718
654.354	186.40272
654.801	209.4588
655.247	207.41413
655.693	241.58436
656.139	265.58735
656.585	143.3159
657.031	168.36608
657.477	187.37377
657.922	143.30823
658.368	164.37296
658.813	202.43082
659.259	179.39906
659.704	196.42673
660.149	176.3814
660.594	138.30403
661.039	173.36777
661.484	153.33502
661.929	192.41909
662.373	96.23205
662.818	67.15604
663.262	157.35812
663.707	135.32637
664.151	96.22009
664.595	125.2872
665.039	66.15434
665.483	124.29893
665.927	133.29504
666.371	148.32852
666.814	80.18024
667.258	139.31348
667.701	150.29655
668.145	126.29384
668.588	50.11803
669.031	116.26231
669.474	84.19296
669.917	134.2776
670.36	76.18058
670.803	63.14382
671.245	67.13087
671.688	117.27205
672.13	117.24992
672.573	66.15941
673.015	126.28538
673.457	107.22251
673.899	105.23903
674.341	86.19898
674.783	78.1809
675.225	43.10144
675.666	69.15949
676.108	114.23786
676.549	84.19118
676.991	75.15847
677.432	92.17642
677.873	101.22247
678.314	111.25289
678.755	54.12643
679.196	68.15082
679.637	121.28035
680.078	35.07735
680.518	54.12007
680.959	59.13545
681.399	96.22959
681.839	54.12663
682.28	113.26958
682.72	97.21204
683.16	84.20182
683.6	95.20512
684.039	97.18929
684.479	76.17968
684.919	112.25068
685.358	27.06528
685.798	100.25494
686.237	59.13572
686.676	20.04336
687.115	90.2036
687.554	91.20724
687.993	93.1952
688.432	31.068
688.871	54.11822
689.309	103.23609
689.748	-11.02181
690.186	91.20632
690.625	83.18803
691.063	20.046
691.501	48.11304
691.939	108.2578
692.377	61.14413
692.815	92.21345
693.253	21.04827
693.69	44.09213
694.128	66.15301
694.565	69.15981
695.003	87.21271
695.44	55.12536
695.877	26.05896
696.314	57.11562
696.751	90.19703
697.188	74.16412
697.625	35.07573
698.061	66.15331
698.498	101.23336
698.934	55.12693
699.371	33.07528
699.807	52.11735
700.243	98.22602
700.679	50.10794
701.115	22.04918
701.551	49.11064
701.987	45.09529
702.422	101.23215
702.858	38.08708
703.294	111.23864
703.729	85.19905
704.164	51.11868
704.599	12.02572
705.035	66.14278
705.47	21.04979
705.904	38.08568
706.339	56.12358
706.774	72.16142
707.209	45.10045
707.643	80.18554
708.078	87.2066
708.512	70.17194
708.946	63.14527
709.38	41.09337
709.814	33.07156
710.248	44.10439
710.682	23.05287
711.116	72.16983
711.549	25.06251
711.983	-1.00224
712.416	88.19721
712.85	-8.01918
713.283	3.00688
713.716	63.15064
714.149	24.05456
714.582	1.00214
715.015	82.19768
715.448	27.06508
715.881	32.06605
716.313	21.04717
716.746	47.10652
717.178	16.03717
717.61	8.01959
718.043	51.12204
718.475	39.09186
718.907	51.12316
719.339	41.09042
719.77	10.02301
720.202	40.09862
720.634	90.21113
721.065	28.06368
721.497	-10.02357
721.928	25.05996
722.359	43.10089
722.79	36.08419
723.221	45.10994
723.652	53.13059
724.083	58.12628
724.514	44.09812
724.945	52.11893
725.375	50.11412
725.806	42.10033
726.236	56.13903
726.666	56.12735
727.096	22.05195
727.526	12.02972
727.956	15.03262
728.386	68.15989
728.816	47.11653
729.246	-7.01656
729.675	42.10018
730.105	18.04259
730.534	-13.0291
730.964	36.08744
731.393	39.09329
731.822	31.07582
732.251	31.07644
732.68	88.19615
733.109	70.16568
733.537	47.11019
733.966	36.0862
734.395	17.03746
734.823	0
735.251	24.05619
735.68	13.03105
736.108	52.12763
736.536	19.04264
736.964	36.08058
737.392	53.12823
737.82	78.17954
738.247	18.04095
738.675	-2.00452
739.102	0
739.53	10.02479
739.957	20.04942
740.384	55.12834
740.811	5.01215
741.238	4.00941
741.665	25.05643
742.092	-10.02263
742.519	10.02412
742.945	9.02098
743.372	29.069
743.798	37.09197
744.225	72.16586
744.651	-2.00482
745.077	21.0509
745.503	-4.00936
745.929	14.0323
746.355	32.07483
746.781	10.02394
747.207	8.01832
747.632	-1.00237
748.058	-18.043
748.483	37.0804
748.908	20.04858
749.334	-1.00237
749.759	-5.0113
750.184	40.09215
750.609	52.12237
751.033	24.05372
751.458	24.0509
751.883	69.16486
752.307	-3.00684
752.732	58.14189
753.156	31.07421
753.58	-20.04515
754.005	23.05582
754.429	27.06057
754.853	-4.00958
755.277	39.08832
755.7	9.02141
756.124	84.20067
756.548	3.0069
756.971	12.02794
757.394	70.17505
757.818	64.16143
758.241	40.09745
758.664	55.13502
759.087	32.0692
759.51	-37.08861
759.933	9.02109
760.356	56.13938
760.778	27.06412
761.201	63.14631
761.623	32.07513
762.046	16.03603
762.468	28.06303
762.89	62.14692
763.312	4.00926
763.734	40.09281
764.156	35.08363
764.578	70.15351
765	0
765.421	15.03737
765.843	34.08585
766.264	3.00692
766.686	71.17107
767.107	-15.03502
767.528	7.01724
767.949	27.06655
768.37	51.12032
768.791	9.02102
769.212	0
769.632	19.04278
770.053	34.08686
770.473	35.08122
770.894	28.06789
771.314	-13.02916
771.734	-15.03366
772.154	17.04215
772.575	63.13772
772.994	-17.03782
773.414	58.13281
773.834	1.00241
774.254	-45.10583
774.673	60.13987
775.093	41.09927
775.512	-44.10471
775.931	-10.02437
776.351	1.0024
776.77	39.09308
777.189	32.07342
777.607	-7.01732
778.026	4.0097
778.445	-13.03188
778.864	12.02963
779.282	35.08113
779.701	12.02926
780.119	-45.11035
780.537	35.08494
780.955	40.09734
781.373	-30.07172
781.791	8.01724
782.209	1.00217
782.627	-23.0592
783.045	14.03104
783.462	-26.06441
783.88	4.01007
784.297	20.04871
784.715	-22.05555
785.132	1.00235
785.549	52.12541
785.966	-3.0073
786.383	43.10207
786.8	25.05504
787.217	21.04754
787.633	16.03901
788.05	-17.03748
788.466	2.00449
788.883	26.065
789.299	14.03266
789.715	31.07228
790.131	-5.01195
790.547	7.0168
790.963	39.09368
791.379	66.1614
791.795	-11.0238
792.21	12.02683
792.626	42.09486
793.041	12.02882
793.457	2.00476
793.872	15.0342
794.287	-3.00704
794.702	21.04952
795.117	23.05554
795.532	25.06076
795.947	-53.12026
796.362	-9.02041
796.776	-11.0242
797.191	25.05861
797.605	-7.01606
798.02	-18.04226
798.434	-16.03344
798.848	8.01917
799.262	28.06753
799.676	-51.11793
800.09	-3.00709
800.504	-18.04196
800.918	0
801.331	-10.02525
801.745	-26.05719
802.158	17.04082
802.572	-32.07442
802.985	-24.05507
803.398	35.07958
803.811	27.06638
804.224	-28.06663
804.637	-26.06063
805.05	-13.02861
805.462	6.01419
805.875	-7.01777
806.288	-33.07716
806.7	22.05298
807.112	11.02437
807.525	1.00233
807.937	53.12775
808.349	3.00722
808.761	27.06397
809.173	-11.02563
809.584	-29.06865
809.996	36.08557
810.408	28.07025
810.819	-34.07754
811.231	50.12747
811.642	53.12586
812.053	52.12127
812.464	92.21252
812.875	27.06572
813.286	-14.03507
813.697	-23.05028
814.108	15.03514
814.519	21.04388
814.929	37.09117
815.34	15.03482
815.75	9.02223
816.16	-12.02863
816.571	3.00753
816.981	6.01352
817.391	-4.00935
817.801	-14.03383
818.211	-7.01586
818.62	-19.04369
819.03	8.01883
819.44	21.05237
819.849	62.15015
820.259	16.03916
820.668	-54.12772
821.077	34.08125
821.486	18.04115
821.895	6.01423
822.304	-34.0875
822.713	-34.07742
823.122	32.0765
823.531	-47.10682
823.939	-23.05375
824.348	52.12141
824.756	0
825.164	12.02886
825.573	-5.01213
825.981	53.12591
826.389	-27.06466
826.797	-22.0531
827.205	28.06171
827.612	-19.04508
828.02	31.07011
828.428	27.06604
828.835	-10.02551
829.243	-10.0227
829.65	15.03605
830.057	3.00701
830.464	16.03784
830.871	-33.0747
831.278	5.01155
831.685	17.03579
832.092	26.06121
832.499	22.04492
832.905	-6.01445
833.312	-35.07541
833.718	35.08375
834.124	55.11952
834.531	25.06005
834.937	5.01222
835.343	-16.03649
835.749	-16.03515
836.155	18.04514
836.561	8.01903
836.966	-4.00924
837.372	8.01954
837.777	45.10801
838.183	-7.01463
838.588	75.17934
838.993	19.04411
839.399	3.00703
839.804	7.01653
840.209	-20.04874
840.613	-12.02513
841.018	-40.09745
841.423	-36.08869
841.828	12.02941
842.232	34.08007
842.637	54.12111
843.041	-30.07489
843.445	5.01223
843.849	29.06911
844.253	17.03854
844.657	3.00735
845.061	-60.13019
845.465	4.00919
845.869	18.03979
846.272	25.0588
846.676	13.03
847.079	-2.00492
847.483	-25.05907
847.886	3.00683
848.289	-19.04942
848.692	-13.03193
849.095	-1.00231
849.498	11.02614
849.901	-32.07065
850.304	8.01811
850.707	-1.00244
851.109	18.04325
851.512	-38.08973
851.914	18.04439
852.316	-38.09268
852.718	-21.05311
853.121	-6.01409
853.523	-18.03997
853.925	9.02309
854.326	-14.03387
854.728	-27.06785
855.13	14.03528
855.531	0
855.933	40.09126
856.334	-28.06727
856.736	23.0493
857.137	24.05347
857.538	31.07546
857.939	17.04028
858.34	25.0579
858.741	-28.0708
859.142	-13.02992
859.542	11.02816
859.943	25.05964
860.343	-18.04297
860.744	-11.02593
861.144	25.05884
861.544	58.13516
861.945	41.10035
862.345	0
862.745	7.01677
863.145	-44.09864
863.544	18.04351
863.944	-23.05196
864.344	66.15592
864.743	50.11683
865.143	0
865.542	23.05058
865.941	-25.05928
866.34	-33.07522
866.74	3.00772
867.139	77.17748
867.537	-13.03176
867.936	11.02508
868.335	7.01717
868.734	8.01974
869.132	-37.0814
869.531	22.0506
869.929	-11.02414
870.327	-14.03246
870.726	-11.0259
871.124	-51.11262
871.522	22.05402
871.92	-24.0559
872.318	-1.00233
872.715	27.06333
873.113	5.01164
873.511	21.05033
873.908	10.02461
874.306	7.01674
874.703	-3.00715
875.1	5.01219
875.497	-29.06674
875.894	-26.06166
876.291	-4.00935
876.688	29.07256
877.085	-39.08882
877.482	-15.03594
877.878	20.0462
878.275	-26.06372
878.671	43.08874
879.068	-15.03466
879.464	8.01834
879.86	83.18818
880.256	-5.01165
880.652	-4.00986
881.048	34.07995
881.444	-8.01803
881.84	-7.0172
882.236	29.06953
882.631	13.03011
883.027	17.03865
883.422	33.08149
883.817	16.03879
884.213	-1.00246
884.608	-9.02136
885.003	-49.11362
885.398	-5.01205
885.793	-25.06094
886.188	-29.07019
886.582	19.04606
886.977	2.00449
887.371	-24.05854
887.766	-14.03383
888.16	0
888.554	-19.04444
888.949	23.05443
889.343	29.06661
889.737	-17.04456
890.131	-17.04105
890.525	15.03667
890.918	-14.03398
891.312	41.09273
891.706	38.09568
892.099	7.0169
892.492	47.09359
892.886	29.06807
893.279	29.07067
893.672	-38.0931
894.065	-55.13101
894.458	9.02174
894.851	-27.06211
895.244	-6.01477
895.637	25.0573
896.029	39.0914
896.422	2.00463
896.814	-7.01684
897.206	13.02952
897.599	0
897.991	20.04578
898.383	-3.00674
898.775	19.04073
899.167	26.05834
899.559	50.12013
899.951	29.06439
900.342	25.06069
900.734	-21.05052
901.125	-11.0275
901.517	-12.02819
901.908	20.04511
902.299	4.00941
902.69	6.01345
903.082	29.06578
903.473	11.02534
903.863	-9.02205
904.254	-11.02434
904.645	-20.04684
905.036	0
905.426	33.0704
905.817	-10.02337
906.207	-25.05811
906.597	2.00446
906.987	21.05226
907.378	-3.00724
907.768	-35.08943
908.158	-24.05577
908.547	-65.16093
908.937	-16.0395
909.327	-23.05285
909.717	-19.04535
910.106	-43.09773
910.495	36.08501
910.885	4.00968
911.274	-28.06717
911.663	25.06035
912.052	-34.07907
912.441	-8.01948
912.83	61.13369
913.219	2.005
913.608	11.02542
913.997	7.01694
914.385	19.04262
914.774	63.14574
915.162	27.06124
915.55	-29.0657
915.939	42.10194
916.327	26.06209
916.715	63.15598
917.103	-31.07165
917.491	-15.03496
917.878	55.12768
918.266	-39.09726
918.654	46.11236
919.041	-30.07624
919.429	24.05381
919.816	24.05823
920.203	-30.06947
920.591	34.08147
920.978	21.04896
921.365	-35.08798
921.752	-18.04054
922.139	22.04445
922.525	69.15854
922.912	51.11812
923.299	15.03577
923.685	-9.02269
924.072	-7.01505
924.458	-9.02135
924.844	-8.01896
925.231	37.08146
925.617	28.06888
926.003	-6.01466
926.389	-25.0606
926.774	17.04105
927.16	4.00946
927.546	42.10381
927.931	8.01876
928.317	13.02785
928.702	34.07513
929.088	-18.0406
929.473	40.09742
929.858	37.08634
930.243	11.02518
930.628	-20.04675
931.013	76.18079
931.398	46.09811
931.783	0
932.167	-46.10685
932.552	38.0905
932.937	-6.01401
933.321	-21.05066
933.705	34.08243
934.09	16.03812
934.474	-2.00447
934.858	47.11743
935.242	45.10003
935.626	-2.00491
936.009	19.04909
936.393	31.07526
936.777	30.07418
937.16	-28.07037
937.544	-33.07311
937.927	-15.03661
938.311	24.05414
938.694	18.0456
939.077	9.0205
939.46	36.08283
939.843	-19.03678
940.226	46.11236
940.609	-17.03682
940.991	-5.0123
941.374	11.02588
941.757	-4.00931
942.139	34.07217
942.522	42.09284
942.904	49.11326
943.286	-28.06743
943.668	-3.00749
944.05	-17.04032
944.432	12.02826
944.814	51.11971
945.196	7.0166
945.578	0
945.959	17.03814
946.341	24.05487
946.722	16.03531
947.104	-8.01833
947.485	19.04217
947.866	1.00241
948.247	-18.04361
948.628	35.08061
949.009	9.0223
949.39	24.05676
949.771	-33.07199
950.152	-19.04475
950.532	-8.01931
950.913	45.10273
951.293	-2.00524
951.674	-1.00229
952.054	10.02389
952.434	1.00236
952.814	-9.02036
953.194	1.00248
953.574	-45.10468
953.954	31.06983
954.334	-7.01657
954.714	11.0257
955.093	-8.01871
955.473	15.03594
955.853	-7.01758
956.232	30.07956
956.611	-2.00454
956.99	21.0511
957.37	9.02211
957.749	-13.02925
958.128	47.11419
958.506	13.03228
958.885	57.13822
959.264	-33.07828
959.643	-17.03582
960.021	5.01185
960.4	42.09082
960.778	11.02546
961.156	-32.07741
961.535	16.03577
961.913	36.07905
962.291	-9.0224
962.669	17.04118
963.047	-3.00737
963.424	-23.05661
963.802	14.03287
964.18	-17.04074
964.557	-80.17173
964.935	1.00224
965.312	-4.01005
965.69	19.04503
966.067	22.05048
966.444	32.07477
966.821	17.04195
967.198	27.06149
967.575	21.04873
967.952	2.00445
968.329	41.09545
968.705	51.10165
969.082	24.05965
969.458	11.02542
969.835	12.02769
970.211	44.10939
970.587	23.05477
970.963	20.0492
971.339	-35.08871
971.715	-25.05964
972.091	13.0307
972.467	40.09413
972.843	41.09729
973.219	9.01996
973.594	21.05271
973.97	2.00445
974.345	22.05013
974.721	-19.0431
975.096	-6.01381
975.471	-7.01577
975.846	-2.00459
976.221	-15.03659
976.596	-51.11713
976.971	54.12559
977.346	2.00441
977.72	6.01478
978.095	18.04482
978.469	25.0567
978.844	-8.01893
979.218	-26.06035
979.593	-10.02282
979.967	20.04611
980.341	10.02188
980.715	-23.05529
981.089	16.03812
981.463	34.07428
981.837	-23.0543
982.21	-23.04975
982.584	36.0828
982.957	-26.0628
983.331	-5.01111
983.704	64.15037
984.078	63.14799
984.451	-24.05652
984.824	-15.03507
985.197	-6.01379
985.57	32.07677
985.943	30.0706
986.316	12.02776
986.688	40.09152
987.061	-11.02441
987.434	0
987.806	-34.07851
988.179	26.05848
988.551	10.02415
988.923	58.13664
989.295	59.13914
989.667	-6.01387
990.039	11.02622
990.411	14.03068
990.783	1.00216
991.155	-50.11757
991.527	-1.00229
991.898	4.00955
992.27	-7.01667
992.641	24.05692
993.012	16.03537
993.384	-6.01363
993.755	-21.05155
994.126	26.05968
994.497	-29.06873
994.868	8.01728
995.239	-6.01371
995.61	-36.08712
995.98	-13.0307
996.351	9.02164
996.722	-25.05539
997.092	-30.06886
997.462	39.08893
997.833	44.09751
998.203	6.01371
998.573	23.05529
998.943	25.05562
999.313	59.13339
999.683	31.07177
1000.053	37.07999
1000.423	13.03026
1000.792	2.00495
1001.162	55.12965
1001.531	18.04178
1001.901	22.05233
1002.27	8.0167
1002.639	-20.04911
1003.009	0
1003.378	0
1003.747	45.10165
1004.116	20.04554
1004.485	45.10236
1004.853	11.02649
1005.222	-10.02406
1005.591	25.05541
1005.959	63.13754
1006.328	66.14235
1006.696	54.12583
1007.064	2.0048
1007.433	-7.01658
1007.801	76.17556
1008.169	51.12335
1008.537	24.04903
1008.905	44.09775
1009.273	-10.02348
1009.64	-21.04802
1010.008	52.11797
1010.375	-72.16162
1010.743	44.09282
1011.11	33.07488
1011.478	-12.02837
1011.845	14.03115
1012.212	-13.02784
1012.579	2.00469
1012.946	-17.03821
1013.313	4.009
1013.68	-30.06248
1014.047	-13.02973
1014.414	-1.00228
1014.78	12.02848
1015.147	19.04343
1015.513	28.06453
1015.88	31.07495
1016.246	20.04684
1016.612	36.07681
1016.978	-24.05608
1017.344	0
1017.71	-24.05416
1018.076	22.04857
1018.442	-5.01236
1018.808	13.03143
1019.174	20.04812
1019.539	21.0448
1019.905	54.1235
1020.27	12.02862
1020.636	-11.02476
1021.001	58.13233
1021.366	17.03864
1021.731	-7.0172
1022.096	-8.01963
1022.461	9.02025
1022.826	62.13934
1023.191	-34.08631
1023.556	13.02897
1023.92	29.06732
1024.285	58.1343
1024.649	11.02549
1025.014	24.05608
1025.378	16.03856
1025.742	18.04305
1026.107	27.0567
1026.471	38.08193
1026.835	64.15377
1027.199	0
1027.562	57.12582
1027.926	-20.0465
1028.29	-15.03624
1028.654	0
1029.017	28.06502
1029.381	71.16235
1029.744	17.04163
1030.107	-19.0422
1030.471	34.07764
1030.834	43.09209
1031.197	-16.03593
1031.56	16.03572
1031.923	-1.00249
1032.286	24.05219
1032.648	56.12612
1033.011	32.07035
1033.374	-17.03705
1033.736	-23.05865
1034.099	-2.00463
1034.461	36.08813
1034.823	3.00714
1035.185	11.02651
1035.548	-4.0093
1035.91	-3.00681
1036.272	0
1036.634	-47.10911
1036.995	11.0244
1037.357	-23.05337
1037.719	28.06445
1038.08	6.01339
1038.442	31.07086
1038.803	44.09986
1039.165	-1.00242
1039.526	-9.02059
1039.887	0
1040.248	12.02849
1040.609	1.00235
1040.97	30.07051
1041.331	11.02673
1041.692	0
1042.053	45.0957
1042.413	45.09895
1042.774	25.05733
1043.134	11.02447
1043.495	-26.06242
1043.855	-11.02521
1044.215	10.02385
1044.576	2.0046
1044.936	6.01287
1045.296	2.00472
1045.656	-11.02548
1046.016	16.03645
1046.375	-1.00232
1046.735	31.06754
1047.095	4.0089
1047.454	-49.09608
1047.814	52.11969
1048.173	-35.07858
1048.533	29.06294
1048.892	47.1092
1049.251	26.06202
1049.61	-36.08458
1049.969	22.049
1050.328	2.00404
1050.687	32.07401
1051.046	42.09741
1051.405	5.01181
1051.763	11.02405
1052.122	-6.01442
1052.48	54.12648
1052.839	-32.07174
1053.197	20.04447
1053.555	8.01697
1053.914	-18.04193
1054.272	68.15489
1054.63	46.10736
1054.988	32.07277
1055.345	41.08218
1055.703	-6.01379
1056.061	-13.03221
1056.419	12.03002
1056.776	26.05994
1057.134	38.08316
1057.491	13.03124
1057.848	-55.13006
1058.206	-52.11509
1058.563	-23.04796
1058.92	50.10715
1059.277	17.03968
1059.634	70.15402
1059.991	-27.05975
1060.348	47.10109
1060.704	4.00923
1061.061	32.06932
1061.418	43.1003
1061.774	-2.00472
1062.131	1.00258
1062.487	26.05807
1062.843	13.03111
1063.199	2.00473
1063.555	-24.05343
1063.911	32.07738
1064.267	38.07255
1064.623	-33.07682
1064.979	-49.10784
1065.335	0
1065.691	-19.04252
1066.046	-28.05855
1066.402	50.10831
1066.757	24.0576
1067.112	-20.04672
1067.468	-3.00683
1067.823	29.06642
1068.178	6.01371
1068.533	37.08494
1068.888	10.02247
1069.243	22.05135
1069.598	-6.01396
1069.952	-24.05194
1070.307	61.14452
1070.662	0
1071.016	17.03655
1071.371	-1.00215
1071.725	-28.06259
1072.079	33.07628
1072.434	-27.06288
1072.788	85.18872
1073.142	3.00687
1073.496	-10.02249
1073.85	-29.06385
1074.203	-9.02063
1074.557	-18.04626
1074.911	25.05555
1075.265	42.09238
1075.618	9.02088
1075.971	43.09777
1076.325	-7.01705
1076.678	1.00218
1077.031	0
1077.385	-25.05171
1077.738	31.0665
1078.091	43.093
1078.444	62.13476
1078.796	-11.02607
1079.149	59.13989
1079.502	-26.05891
1079.855	15.03304
1080.207	20.04655
1080.56	38.0942
1080.912	-6.01385
1081.264	-5.01142
1081.617	17.03936
1081.969	6.0146
1082.321	11.02579
1082.673	-13.02819
1083.025	-29.06495
1083.377	-27.05337
1083.728	84.18359
1084.08	-16.03803
1084.432	35.08035
1084.783	36.07861
1085.135	-7.01694
1085.486	14.03064
1085.838	-14.03305
1086.189	-1.00232
1086.54	19.04259
1086.891	-22.05358
1087.242	13.02989
1087.593	-5.01139
1087.944	60.12819
1088.295	33.06994
1088.646	-51.11732
1088.996	0
1089.347	-30.07024
1089.698	13.02934
1090.048	22.0549
1090.398	-30.06582
1090.749	-1.00229
1091.099	17.04172
1091.449	20.0478
1091.799	-14.03346
1092.149	-28.06663
1092.499	22.05121
1092.849	-2.00489
1093.199	37.08722
1093.548	-16.03687
1093.898	21.05048
1094.248	-29.07154
1094.597	37.09244
1094.947	2.00517
1095.296	6.01432
1095.645	-15.03721
1095.994	-38.0861
1096.343	-57.13614
1096.692	-31.07888
1097.041	49.13023
1097.39	29.06942
1097.739	15.03731
1098.088	-31.07927
1098.437	-13.03352
1098.785	68.1775
1099.134	-14.03543
1099.482	-54.14359
1099.83	37.09401
1100.179	42.10605
1100.527	49.12591
1100.875	29.07428
1101.223	3.00768
1101.571	-6.01624
1101.919	-6.01538
1102.267	12.03315
1102.615	5.01607
1102.962	-3.00962
1103.31	1.00321
1103.658	-2.00642
