Data from N3 R9 sample 12_Subt2__3__14-47-10-573.txt Node

Date: Mon Sep 22 14:47:10 PDT 2025
User: uwsun
Spectrometer: HDX01956
Trigger mode: 0
Integration Time (sec): 5.000000E-1
Scans to average: 1
Nonlinearity correction enabled: true
Boxcar width: 0
Storing dark spectrum: false
XAxis mode: Wavelengths
Number of Pixels in Spectrum: 2068
>>>>>Begin Spectral Data<<<<<
194.03	-1.00291
194.578	-1.00325
195.127	10.03209
195.676	0
196.225	7.01864
196.773	-9.02493
197.321	21.05875
197.87	46.11859
198.418	66.17069
198.966	111.29275
199.513	76.19293
200.061	60.15447
200.609	64.16996
201.156	65.14491
201.704	84.2143
202.251	57.15291
202.798	80.20996
203.345	74.18304
203.892	50.12765
204.438	13.03091
204.985	81.19435
205.532	90.23892
206.078	40.09905
206.624	76.18998
207.17	17.04
207.716	107.26316
208.262	108.21331
208.808	81.20442
209.354	101.24951
209.899	132.3358
210.445	133.33469
210.99	90.22074
211.535	95.22159
212.08	81.19228
212.625	48.12155
213.17	26.06568
213.715	93.20914
214.259	67.15757
214.804	68.16888
215.348	75.17487
215.892	45.10867
216.436	68.15715
216.98	66.14711
217.524	68.163
218.068	37.09234
218.612	40.10039
219.155	70.16601
219.698	38.09015
220.242	42.10423
220.785	85.20053
221.328	100.24808
221.871	-6.01504
222.414	18.04469
222.956	34.08218
223.499	100.22622
224.041	77.17798
224.583	96.2043
225.126	63.13801
225.668	28.06829
226.21	70.17612
226.751	61.13391
227.293	50.11389
227.835	45.11015
228.376	46.10516
228.918	92.23048
229.459	61.15257
230	50.11871
230.541	63.14469
231.082	38.09178
231.622	42.09613
232.163	62.15071
232.704	61.1508
233.244	36.08947
233.784	69.16738
234.324	46.10049
234.864	-4.0091
235.404	86.20363
235.944	118.27973
236.484	28.0688
237.023	88.20652
237.563	32.07413
238.102	12.02829
238.641	31.07849
239.18	40.09479
239.719	4.00999
240.258	83.18359
240.797	55.13197
241.335	88.21319
241.874	80.15141
242.412	66.1573
242.95	63.15243
243.488	37.08396
244.026	112.25924
244.564	144.29056
245.102	91.20372
245.64	60.14273
246.177	119.26453
246.715	73.17275
247.252	78.17731
247.789	61.11209
248.326	47.11389
248.863	74.16173
249.4	56.12529
249.936	61.12527
250.473	47.10959
251.009	34.07832
251.546	76.1661
252.082	100.21902
252.618	72.16049
253.154	81.19376
253.69	32.07212
254.226	89.21119
254.761	63.14051
255.297	65.14143
255.832	121.28579
256.367	85.19897
256.903	36.07898
257.438	134.31373
257.972	43.09503
258.507	101.23401
259.042	122.26551
259.576	35.0758
260.111	39.08957
260.645	49.10507
261.179	69.16133
261.713	88.19672
262.247	69.16063
262.781	97.20459
263.315	81.19885
263.849	37.09234
264.382	65.14851
264.915	88.20539
265.449	59.14581
265.982	91.20548
266.515	85.20542
267.048	-31.06579
267.58	62.13338
268.113	86.1827
268.646	82.20261
269.178	142.32083
269.71	46.1002
270.243	44.09905
270.775	56.1414
271.307	64.15277
271.838	96.22379
272.37	83.20557
272.902	88.19802
273.433	59.12876
273.965	73.17595
274.496	93.23059
275.027	80.19911
275.558	70.16901
276.089	119.29763
276.62	95.24215
277.15	48.11816
277.681	82.1761
278.211	99.24079
278.741	19.04264
279.272	68.15646
279.802	107.26714
280.332	56.13234
280.861	66.15791
281.391	62.14048
281.921	56.13454
282.45	98.244
282.98	72.18704
283.509	157.35031
284.038	49.11073
284.567	99.22756
285.096	91.21959
285.625	93.20871
286.153	84.19705
286.682	126.28735
287.21	90.21483
287.739	96.22441
288.267	86.20882
288.795	141.3676
289.323	43.10081
289.851	53.12314
290.378	90.2026
290.906	142.34543
291.433	90.22254
291.961	97.21858
292.488	120.29584
293.015	99.23019
293.542	52.13112
294.069	177.42952
294.596	109.26699
295.122	38.09005
295.649	122.26528
296.175	120.28754
296.702	90.21343
297.228	124.30029
297.754	20.04438
298.28	142.32123
298.806	92.22003
299.332	131.29496
299.857	98.22332
300.383	72.17927
300.908	106.25747
301.433	118.28641
301.958	108.24869
302.483	123.30519
303.008	97.23927
303.533	128.32781
304.058	110.2541
304.582	127.29681
305.107	87.22628
305.631	75.16832
306.155	126.29234
306.679	147.34611
307.203	106.2434
307.727	80.18833
308.251	104.25337
308.775	102.24226
309.298	70.16735
309.822	102.25618
310.345	133.31522
310.868	133.3179
311.391	120.28973
311.914	113.28293
312.437	135.30209
312.96	114.26586
313.482	130.30555
314.005	146.36311
314.527	143.37205
315.049	160.39619
315.571	117.26084
316.093	141.34165
316.615	139.33414
317.137	178.38342
317.659	178.42521
318.18	136.32414
318.702	115.26507
319.223	201.40288
319.744	182.40231
320.265	161.38937
320.786	156.38261
321.307	145.35543
321.828	161.35819
322.348	112.26016
322.869	177.41139
323.389	388.68345
323.909	151.33957
324.43	145.34021
324.95	230.52028
325.47	163.39792
325.989	204.4718
326.509	179.39129
327.029	167.37216
327.548	185.41722
328.067	222.52279
328.587	197.47841
329.106	198.43987
329.625	172.43492
330.144	188.42459
330.662	210.48606
331.181	199.4497
331.7	141.32422
332.218	198.4199
332.736	233.52825
333.255	170.38864
333.773	245.56762
334.291	203.49445
334.808	194.42668
335.326	224.49369
335.844	225.51695
336.361	230.57242
336.879	190.43103
337.396	206.49096
337.913	271.61165
338.43	237.51544
338.947	210.48374
339.464	286.60042
339.981	213.49681
340.497	263.63147
341.014	263.62282
341.53	219.48035
342.046	289.68676
342.562	284.67734
343.078	264.59938
343.594	240.55681
344.11	322.73814
344.626	258.6257
345.141	312.67955
345.657	292.63329
346.172	336.77239
346.687	272.606
347.202	305.64808
347.717	356.81967
348.232	323.76428
348.747	308.6808
349.261	328.68495
349.776	315.70949
350.29	332.79452
350.805	347.81248
351.319	327.72988
351.833	271.59013
352.347	346.78137
352.861	371.81266
353.374	336.7256
353.888	348.80125
354.401	333.72821
354.915	318.67879
355.428	352.83369
355.941	385.84652
356.454	414.8649
356.967	361.80109
357.48	427.92386
357.993	345.79767
358.505	400.92939
359.018	348.79805
359.53	438.99713
360.042	371.78315
360.554	358.81308
361.066	386.88978
361.578	441.90027
362.09	450.98962
362.602	425.87745
363.113	417.90647
363.625	403.84472
364.136	415.84527
364.647	473.03798
365.158	452.98859
365.669	452.99985
366.18	467.02651
366.691	473.97216
367.201	467.02049
367.712	471.99378
368.222	409.86752
368.733	509.01656
369.243	458.94706
369.753	489.0398
370.263	455.00176
370.773	474.07048
371.282	477.03051
371.792	509.07582
372.301	523.16042
372.811	541.29545
373.32	555.08245
373.829	521.12286
374.338	597.19763
374.847	635.31094
375.356	658.40068
375.865	679.29468
376.373	712.43758
376.882	668.48165
377.39	723.52753
377.898	708.5418
378.407	735.42946
378.915	822.51976
379.423	882.76419
379.93	822.5849
380.438	837.72618
380.946	933.81001
381.453	953.89451
381.96	1048.0286
382.468	1085.01921
382.975	1111.12687
383.482	1131.95626
383.989	1195.40646
384.495	1270.17278
385.002	1288.97173
385.509	1422.4343
386.015	1465.96464
386.521	1556.36825
387.028	1630.49671
387.534	1614.30975
388.04	1691.63429
388.546	1795.56743
389.051	1880.50776
389.557	2082.88551
390.063	2188.71596
390.568	2218.96763
391.073	2339.70068
391.578	2504.20149
392.084	2543.85197
392.589	2568.53465
393.093	2785.9986
393.598	3106.74499
394.103	3386.99837
394.607	3642.82077
395.112	3950.86686
395.616	4264.53685
396.12	4633.9461
396.624	5199.77081
397.128	5514.73105
397.632	6245.37316
398.136	6700.08439
398.639	7138.32196
399.143	7867.9324
399.646	9026.42174
400.15	10014.14425
400.653	11048.4993
401.156	12479.13715
401.659	14585.16726
402.162	17873.70685
402.664	23872.92692
403.167	34265.81431
403.67	56901.97107
404.172	52566.9044
404.674	31176.06428
405.176	3757.7064
405.678	27.69154
406.18	0
406.682	0
407.184	45159.96023
407.686	58897.86778
408.187	61455.21265
408.688	59280.96482
409.19	41156.684
409.691	33069.30677
410.192	27857.28074
410.693	24005.81739
411.194	21576.43706
411.694	20204.8062
412.195	18711.0202
412.696	17052.34599
413.196	15727.02965
413.696	15230.00123
414.196	15378.70061
414.696	14985.80164
415.196	14392.0868
415.696	12904.57869
416.196	10431.71375
416.695	8035.87933
417.195	6958.34902
417.694	6645.60142
418.194	6226.7148
418.693	5760.25441
419.192	5642.49596
419.691	5507.54608
420.19	5434.82265
420.688	5316.99284
421.187	5179.08573
421.685	4640.02496
422.184	4289.2897
422.682	3662.20651
423.18	3172.7996
423.678	2892.84557
424.176	2614.76811
424.674	2474.63432
425.172	2377.93086
425.669	2286.21133
426.167	2023.71117
426.664	1890.62036
427.161	1809.61492
427.659	1618.62463
428.156	1543.13522
428.652	1368.53705
429.149	1369.4234
429.646	1318.07038
430.143	1249.24431
430.639	1198.12769
431.135	1078.11058
431.632	974.76381
432.128	994.88416
432.624	918.9352
433.12	841.56232
433.616	852.47907
434.111	791.5546
434.607	792.58324
435.103	758.30646
435.598	695.15594
436.093	670.32605
436.588	609.15817
437.083	642.20594
437.578	622.22286
438.073	566.24112
438.568	560.18251
439.062	557.02208
439.557	536.10106
440.051	485.97526
440.546	476.98692
441.04	470.00734
441.534	462.0463
442.028	415.87717
442.522	411.88393
443.015	481.924
443.509	415.90902
444.002	383.84354
444.496	427.8424
444.989	442.96386
445.482	413.93283
445.975	367.76213
446.468	349.68172
446.961	295.57651
447.454	362.74588
447.947	297.6396
448.439	363.79648
448.931	281.58172
449.424	307.69967
449.916	251.55354
450.408	265.54516
450.9	273.61465
451.392	250.57909
451.884	254.52454
452.375	244.55599
452.867	286.58054
453.358	244.5118
453.849	253.49185
454.341	231.481
454.832	180.35703
455.323	248.55848
455.814	271.57032
456.304	204.43301
456.795	234.49018
457.285	196.40022
457.776	211.43623
458.266	208.45574
458.756	276.61262
459.247	199.43869
459.737	213.46778
460.226	219.46089
460.716	196.42927
461.206	192.42618
461.695	143.33368
462.185	178.3905
462.674	187.39788
463.163	201.41574
463.653	177.34262
464.142	133.2986
464.63	158.35727
465.119	185.40475
465.608	138.29803
466.096	178.36363
466.585	124.26412
467.073	152.33936
467.561	145.32768
468.05	190.41578
468.538	134.30548
469.026	147.33166
469.513	193.38863
470.001	195.41905
470.489	142.31625
470.976	128.27785
471.463	92.21379
471.951	150.34912
472.438	150.33143
472.925	157.34842
473.412	133.30815
473.899	126.27025
474.385	95.21897
474.872	141.31526
475.359	123.28329
475.845	156.30161
476.331	146.29934
476.817	116.26722
477.303	164.36252
477.789	134.30585
478.275	111.26329
478.761	85.19428
479.247	116.24364
479.732	80.19111
480.218	121.29968
480.703	93.22187
481.188	57.11668
481.673	89.19349
482.158	53.11041
482.643	95.22872
483.128	47.10253
483.612	62.13963
484.097	56.13034
484.581	59.12968
485.066	36.083
485.55	43.08974
486.034	16.03352
486.518	39.08857
487.002	79.18789
487.486	44.10358
487.969	78.18405
488.453	61.14875
488.936	90.19578
489.42	68.14232
489.903	69.16757
490.386	9.01993
490.869	24.05043
491.352	44.10435
491.835	5.00996
492.318	20.04399
492.8	14.0279
493.283	27.06631
493.765	25.05983
494.247	7.01563
494.73	42.08911
495.212	-15.03466
495.694	42.09505
496.175	29.06738
496.657	24.05431
497.139	9.01485
497.62	9.0208
498.102	21.05062
498.583	14.03388
499.064	3.00653
499.545	1.00223
500.026	4.00873
500.507	-5.01122
500.988	-9.02149
501.469	-18.04444
501.949	17.04062
502.43	24.05593
502.91	-37.07478
503.39	-29.07019
503.87	-9.0208
504.35	-1.00223
504.83	32.06825
505.31	-22.05179
505.79	-22.05141
506.269	-16.03603
506.749	13.02913
507.228	-50.11486
507.707	72.15256
508.187	-23.0527
508.666	-27.06498
509.145	-58.13142
509.623	-29.06604
510.102	-27.06266
510.581	-25.05795
511.059	-79.19394
511.538	-86.21483
512.016	-72.16573
512.494	-19.04479
512.972	-54.12459
513.45	2.00457
513.928	-61.14424
514.406	-51.12064
514.884	-97.24401
515.361	-73.16927
515.839	1.00223
516.316	-51.11971
516.793	-38.09344
517.27	-67.15763
517.747	-36.09061
518.224	-73.16389
518.701	-28.06016
519.178	-73.17689
519.654	-76.17445
520.131	-69.16644
520.607	-66.15899
521.083	-95.21267
521.56	-49.11308
522.036	-63.13451
522.512	-52.12384
522.987	-71.16633
523.463	-71.16411
523.939	-53.12562
524.414	-53.11718
524.89	-34.07882
525.365	-69.15084
525.84	-92.21624
526.315	-32.07454
526.79	-63.13679
527.265	-44.09665
527.74	-111.26775
528.215	-63.14377
528.689	-140.30222
529.164	-101.21209
529.638	-73.18338
530.112	-76.17591
530.587	-57.1188
531.061	-96.22467
531.534	-74.17339
532.008	-77.18052
532.482	-70.15512
532.956	-133.33349
533.429	-40.09325
533.903	-82.17481
534.376	-75.15986
534.849	-76.16975
535.322	-85.19319
535.795	-136.32078
536.268	-80.18811
536.741	-80.18569
537.213	-100.22262
537.686	-116.27615
538.158	-54.11837
538.631	-81.18961
539.103	-69.15064
539.575	-76.15032
540.047	-124.2624
540.519	-117.26796
540.991	-90.21286
541.463	-53.12513
541.934	-131.29193
542.406	-121.28001
542.877	-43.09587
543.348	-103.2395
543.82	-54.12767
544.291	-81.18417
544.762	-103.23609
545.233	-103.25164
545.703	-101.21761
546.174	-68.15377
546.645	-74.17481
547.115	-9.02099
547.585	-36.08004
548.056	-58.13691
548.526	-1.00227
548.996	-23.05293
549.466	-35.08299
549.935	-15.03455
550.405	-15.03172
550.875	-9.02043
551.344	-59.1374
551.814	-34.07513
552.283	2.00416
552.752	43.09571
553.221	50.1052
553.69	49.10471
554.159	30.07101
554.628	63.13434
555.096	51.12372
555.565	10.02111
556.033	5.01122
556.502	19.04367
556.97	39.08128
557.438	20.04476
557.906	-4.00889
558.374	68.14887
558.842	70.15726
559.31	66.13673
559.777	123.28283
560.245	67.14547
560.712	116.24944
561.18	100.20521
561.647	181.37639
562.114	136.29081
562.581	194.44064
563.048	165.34572
563.514	160.36209
563.981	179.37356
564.448	291.60081
564.914	222.46751
565.381	259.52826
565.847	244.51361
566.313	231.48378
566.779	305.61303
567.245	323.67615
567.711	347.75048
568.176	326.64269
568.642	353.79213
569.108	363.79313
569.573	351.71947
570.038	388.69884
570.504	426.82997
570.969	437.96285
571.434	445.84247
571.899	425.87115
572.363	500.97971
572.828	494.95149
573.293	459.90426
573.757	462.90311
574.222	445.85277
574.686	525.01073
575.15	520.05179
575.614	541.0426
576.078	525.0578
576.542	500.96119
577.006	517.99412
577.469	484.01552
577.933	480.9063
578.396	509.03115
578.86	428.86044
579.323	529.07321
579.786	497.90097
580.249	385.76026
580.712	497.05042
581.175	421.90232
581.637	347.68747
582.1	348.6535
582.563	371.67147
583.025	350.75162
583.487	390.67655
583.95	397.7435
584.412	403.73089
584.874	240.5143
585.336	307.65176
585.797	292.55888
586.259	273.56415
586.721	249.5231
587.182	239.48414
587.643	206.41548
588.105	214.4574
588.566	197.36764
589.027	234.51141
589.488	200.40634
589.949	217.47335
590.41	194.3433
590.87	203.41555
591.331	144.27908
591.791	157.32895
592.252	168.34912
592.712	205.44585
593.172	130.26437
593.632	129.25485
594.092	141.28759
594.552	124.24043
595.011	48.10153
595.471	48.09743
595.931	108.22103
596.39	118.25888
596.849	57.12223
597.308	91.18012
597.768	69.16341
598.227	103.2302
598.685	104.21892
599.144	96.20955
599.603	24.05192
600.062	50.09834
600.52	75.1552
600.978	39.08558
601.437	47.09761
601.895	89.17409
602.353	62.12447
602.811	8.01628
603.269	22.04859
603.727	68.15069
604.184	71.14975
604.642	28.06283
605.099	62.13235
605.557	47.10535
606.014	95.18724
606.471	62.14379
606.928	130.25749
607.385	131.30026
607.842	126.26044
608.299	77.16326
608.755	98.21817
609.212	122.24821
609.668	77.15748
610.125	129.28414
610.581	185.39105
611.037	106.21753
611.493	89.19225
611.949	140.31076
612.405	149.26896
612.861	129.27328
613.316	101.21985
613.772	129.26921
614.227	155.33281
614.683	176.3362
615.138	147.31427
615.593	208.44361
616.048	155.3206
616.503	153.34336
616.958	214.49
617.412	190.41314
617.867	72.14709
618.321	159.29187
618.776	141.28039
619.23	136.29258
619.684	108.21792
620.138	151.31092
620.592	93.20802
621.046	148.31455
621.5	108.24352
621.954	74.14994
622.407	114.22918
622.861	121.27367
623.314	35.07174
623.768	88.18858
624.221	159.28893
624.674	63.13317
625.127	74.15954
625.58	24.05007
626.033	79.1579
626.485	83.18543
626.938	118.2592
627.39	66.14125
627.843	68.14402
628.295	56.12053
628.747	55.12033
629.199	25.05291
629.651	48.10286
630.103	5.01085
630.555	48.09414
631.006	64.1397
631.458	49.10906
631.909	-42.08857
632.361	-15.03287
632.812	26.05702
633.263	19.0381
633.714	28.05569
634.165	3.00681
634.616	-4.00902
635.067	33.06832
635.518	13.02885
635.968	24.0446
636.419	-3.00608
636.869	20.04464
637.319	13.02831
637.769	37.07787
638.219	20.04434
638.669	14.03188
639.119	28.06455
639.569	43.09904
640.019	-20.04347
640.468	-3.00641
640.918	41.09326
641.367	-49.10389
641.816	-36.07645
642.265	43.094
642.714	-17.03718
643.163	-1.00219
643.612	32.07477
644.061	46.09397
644.51	62.13487
644.958	12.02509
645.406	0
645.855	-12.0279
646.303	-14.03099
646.751	-18.03907
647.199	20.04323
647.647	3.00665
648.095	19.0418
648.543	0
648.99	2.00461
649.438	-4.00888
649.885	31.07347
650.333	28.05058
650.78	36.08316
651.227	-23.05356
651.674	31.06734
652.121	31.07205
652.568	24.05579
653.015	-20.04789
653.461	29.06671
653.908	-9.01998
654.354	-44.09994
654.801	14.03199
655.247	23.04798
655.693	5.01266
656.139	48.11119
656.585	-11.02508
657.031	-16.03622
657.477	20.04153
657.922	22.04865
658.368	-10.02354
658.813	50.11016
659.259	16.03687
659.704	11.02489
660.149	7.01572
660.594	-17.03867
661.039	5.01102
661.484	34.07632
661.929	49.11019
662.373	19.04659
662.818	-23.05451
663.262	52.12113
663.707	60.14711
664.151	20.04655
664.595	-9.02123
665.039	-6.01423
665.483	64.15604
665.927	37.08372
666.371	54.12221
666.814	-19.04367
667.258	25.05769
667.701	46.09316
668.145	48.11366
668.588	46.10867
669.031	78.17774
669.474	68.15671
669.917	39.08251
670.36	70.16652
670.803	53.12124
671.245	28.0552
671.688	95.22185
672.13	54.11692
672.573	53.12833
673.015	46.10588
673.457	69.1447
673.899	31.07163
674.341	54.12574
674.783	79.18318
675.225	25.05918
675.666	31.0722
676.108	104.21747
676.549	118.26672
676.991	52.11042
677.432	91.17455
677.873	103.22678
678.314	48.11075
678.755	66.15416
679.196	67.14863
679.637	91.21209
680.078	56.12322
680.518	65.14419
680.959	95.21653
681.399	110.26237
681.839	84.19582
682.28	113.26958
682.72	83.18198
683.16	104.24892
683.6	109.23464
684.039	87.17018
684.479	46.10938
684.919	65.14689
685.358	63.15128
685.798	135.34203
686.237	91.208
686.676	41.08849
687.115	130.29168
687.554	132.29812
687.993	130.27064
688.432	54.11787
688.871	132.28422
689.309	109.24954
689.748	64.12469
690.186	94.21299
690.625	127.28513
691.063	104.23517
691.501	91.21251
691.939	147.34827
692.377	134.31213
692.815	121.27912
693.253	101.22843
693.69	95.19667
694.128	74.17128
694.565	163.37046
695.003	138.33419
695.44	148.33098
695.877	134.2972
696.314	105.21065
696.751	145.31375
697.188	170.3695
697.625	177.37135
698.061	139.31822
698.498	178.40496
698.934	117.26667
699.371	115.25798
699.807	162.35735
700.243	122.28003
700.679	154.32502
701.115	100.21994
701.551	126.28004
701.987	102.21329
702.422	192.43327
702.858	118.26607
703.294	150.31978
703.729	143.33106
704.164	108.24849
704.599	173.35783
705.035	147.3125
705.47	151.34902
705.904	143.31551
706.339	134.29088
706.774	169.37131
707.209	117.25728
707.643	163.37181
708.078	195.4534
708.512	181.43543
708.946	145.32888
709.38	120.26892
709.814	143.3028
710.248	203.46678
710.682	148.33166
711.116	184.42453
711.549	158.3855
711.983	119.26013
712.416	156.34469
712.85	134.31262
713.283	180.39805
713.716	148.34813
714.149	155.34298
714.582	134.27884
715.015	206.48493
715.448	146.34396
715.881	164.32849
716.313	118.25975
716.746	147.32637
717.178	90.206
717.61	127.30402
718.043	124.29259
718.475	168.38576
718.907	154.36464
719.339	177.37922
719.77	132.29629
720.202	171.41137
720.634	152.35224
721.065	145.32193
721.497	110.25319
721.928	115.27109
722.359	102.23656
722.79	146.33404
723.221	135.32428
723.652	91.22265
724.083	136.29119
724.514	151.32925
724.945	108.24422
725.375	143.32026
725.806	103.24318
726.236	139.33984
726.666	102.2298
727.096	110.25532
727.526	96.23406
727.956	69.14835
728.386	152.35154
728.816	85.20929
729.246	110.25431
729.675	76.18009
730.105	72.16857
730.534	85.18644
730.964	83.19983
731.393	132.31013
731.822	108.26036
732.251	113.27442
732.68	83.1852
733.109	73.17269
733.537	65.15185
733.966	123.28961
734.395	76.1654
734.823	80.1687
735.251	98.22611
735.68	84.1979
736.108	96.23371
736.536	67.14888
736.964	110.24244
737.392	127.30298
737.82	95.21793
738.247	74.16645
738.675	60.13391
739.102	48.11515
739.53	38.09372
739.957	60.14716
740.384	83.19261
740.811	43.10376
741.238	56.13039
741.665	100.22225
742.092	67.14925
742.519	27.06491
742.945	104.23785
743.372	96.22547
743.798	25.06228
744.225	123.28046
744.651	4.00962
745.077	43.1038
745.503	68.15683
745.929	76.17319
746.355	81.1876
746.781	84.19828
747.207	46.10453
747.632	37.08722
748.058	13.03087
748.483	64.13828
748.908	78.1874
749.334	38.08946
749.759	33.07403
750.184	51.11723
750.609	38.08967
751.033	69.153
751.458	54.11377
751.883	62.14834
752.307	47.10604
752.732	73.17808
753.156	72.17101
753.58	10.02244
754.005	25.06065
754.429	-13.0294
754.853	33.07846
755.277	73.16416
755.7	49.11569
756.124	48.11546
756.548	28.06404
756.971	11.02562
757.394	82.20461
757.818	92.23089
758.241	31.07565
758.664	52.12773
759.087	18.03904
759.51	18.04265
759.933	64.14837
760.356	85.21044
760.778	46.10884
761.201	75.17377
761.623	55.12854
762.046	50.11182
762.468	0
762.89	64.1516
763.312	17.03926
763.734	62.14322
764.156	52.12384
764.578	72.15783
765	72.16593
765.421	33.08194
765.843	0
766.264	34.07792
766.686	19.04623
767.107	-42.09856
767.528	21.05159
767.949	35.08615
768.37	11.02615
768.791	70.16151
769.212	-3.00736
769.632	20.04502
770.053	45.11474
770.473	49.1134
770.894	78.18733
771.314	-18.04042
771.734	-15.03366
772.154	35.0865
772.575	46.10092
772.994	18.03976
773.414	95.21591
773.834	-17.04105
774.254	-37.08688
774.673	41.09594
775.093	59.14237
775.512	-47.11191
775.931	-4.00974
776.351	12.02874
776.77	-3.00722
777.189	7.01614
777.607	-1.00247
778.026	15.03629
778.445	23.05602
778.864	24.05913
779.282	-10.02339
779.701	19.04626
780.119	4.00972
780.537	31.07529
780.955	42.10217
781.373	-29.06932
781.791	3.00647
782.209	-8.01737
782.627	6.01537
783.045	30.06629
783.462	19.04668
783.88	22.05521
784.297	46.11148
784.715	25.0626
785.132	10.02342
785.549	54.13018
785.966	-2.00487
786.383	-24.05771
786.8	5.01105
787.217	-24.05482
787.633	38.09227
788.05	-29.06409
788.466	4.00899
788.883	48.11951
789.299	30.06977
789.715	31.07228
790.131	36.08537
790.547	-17.04098
790.963	32.07697
791.379	56.1372
791.795	13.02799
792.21	22.04908
792.626	24.0544
793.041	30.0718
793.457	17.04034
793.872	47.10647
794.287	18.04204
794.702	1.00237
795.117	0
795.532	18.0438
795.947	-55.12485
796.362	16.03611
796.776	33.07193
797.191	-2.00471
797.605	4.00916
798.02	-18.04226
798.434	-11.02297
798.848	25.05971
799.262	37.08908
799.676	-43.09927
800.09	-32.07601
800.504	-16.03728
800.918	2.00444
801.331	-6.01514
801.745	3.00656
802.158	-8.0193
802.572	14.03226
802.985	-20.04585
803.398	37.08409
803.811	31.07616
804.224	-38.0906
804.637	3.00696
805.05	7.01534
805.462	65.15191
805.875	-7.01777
806.288	-5.01163
806.7	11.02654
807.112	39.0859
807.525	-47.11066
807.937	37.08945
808.349	10.02404
808.761	33.07809
809.173	29.06703
809.584	-44.10447
809.996	13.03104
810.408	-10.02526
810.819	-40.09134
811.231	6.01541
811.642	70.16568
812.053	44.10277
812.464	71.1647
812.875	5.01222
813.286	6.01498
813.697	-1.00218
814.108	14.0328
814.519	-12.02526
814.929	42.10339
815.34	16.03714
815.75	1.00247
816.16	-16.03821
816.571	17.04258
816.981	8.01802
817.391	51.11793
817.801	-6.01448
818.211	6.01356
818.62	4.00916
819.03	-9.02126
819.44	56.13877
819.849	24.05854
820.259	2.00491
820.668	-31.07299
821.077	-18.04344
821.486	-24.05533
821.895	48.11291
822.304	-13.03333
822.713	12.02707
823.122	12.0288
823.531	-14.03161
823.939	-42.09853
824.348	85.19717
824.756	12.02868
825.164	16.03846
825.573	10.0242
825.981	39.0929
826.389	-15.03584
826.797	-60.14585
827.205	24.05294
827.612	-6.0142
828.02	7.01591
828.428	3.00737
828.835	-25.06395
829.243	28.06306
829.65	9.02165
830.057	21.04887
830.464	47.11049
830.871	-38.0861
831.278	25.05753
831.685	14.0295
832.092	50.11716
832.499	5.01025
832.905	2.00481
833.312	-64.13875
833.718	53.12639
834.124	5.01098
834.531	-23.05575
834.937	-13.03189
835.343	-15.0342
835.749	23.05011
836.155	-18.04544
836.561	21.04983
836.966	-22.05102
837.372	28.06814
837.777	5.01209
838.183	9.01874
838.588	38.09151
838.993	60.13816
839.399	-33.07791
839.804	4.00945
840.209	-36.088
840.613	-38.08003
841.018	-30.07295
841.423	-96.23911
841.828	4.00982
842.232	25.05898
842.637	49.11001
843.041	-4.00994
843.445	31.07548
843.849	-5.01199
844.253	37.08355
844.657	15.03665
845.061	19.04053
845.465	-28.06473
845.869	-5.01111
846.272	31.07282
846.676	21.04839
847.079	8.01964
847.483	-1.00235
847.886	-14.03198
848.289	-14.03638
848.692	16.03908
849.095	8.01848
849.498	-22.05262
849.901	11.02407
850.304	15.03391
850.707	-28.06865
851.109	10.02406
851.512	-68.16151
851.914	38.09337
852.316	-13.03156
852.718	-42.10662
853.121	-6.01409
853.523	-46.10275
853.925	17.04356
854.326	-18.04357
854.728	32.07956
855.13	-9.02277
855.531	23.05293
855.933	-4.00921
856.334	-2.00478
856.736	28.05995
857.137	2.00448
857.538	-3.00735
857.939	5.01187
858.34	33.07631
858.741	21.05264
859.142	19.04345
859.542	21.05366
859.943	1.0024
860.343	-33.079
860.744	28.0655
861.144	74.17251
861.544	22.05163
861.945	-30.0744
862.345	15.035
862.745	33.07867
863.145	-13.02896
863.544	7.01696
863.944	79.17474
864.344	10.02388
864.743	21.04935
865.143	29.07111
865.542	23.05058
865.941	-19.045
866.34	0
866.74	-52.13504
867.139	89.20465
867.537	42.10156
867.936	11.02508
868.335	40.09753
868.734	12.02958
869.132	-9.01968
869.531	47.10756
869.929	-20.04397
870.327	4.00924
870.726	-53.12581
871.124	-10.02189
871.522	26.06379
871.92	-39.09111
872.318	19.04409
872.715	35.08196
873.113	30.06947
873.511	29.0694
873.908	-17.04204
874.306	-10.024
874.703	2.00476
875.1	-19.04652
875.497	12.02739
875.894	3.00707
876.291	-22.05161
876.688	38.09492
877.085	-5.01131
877.482	17.04048
877.878	35.08061
878.275	-43.10572
878.671	30.06209
879.068	16.03674
879.464	20.04574
879.86	38.08694
880.256	-14.03269
880.652	17.04173
881.048	-16.03799
881.444	-18.04065
881.84	70.16952
882.236	9.02166
882.631	7.01623
883.027	5.0114
883.422	28.06921
883.817	-14.03413
884.213	-20.04943
884.608	-20.04756
885.003	-12.02762
885.398	-20.04833
885.793	13.03146
886.188	9.02163
886.582	-16.03904
886.977	17.03801
887.371	4.00971
887.766	-8.01931
888.16	2.00476
888.554	-20.04679
888.949	-24.05731
889.343	14.03225
889.737	12.0313
890.131	-10.02412
890.525	-6.01473
890.918	-22.05348
891.312	3.00684
891.706	-4.01015
892.099	-23.05584
892.492	2.00402
892.886	14.03296
893.279	28.06824
893.672	-30.07339
894.065	-28.06635
894.458	14.03379
894.851	-20.04594
895.244	-3.00738
895.637	19.0436
896.029	48.11229
896.422	-32.0746
896.814	22.05264
897.206	-24.05491
897.599	-2.00466
897.991	-17.0392
898.383	22.04916
898.775	13.0279
899.167	8.01802
899.559	3.00727
899.951	-1.00223
900.342	26.06311
900.734	-23.05535
901.125	1.00249
901.517	-18.04234
901.908	-11.02497
902.299	3.00706
902.69	4.00897
903.082	-31.07117
903.473	1.00231
903.863	18.04389
904.254	-21.04657
904.645	-13.03041
905.036	14.03279
905.426	0
905.817	7.0163
906.207	8.01847
906.597	-18.04034
906.987	-13.03255
907.378	-14.03387
907.768	-19.04841
908.158	10.02308
908.547	-70.17347
908.937	1.00246
909.327	-18.04132
909.717	-33.07897
910.106	-42.09544
910.495	20.04738
910.885	-8.0194
911.274	9.02144
911.663	-16.03892
912.052	14.03225
912.441	-30.07333
912.83	48.10548
913.219	-15.03759
913.608	1.00232
913.997	-13.03157
914.385	-5.01127
914.774	37.08603
915.162	15.03411
915.55	-12.02709
915.939	40.09712
916.327	25.05971
916.715	63.15598
917.103	-40.09262
917.491	-27.06308
917.878	4.00938
918.266	-29.07219
918.654	55.13412
919.041	3.00758
919.429	46.10266
919.816	60.14459
920.203	-19.0439
920.591	21.05044
920.978	10.02337
921.365	-25.06273
921.752	-11.02474
922.139	-22.0449
922.525	51.1176
922.912	24.05588
923.299	33.07843
923.685	4.01006
924.072	-24.05179
924.458	-24.05709
924.844	-40.09541
925.231	53.1163
925.617	-3.00742
926.003	-28.0687
926.389	-8.01933
926.774	4.00968
927.16	23.05418
927.546	47.11607
927.931	-18.04242
928.317	-6.01291
928.702	-1.00223
929.088	-27.06102
929.473	-31.0765
929.858	-3.00706
930.243	-12.0276
930.628	-20.04675
931.013	47.11243
931.398	38.08119
931.783	19.04781
932.167	-76.17759
932.552	36.08577
932.937	-4.00934
933.321	-38.09196
933.705	61.14714
934.09	-1.00239
934.474	-6.01342
934.858	25.06271
935.242	18.04024
935.626	-20.04929
936.009	35.09019
936.393	25.06076
936.777	51.12562
937.16	-14.0351
937.544	-25.0553
937.927	-3.0073
938.311	-20.04552
938.694	35.08839
939.077	-32.07351
939.46	25.05765
939.843	-39.07585
940.226	-8.01974
940.609	-39.08486
940.991	30.07331
941.374	41.0959
941.757	1.00233
942.139	9.01921
942.522	1.00223
942.904	83.19055
943.286	-13.03122
943.668	-1.0025
944.05	3.00709
944.432	-30.07123
944.814	17.04017
945.196	11.02607
945.578	-13.02975
945.959	27.06044
946.341	3.00689
946.722	4.00885
947.104	28.06368
947.485	23.051
947.866	-32.07747
948.247	3.00724
948.628	41.09432
949.009	27.06668
949.39	13.03081
949.771	-8.01736
950.152	38.08852
950.532	15.03605
950.913	8.0184
951.293	-21.05524
951.674	-33.07594
952.054	-24.05771
952.434	-1.00236
952.814	23.0517
953.194	-39.0974
953.574	-45.10468
953.954	12.02714
954.334	-31.0737
954.714	-17.03993
955.093	29.06732
955.473	-1.0024
955.853	34.08475
956.232	20.05313
956.611	6.01361
956.99	26.0632
957.37	58.1412
957.749	13.02909
958.128	34.0828
958.506	-23.05749
958.885	30.07312
959.264	2.00471
959.643	-69.14707
960.021	-31.07398
960.4	39.08439
960.778	12.02776
961.156	8.01921
961.535	52.11538
961.913	-12.02661
962.291	-6.01493
962.669	-25.06103
963.047	23.05623
963.424	-14.0344
963.802	38.08879
964.18	-3.00717
964.557	-39.08298
964.935	-16.0359
965.312	-5.01256
965.69	25.05918
966.067	21.04819
966.444	-11.02592
966.821	8.01977
967.198	15.03424
967.575	28.06489
967.952	-17.03798
968.329	51.11849
968.705	64.12718
969.082	36.08928
969.458	-47.10985
969.835	10.02308
970.211	44.10939
970.587	24.05714
970.963	44.10776
971.339	-11.02776
971.715	10.0237
972.091	41.09631
972.467	-13.03091
972.843	-8.01916
973.219	-37.08283
973.594	2.00504
973.97	-8.01783
974.345	43.09757
974.721	-37.08423
975.096	22.05036
975.471	8.01797
975.846	-3.00688
976.221	16.03881
976.596	-23.05253
976.971	36.08402
977.346	3.00661
977.72	57.1391
978.095	68.16777
978.469	45.10165
978.844	-3.00709
979.218	-11.02546
979.593	-8.01825
979.967	14.03232
980.341	45.09775
980.715	3.00718
981.089	0
981.463	1.0022
981.837	19.04449
982.21	-54.11757
982.584	31.07137
982.957	9.02159
983.331	14.031
983.704	58.13643
984.078	20.04738
984.451	33.07685
984.824	-3.007
985.197	-14.03223
985.57	41.09819
985.943	22.05185
986.316	46.10571
986.688	32.07333
987.061	23.05068
987.434	-10.02521
987.806	-24.05531
988.179	62.13843
988.551	-21.05102
988.923	19.0451
989.295	38.08998
989.667	-29.06735
990.039	-8.01914
990.411	15.03286
990.783	49.10498
991.155	34.07864
991.527	-32.07363
991.898	10.02384
992.27	-30.07175
992.641	15.03563
993.012	17.03757
993.384	-21.04786
993.755	-6.01469
994.126	31.07108
994.497	10.02352
994.868	-14.03038
995.239	-27.06194
995.61	-36.08712
995.98	46.1074
996.351	19.04559
996.722	-22.04871
997.092	-14.03203
997.462	38.08666
997.833	15.03344
998.203	13.02967
998.573	26.06247
998.943	29.06447
999.313	-5.01145
999.683	19.04409
1000.053	3.00653
1000.423	39.09033
1000.792	18.04446
1001.162	42.09926
1001.531	-2.00466
1001.901	5.01193
1002.27	-19.0399
1002.639	22.0536
1003.009	50.11306
1003.378	26.06346
1003.747	34.07698
1004.116	24.0546
1004.485	53.12036
1004.853	17.0409
1005.222	5.012
1005.591	18.03996
1005.959	79.17189
1006.328	33.07168
1006.696	32.07489
1007.064	9.02158
1007.433	-29.069
1007.801	33.07688
1008.169	58.14009
1008.537	56.11357
1008.905	-13.02922
1009.273	24.05597
1009.64	11.02499
1010.008	82.18489
1010.375	-61.13662
1010.743	21.04453
1011.11	13.02962
1011.478	-25.05925
1011.845	42.09292
1012.212	29.06154
1012.579	27.06298
1012.946	9.02012
1013.313	41.0916
1013.68	-7.0145
1014.047	-22.0504
1014.414	34.07704
1014.78	-8.01906
1015.147	50.11357
1015.513	23.05306
1015.88	30.07254
1016.246	34.07942
1016.612	32.06834
1016.978	23.05325
1017.344	-5.01171
1017.71	-56.1272
1018.076	5.01108
1018.442	15.03695
1018.808	54.12954
1019.174	21.05052
1019.539	86.18087
1019.905	46.10537
1020.27	48.1137
1020.636	24.05363
1021.001	79.17948
1021.366	16.03637
1021.731	15.0367
1022.096	30.07309
1022.461	19.04266
1022.826	56.12601
1023.191	-9.02275
1023.556	49.10838
1023.92	7.01632
1024.285	49.11367
1024.649	11.02549
1025.014	-20.04714
1025.378	1.00242
1025.742	74.17508
1026.107	-18.03817
1026.471	33.07122
1026.835	107.25497
1027.199	7.01613
1027.562	36.07981
1027.926	-1.00232
1028.29	-36.08731
1028.654	1.00217
1029.017	17.03956
1029.381	67.15333
1029.744	30.07328
1030.107	5.01105
1030.471	34.07764
1030.834	8.01726
1031.197	-18.04044
1031.56	-25.05629
1031.923	-7.01744
1032.286	-18.03949
1032.648	29.06567
1033.011	51.11168
1033.374	0
1033.736	-17.0433
1034.099	-5.01159
1034.461	7.01723
1034.823	13.0309
1035.185	33.07921
1035.548	-16.03727
1035.91	-42.0961
1036.272	-24.05179
1036.634	-29.06709
1036.995	-4.0089
1037.357	-5.01156
1037.719	-14.0325
1038.08	17.03785
1038.442	-18.04155
1038.803	45.10211
1039.165	20.04823
1039.526	-11.02517
1039.887	41.09371
1040.248	-2.00476
1040.609	38.08876
1040.97	16.03771
1041.331	23.05577
1041.692	27.06005
1042.053	3.00644
1042.413	30.06618
1042.774	33.07555
1043.134	-8.01787
1043.495	-6.01435
1043.855	-53.12251
1044.215	9.02147
1044.576	-24.05549
1044.936	10.02144
1045.296	6.01414
1045.656	-19.04407
1046.016	71.15993
1046.375	76.17396
1046.735	18.03932
1047.095	34.07519
1047.454	-50.09806
1047.814	61.14016
1048.173	-21.04701
1048.533	27.05862
1048.892	60.13904
1049.251	15.03585
1049.61	-36.08458
1049.969	-29.06527
1050.328	-35.07139
1050.687	4.0093
1051.046	-12.02813
1051.405	33.07755
1051.763	-23.05064
1052.122	15.0359
1052.48	40.09394
1052.839	-8.01785
1053.197	-1.00223
1053.555	73.15262
1053.914	4.00928
1054.272	45.10298
1054.63	15.03522
1054.988	22.05013
1055.345	-24.04883
1055.703	6.01376
1056.061	-7.01732
1056.419	-7.01757
1056.776	44.10108
1057.134	21.04612
1057.491	18.04321
1057.848	-19.04462
1058.206	-35.07719
1058.563	48.0985
1058.92	79.16823
1059.277	52.12055
1059.634	24.05332
1059.991	-11.02426
1060.348	43.09257
1060.704	52.11888
1061.061	42.09078
1061.418	76.17612
1061.774	1.00236
1062.131	35.08994
1062.487	20.04473
1062.843	33.07867
1063.199	-15.03557
1063.555	32.07041
1063.911	46.11094
1064.267	53.10082
1064.623	-41.0956
1064.979	-18.03936
1065.335	-21.04676
1065.691	-34.07632
1066.046	37.07626
1066.402	54.11687
1066.757	17.04085
1067.112	41.09462
1067.468	32.0723
1067.823	23.05274
1068.178	-25.05746
1068.533	-11.0255
1068.888	32.07156
1069.243	12.02806
1069.598	39.08993
1069.952	4.00861
1070.307	20.04776
1070.662	-27.06094
1071.016	13.02797
1071.371	15.0321
1071.725	8.01775
1072.079	9.0209
1072.434	19.04385
1072.788	-2.00452
1073.142	-41.09477
1073.496	7.01569
1073.85	15.03272
1074.203	-22.05056
1074.557	-14.03596
1074.911	-6.01342
1075.265	53.1163
1075.618	18.04168
1075.971	45.10228
1076.325	-12.02926
1076.678	3.00654
1077.031	47.10009
1077.385	-11.02268
1077.738	25.0537
1078.091	43.093
1078.444	58.12617
1078.796	38.08921
1079.149	32.07627
1079.502	-19.04299
1079.855	-7.01549
1080.207	-7.01638
1080.56	41.10158
1080.912	8.01841
1081.264	-10.02286
1081.617	-12.02794
1081.969	-4.00975
1082.321	27.0631
1082.673	-41.08944
1083.025	6.01334
1083.377	5.00981
1083.728	59.12963
1084.08	-29.06911
1084.432	18.04147
1084.783	40.08727
1085.135	24.05773
1085.486	-36.07961
1085.838	13.03053
1086.189	32.07389
1086.54	1.00225
1086.891	-16.03892
1087.242	8.01841
1087.593	-36.08253
1087.944	32.06878
1088.295	-2.00427
1088.646	-17.03884
1088.996	13.03006
1089.347	0
1089.698	3.00679
1090.048	42.10442
1090.398	-18.03939
1090.749	53.11992
1091.099	21.0515
1091.449	-12.02885
1091.799	15.03565
1092.149	-10.02372
1092.499	54.12489
1092.849	-11.02696
1093.199	-12.02856
1093.548	-9.02071
1093.898	10.02409
1094.248	-27.06658
1094.597	24.0601
1094.947	33.08483
1095.296	62.14641
1095.645	15.037
1095.994	-13.02931
1096.343	-40.09523
1096.692	-24.06099
1097.041	60.15918
1097.39	37.08844
1097.739	4.00997
1098.088	-25.06386
1098.437	16.04105
1098.785	79.20582
1099.134	10.0252
1099.482	0
1099.83	61.15433
1100.179	14.03553
1100.527	45.11571
1100.875	16.04108
1101.223	24.06125
1101.571	21.05659
1101.919	-15.03852
1102.267	40.11002
1102.615	1.00321
1102.962	-11.0353
1103.31	-1.00321
1103.658	-11.03535
