Data from N3 R9 sample 8_Subt2__5__15-10-26-541.txt Node

Date: Mon Sep 22 15:10:26 PDT 2025
User: uwsun
Spectrometer: HDX01956
Trigger mode: 0
Integration Time (sec): 5.000000E-1
Scans to average: 1
Nonlinearity correction enabled: true
Boxcar width: 0
Storing dark spectrum: false
XAxis mode: Wavelengths
Number of Pixels in Spectrum: 2068
>>>>>Begin Spectral Data<<<<<
194.03	2.00583
194.578	-11.03577
195.127	1.00321
195.676	-5.01609
196.225	-4.01057
196.773	-9.02511
197.321	32.08935
197.87	8.02073
198.418	44.11513
198.966	21.05583
199.513	-5.01274
200.061	31.07988
200.609	26.06905
201.156	60.1318
201.704	40.1023
202.251	46.12378
202.798	19.05006
203.345	-5.01249
203.892	18.04612
204.438	39.09432
204.985	53.12833
205.532	51.13604
206.078	33.08257
206.624	38.09564
207.17	64.14884
207.716	35.08599
208.262	16.03209
208.808	-12.03041
209.354	-12.02941
209.899	53.13505
210.445	36.09175
210.99	31.07627
211.535	83.19793
212.08	34.08001
212.625	62.15549
213.17	38.09633
213.715	22.05064
214.259	31.07291
214.804	11.0273
215.348	44.10209
215.892	6.01456
216.436	37.08556
216.98	34.07591
217.524	9.02149
218.068	51.12894
218.612	14.03538
219.155	11.02623
219.698	63.15036
220.242	28.06954
220.785	47.10972
221.328	28.07027
221.871	15.03756
222.414	70.17378
222.956	32.07808
223.499	31.07003
224.041	-12.02778
224.583	51.10865
225.126	35.07829
225.668	16.03908
226.21	22.05569
226.751	56.12327
227.293	28.06375
227.835	4.0098
228.376	54.12241
228.918	58.14598
229.459	70.17404
230	42.10033
230.541	-3.00685
231.082	49.12149
231.622	48.11026
232.163	18.04415
232.704	-8.02006
233.244	35.08767
233.784	28.06806
234.324	5.01123
234.864	0
235.404	68.16101
235.944	21.04964
236.484	38.09489
237.023	1.00238
237.563	7.01627
238.102	-4.0094
238.641	36.09035
239.18	-1.00235
239.719	32.07988
240.258	41.09216
240.797	26.0627
241.335	-9.02184
241.874	-21.04075
242.412	1.00239
242.95	-6.01452
243.488	29.06596
244.026	14.03181
244.564	19.03866
245.102	50.1114
245.64	23.05498
246.177	-37.08242
246.715	10.02379
247.252	45.10377
247.789	88.16158
248.326	66.16032
248.863	42.09319
249.4	-4.00904
249.936	68.141
250.473	-6.01398
251.009	59.1361
251.546	38.08312
252.082	-11.02389
252.618	-3.00675
253.154	-6.01442
253.69	2.00446
254.226	40.09508
254.761	64.14271
255.297	34.07469
255.832	79.18738
256.367	54.12702
256.903	57.12529
257.438	-22.05183
257.972	51.11413
258.507	4.0092
259.042	55.12074
259.576	42.09117
260.111	46.10601
260.645	48.1034
261.179	19.04425
261.713	17.03765
262.247	29.06722
262.781	-22.04617
263.315	41.10091
263.849	7.0176
264.382	48.10996
264.915	51.12097
265.449	41.1011
265.982	86.1959
266.515	-31.0752
267.048	39.08457
267.58	-2.00433
268.113	28.06094
268.646	66.16355
269.178	1.00225
269.71	-1.00215
270.243	5.0114
270.775	20.0505
271.307	-11.02653
271.838	37.08725
272.37	-16.03937
272.902	8.01808
273.433	54.11782
273.965	18.0432
274.496	38.09458
275.027	28.06984
275.558	20.04862
276.089	25.06257
276.62	12.03043
277.15	43.10533
277.681	58.12499
278.211	49.12038
278.741	60.13391
279.272	-9.02031
279.802	25.06251
280.332	51.12102
280.861	21.05039
281.391	-2.00458
281.921	5.01188
282.45	35.08767
282.98	29.07512
283.509	88.19777
284.038	25.05687
284.567	-1.00234
285.096	49.11775
285.625	38.08649
286.153	52.12294
286.682	81.18521
287.21	72.17371
287.739	47.1114
288.267	35.085
288.795	31.08143
289.323	76.17898
289.851	49.1138
290.378	46.10304
290.906	29.07088
291.433	32.08031
291.961	54.12375
292.488	30.07475
293.015	21.04925
293.542	5.01265
294.069	39.09606
294.596	45.11031
295.122	68.16282
295.649	17.03737
296.175	37.08986
296.702	42.10145
297.228	15.036
297.754	97.21876
298.28	-21.04792
298.806	66.16092
299.332	64.14283
299.857	80.18333
300.383	12.03005
300.908	58.14067
301.433	50.12191
301.958	61.14133
302.483	39.09874
303.008	19.04718
303.533	9.02337
304.058	79.18492
304.582	85.20162
305.107	73.19182
305.631	58.13067
306.155	20.04651
306.679	64.14955
307.203	75.17446
307.727	26.06206
308.251	42.10336
308.775	62.14913
309.298	-10.02434
309.822	32.081
310.345	40.09369
310.868	82.19664
311.391	50.12282
311.914	78.19766
312.437	26.05908
312.96	28.06699
313.482	64.15195
314.005	56.14241
314.527	61.16045
315.049	70.17543
315.571	93.21008
316.093	65.15957
316.615	112.27347
317.137	66.14382
317.659	52.1264
318.18	31.07449
318.702	71.16516
319.223	78.16057
319.744	65.14707
320.265	55.13552
320.786	86.21265
321.307	68.16937
321.828	62.13974
322.348	41.09665
322.869	49.11596
323.389	-210.38229
323.909	59.13665
324.43	56.13286
324.95	41.09451
325.47	104.25659
325.989	85.20169
326.509	82.183
327.029	71.15783
327.548	112.25574
328.067	125.303
328.587	69.17114
329.106	91.20716
329.625	82.21316
330.144	78.18104
330.662	75.17529
331.181	119.2767
331.7	137.31905
332.218	148.32401
332.736	118.27486
333.255	58.13649
333.773	82.19401
334.291	119.29494
334.808	119.26706
335.326	80.17957
335.844	94.21965
336.361	136.34254
336.879	116.26956
337.396	70.16767
337.913	54.1239
338.43	128.28696
338.947	111.26461
339.464	79.17072
339.981	96.22959
340.497	99.24151
341.014	74.17961
341.53	106.24008
342.046	137.33595
342.562	140.34248
343.078	143.33316
343.594	96.22784
344.11	128.29745
344.626	106.26699
345.141	93.21231
345.657	139.31297
346.172	126.29881
346.687	87.19653
347.202	154.34496
347.717	145.3438
348.232	119.29321
348.747	76.17277
349.261	174.37899
349.776	112.26325
350.29	130.31908
350.805	140.34095
351.319	115.26624
351.833	192.43822
352.347	60.1391
352.861	114.26083
353.374	187.42431
353.888	177.42565
354.401	149.34015
354.915	202.45211
355.428	128.3137
355.941	196.45546
356.454	165.36084
356.967	198.46501
357.48	173.39334
357.993	150.3653
358.505	193.47185
359.018	173.41429
359.53	215.51564
360.042	153.33432
360.554	206.49096
361.066	174.42089
361.578	196.42347
362.09	130.30209
362.602	232.50188
363.113	185.42165
363.625	212.47155
364.136	165.35321
364.647	167.38769
365.158	178.40365
365.669	206.47983
366.18	193.44414
366.691	202.43624
367.201	231.53604
367.712	183.40477
368.222	228.50819
368.733	156.33517
369.243	216.47047
369.753	231.52393
370.263	204.4791
370.773	210.50586
371.282	217.49837
371.792	235.52433
372.301	207.48832
372.811	267.68073
373.32	238.49569
373.829	261.60708
374.338	209.45822
374.847	222.49523
375.356	290.6656
375.865	295.60715
376.373	330.71997
376.882	273.66517
377.39	338.77916
377.898	336.79611
378.407	339.73568
378.915	349.71958
379.423	335.75051
379.93	296.6343
380.438	388.8919
380.946	371.81403
381.453	440.99197
381.96	451.99743
382.468	467.0235
382.975	551.23327
383.482	541.1236
383.989	541.25995
384.495	492.03324
385.002	583.10432
385.509	618.30232
386.015	623.0787
386.521	677.33837
387.028	698.37124
387.534	787.45602
388.04	742.52563
388.546	809.54078
389.051	829.50794
389.557	857.66395
390.063	984.81359
390.568	959.87024
391.073	1013.8453
391.578	1058.08106
392.084	1078.8914
392.589	1136.89194
393.093	1298.35937
393.598	1379.27214
394.103	1456.49284
394.607	1657.73841
395.112	1765.89474
395.616	1826.84967
396.12	1947.69851
396.624	2147.05127
397.128	2390.16005
397.632	2592.10746
398.136	2857.04074
398.639	3060.15564
399.143	3481.62051
399.646	3807.95496
400.15	4257.75073
400.653	4842.42716
401.156	5352.96539
401.659	6151.93168
402.162	7564.8386
402.664	9769.48976
403.167	14249.95575
403.67	26551.21117
404.172	59010.30105
404.674	62421.90989
405.176	60252.21675
405.678	57642.47783
406.18	55467.82182
406.682	56151.3881
407.184	60564.14267
407.686	63049.78229
408.187	44300.57269
408.688	25741.31428
409.19	17912.96834
409.691	14302.6294
410.192	12221.49459
410.693	10415.47893
411.194	9526.5488
411.694	8972.4117
412.195	8286.67483
412.696	7515.81924
413.196	7041.2036
413.696	6815.77655
414.196	6836.29923
414.696	6729.92997
415.196	6429.66031
415.696	5876.56886
416.196	4801.44751
416.695	3688.15618
417.195	3111.2697
417.694	2918.43584
418.194	2856.60118
418.693	2678.04078
419.192	2594.18394
419.691	2536.16051
420.19	2431.16745
420.688	2364.25054
421.187	2232.44933
421.685	2093.91298
422.184	1915.79451
422.682	1684.42035
423.18	1391.33865
423.678	1233.12096
424.176	1184.08543
424.674	1019.78525
425.172	1061.99529
425.669	957.9342
426.167	967.81999
426.664	855.60018
427.161	812.57233
427.659	691.45285
428.156	666.19036
428.652	622.40181
429.149	566.21087
429.646	619.21953
430.143	596.26635
430.639	490.02949
431.135	508.14599
431.632	431.89862
432.128	375.828
432.624	419.98791
433.12	387.81298
433.616	330.66067
434.111	384.83847
434.607	299.66463
435.103	345.67199
435.598	324.61442
436.093	279.60652
436.588	251.52776
437.083	255.53924
437.578	284.60753
438.073	257.60743
438.568	298.68779
439.062	231.46086
439.557	224.5001
440.051	170.36839
440.546	213.46541
441.04	219.50437
441.534	201.48262
442.028	200.4539
442.522	204.46973
443.015	151.31512
443.509	177.41236
444.002	112.26171
444.496	144.29684
444.989	170.39551
445.482	162.38788
445.975	145.31804
446.468	147.30623
446.961	76.1542
447.454	125.27117
447.947	150.34554
448.439	140.32546
448.931	143.31114
449.424	134.32218
449.916	79.18173
450.408	104.22835
450.9	117.27473
451.392	33.08023
451.884	111.24326
452.375	108.25938
452.867	123.26193
453.358	91.19716
453.849	47.09621
454.341	87.18729
454.832	31.06455
455.323	58.13654
455.814	114.24915
456.304	71.15757
456.795	71.1558
457.285	80.17144
457.776	95.20679
458.266	18.04125
458.756	64.14843
459.247	40.09141
459.737	66.15252
460.226	71.15245
460.716	70.16042
461.206	66.15343
461.695	18.04305
462.185	22.05046
462.674	66.14504
463.163	74.1581
463.653	53.10726
464.142	-7.01649
464.63	92.2154
465.119	78.1735
465.608	1.00223
466.096	48.10215
466.585	55.12115
467.073	100.23128
467.561	59.13627
468.05	33.07315
468.538	47.1111
469.026	26.06028
469.513	57.11684
470.001	57.12492
470.489	73.16873
470.976	58.13019
471.463	11.0266
471.951	-11.02657
472.438	28.06399
472.925	22.05007
473.412	26.06197
473.899	14.0311
474.385	59.14043
474.872	6.01362
475.359	56.13449
475.845	38.07608
476.331	24.05032
476.817	38.08963
477.303	41.09239
477.789	-3.00701
478.275	-27.06518
478.761	31.07194
479.247	41.08955
479.732	38.09171
480.218	57.14498
480.703	32.07726
481.188	36.07501
481.673	4.00887
482.158	43.09081
482.643	28.06903
483.128	48.10761
483.612	-36.08267
484.097	0
484.581	12.02673
485.066	66.15525
485.55	50.1071
486.034	54.11442
486.518	-50.11527
487.002	51.12339
487.486	41.09852
487.969	12.02906
488.453	-1.00246
488.936	51.11252
489.42	5.01063
489.903	-24.0591
490.386	-19.04243
490.869	10.02117
491.352	-6.01427
491.835	-12.02401
492.318	-6.01327
492.8	-17.03418
493.283	-3.00747
493.765	6.01444
494.247	2.00454
494.73	28.0607
495.212	2.00469
495.694	-7.016
496.175	-18.04269
496.657	-57.13102
497.139	8.01344
497.62	21.04898
498.102	4.00978
498.583	-70.17245
499.064	3.00656
499.545	-3.0067
500.026	-49.10766
500.507	13.02964
500.988	-20.04805
501.469	-34.08333
501.949	-54.13048
502.43	-41.09642
502.91	-13.02629
503.39	-8.01964
503.87	-13.02997
504.35	-8.01848
504.83	-17.03644
505.31	-32.07653
505.79	-57.13395
506.269	-41.09428
506.749	-28.06314
507.228	-26.06004
507.707	-98.21074
508.187	-6.01381
508.666	-83.20187
509.145	-53.12221
509.623	-45.10443
510.102	-49.11645
510.581	-38.08911
511.059	-34.0845
511.538	-55.1391
512.016	-14.03279
512.494	-31.07398
512.972	-67.15726
513.45	-48.11084
513.928	-70.16952
514.406	-28.0676
514.884	-64.16103
515.361	-61.14419
515.839	-42.09397
516.316	-57.13494
516.793	1.00251
517.27	-73.17329
517.747	-35.0895
518.224	-30.06814
518.701	-23.05026
519.178	-38.09372
519.654	-4.00934
520.131	-73.17987
520.607	-53.12905
521.083	-62.14026
521.56	-73.17175
522.036	-68.14566
522.512	-62.14839
522.987	-40.09288
523.463	-52.12241
523.939	-47.11299
524.414	-36.08068
524.89	-29.06815
525.365	-130.29013
525.84	-13.03076
526.315	2.00475
526.79	-42.09307
527.265	-15.03348
527.74	-87.21089
528.215	-39.09068
528.689	-57.12434
529.164	-33.07024
529.638	-77.1946
530.112	-46.10711
530.587	-40.0839
531.061	-31.0739
531.534	-72.17081
532.008	-95.22499
532.482	-113.25412
532.956	-96.2431
533.429	21.04947
533.903	-112.24188
534.376	-92.19937
534.849	-73.16591
535.322	-60.13827
535.795	-71.17159
536.268	-90.21278
536.741	-103.2444
537.213	-14.0314
537.686	-42.10179
538.158	-101.22405
538.631	-59.13957
539.103	-103.22782
539.575	-45.09207
540.047	-60.12791
540.519	-38.08859
540.991	-52.12522
541.463	-57.13489
541.934	-98.22269
542.406	-85.19959
542.877	-121.26708
543.348	-80.19096
543.82	-65.15614
544.291	-86.19685
544.762	-80.18723
545.233	-31.07638
545.703	-36.07888
546.174	-82.18829
546.645	-89.21159
547.115	-82.19551
547.585	-60.13662
548.056	-124.29803
548.526	-77.18003
548.996	-82.19311
549.466	-30.07191
549.935	-103.24327
550.405	-86.18748
550.875	-71.16756
551.344	-84.19982
551.814	-39.08867
552.283	-17.03625
552.752	-104.24053
553.221	-70.15312
553.69	-77.16904
554.159	-96.23545
554.628	-16.03562
555.096	-68.17054
555.565	-47.10353
556.033	-77.17883
556.502	-91.21876
556.97	-66.14498
557.438	-117.27205
557.906	-50.11582
558.374	-63.14266
558.842	-109.25784
559.31	-88.19241
559.777	-71.16951
560.245	-128.29109
560.712	-29.06596
561.18	-83.18198
561.647	-86.18939
562.114	-90.20285
562.581	-96.23126
563.048	-68.15157
563.514	-69.167
563.981	-102.2267
564.448	-20.04366
564.914	-81.18454
565.381	16.0354
565.847	38.08663
566.313	-36.0823
566.779	-39.08634
567.245	-17.03936
567.711	-14.03278
568.176	-26.05769
568.642	25.06142
569.108	30.07221
569.573	4.00912
570.038	9.01817
570.504	-44.09755
570.969	15.03658
571.434	68.14497
571.899	17.03964
572.363	13.02853
572.828	39.08634
573.293	50.11117
573.757	68.14937
574.222	39.08435
574.686	88.19249
575.15	23.05217
575.614	12.0266
576.078	88.19923
576.542	29.06326
577.006	44.09474
577.469	128.30109
577.933	30.06462
578.396	42.09617
578.86	84.19033
579.323	98.22413
579.786	87.17954
580.249	93.20296
580.712	80.18723
581.175	80.19052
581.637	75.16374
582.1	48.10028
582.563	79.15959
583.025	94.21939
583.487	63.12253
583.95	37.07728
584.412	62.12367
584.874	15.03507
585.336	61.1401
585.797	-11.02301
586.259	42.09393
586.721	52.11907
587.182	18.03986
587.643	9.01976
588.105	110.2536
588.566	12.02428
589.027	23.05405
589.488	77.16996
589.949	25.05907
590.41	39.07415
590.87	6.0132
591.331	35.07252
591.791	-21.04728
592.252	6.01362
592.712	-1.00235
593.172	-32.07029
593.632	15.03176
594.092	55.11784
594.552	-6.01264
595.011	-47.10609
595.471	-37.08034
595.931	-39.08468
596.39	-22.05131
596.849	-21.04808
597.308	-55.11636
597.768	-32.08077
598.227	-57.1351
598.685	-42.09408
599.144	-38.08785
599.603	19.04407
600.062	-31.06458
600.52	-72.15836
600.978	13.03012
601.437	-66.14882
601.895	4.0083
602.353	0
602.811	-36.07915
603.269	7.01644
603.727	-64.15189
604.184	-4.00884
604.642	-25.06021
605.099	-41.09228
605.557	-32.07691
606.014	22.04584
606.471	-82.20268
606.928	-48.10193
607.385	-8.01955
607.842	-9.02041
608.299	-10.02279
608.755	-68.16132
609.212	-1.00217
609.668	28.0614
610.125	-20.04699
610.581	-31.07106
611.037	-17.03789
611.493	6.01368
611.949	-4.00947
612.405	-8.01575
612.861	-4.00908
613.316	-6.01417
613.772	-68.1522
614.227	-5.01163
614.683	-52.10758
615.138	-43.0988
615.593	2.00458
616.048	10.02219
616.503	-15.03592
616.958	22.0543
617.412	-3.00693
617.867	-41.09035
618.321	-24.04758
618.776	18.03896
619.23	-50.115
619.684	10.02148
620.138	-21.04711
620.592	16.03786
621.046	-19.04329
621.5	-43.10219
621.954	-19.04124
622.407	7.01497
622.861	-15.0358
623.314	-37.08136
623.768	-19.04331
624.221	-12.02297
624.674	21.04786
625.127	-38.08617
625.58	0
626.033	-27.0576
626.485	5.01177
626.938	-21.04889
627.39	-35.07842
627.843	-3.00672
628.295	-41.0916
628.747	-22.05032
629.199	-18.03992
629.651	2.00451
630.103	-15.03375
630.555	10.02054
631.006	-49.112
631.458	-1.00231
631.909	-30.06576
632.361	-63.14458
632.812	-20.04558
633.263	3.00628
633.714	12.02486
634.165	-22.05211
634.616	-51.11854
635.067	-30.06493
635.518	6.01385
635.968	13.02506
636.419	-45.09583
636.869	-13.03031
637.319	-29.06479
637.769	-56.12187
638.219	-7.01597
638.669	-90.20964
639.119	-42.10064
639.569	-44.10447
640.019	-39.08745
640.468	-48.10482
640.918	-49.11506
641.367	-55.12003
641.816	-53.1162
642.265	-11.02507
642.714	-88.20029
643.163	-52.1162
643.612	-49.1156
644.061	-106.22057
644.51	-31.06908
644.958	-4.00866
645.406	-25.05834
645.855	-76.18336
646.303	-17.03839
646.751	-59.13241
647.199	-43.09503
647.647	-37.0842
648.095	-43.09654
648.543	-16.03131
648.99	-47.10963
649.438	-34.07801
649.885	-67.16314
650.333	18.0334
650.78	-12.02846
651.227	-1.0024
651.674	-39.08698
652.121	-100.23916
652.568	5.01187
653.015	0
653.461	-50.11793
653.908	-43.09773
654.354	-28.06571
654.801	-23.05323
655.247	-34.07214
655.693	-23.05922
656.139	-44.10269
656.585	-27.06385
657.031	-3.00704
657.477	-40.08446
657.922	47.10609
658.368	-63.15174
658.813	-60.13645
659.259	-2.00472
659.704	-28.06496
660.149	-29.0661
660.594	-57.13301
661.039	-9.01997
661.484	-11.02533
661.929	-25.05714
662.373	-9.02256
662.818	-35.08535
663.262	2.00472
663.707	-37.09264
664.151	-39.09393
664.595	-36.08547
665.039	-77.18805
665.483	-10.02529
665.927	-23.0523
666.371	7.01613
666.814	-30.06988
667.258	-12.02793
667.701	0
668.145	-14.03369
668.588	4.00967
669.031	-59.13692
669.474	13.03078
669.917	24.05148
670.36	-67.16369
670.803	-9.02103
671.245	-52.10797
671.688	-24.0574
672.13	-55.12115
672.573	-9.02238
673.015	15.03535
673.457	2.00427
673.899	-10.02347
674.341	7.01661
674.783	19.04467
675.225	-24.05753
675.666	20.04791
676.108	-28.05943
676.549	-13.02997
676.991	-51.10988
677.432	-27.05294
677.873	-3.00685
678.314	-4.0093
678.755	-23.05493
679.196	-40.08964
679.637	30.07095
680.078	-36.08187
680.518	-6.01358
680.959	-24.05648
681.399	12.02896
681.839	44.10415
682.28	8.01925
682.72	-21.04697
683.16	13.03154
683.6	4.00876
684.039	-44.08903
684.479	-19.04616
684.919	5.01141
685.358	-11.0272
685.798	-13.03351
686.237	-33.07722
686.676	24.05387
687.115	-2.00456
687.554	-81.18723
687.993	-30.06418
688.432	19.04254
688.871	4.00887
689.309	-18.04193
689.748	44.08809
690.186	-24.05502
690.625	22.05007
691.063	-29.06807
691.501	-15.03585
691.939	-9.02187
692.377	-27.06409
692.815	-17.03983
693.253	13.03047
693.69	27.05802
694.128	32.07633
694.565	20.04622
695.003	-44.10876
695.44	-28.06417
695.877	-6.01371
696.314	-26.05381
696.751	-15.03261
697.188	-3.00664
697.625	-15.03262
698.061	0
698.498	-55.12768
698.934	14.03293
699.371	-58.13462
699.807	-47.10846
700.243	8.01852
700.679	-17.03682
701.115	-46.10321
701.551	-3.00682
701.987	0
702.422	10.02329
702.858	6.01403
703.294	-50.10988
703.729	23.05426
704.164	0
704.599	58.12359
705.035	0
705.47	1.00238
705.904	24.05474
706.339	-14.03093
706.774	-9.02036
707.209	-31.06943
707.643	-14.03271
708.078	-63.15018
708.512	-1.00245
708.946	-27.06238
709.38	0
709.814	-75.16603
710.248	-22.05153
710.682	35.08129
711.116	14.03302
711.549	-21.0533
711.983	-7.0157
712.416	-20.04539
712.85	-24.05845
713.283	-13.02979
713.716	17.04136
714.149	19.04329
714.582	8.01716
715.015	-3.00718
715.448	-15.03629
715.881	22.04527
716.313	17.03872
716.746	-20.0457
717.178	7.01644
717.61	13.03183
718.043	15.03595
718.475	27.06298
718.907	32.0775
719.339	73.16073
719.77	16.03709
720.202	-46.11316
720.634	2.00473
721.065	-22.05028
721.497	-22.05187
721.928	-15.03618
722.359	-6.01435
722.79	-10.02345
723.221	3.00733
723.652	34.08429
724.083	-3.00657
724.514	41.08932
724.945	-6.01386
725.375	-38.08677
725.806	6.01438
726.236	3.00736
726.666	66.14985
727.096	-12.02835
727.526	3.00747
727.956	3.0066
728.386	-12.02852
728.816	-7.01731
729.246	-12.02834
729.675	-71.17113
730.105	27.06414
730.534	5.01114
730.964	14.03418
731.393	50.11867
731.822	32.07883
732.251	30.07437
732.68	-19.04296
733.109	3.00717
733.537	9.02116
733.966	2.00479
734.395	-27.06044
734.823	-31.06725
735.251	-13.03043
735.68	-24.0574
736.108	19.04671
736.536	20.045
736.964	66.14882
737.392	5.01214
737.82	12.028
738.247	-28.0645
738.675	-20.04521
739.102	29.07053
739.53	21.05209
739.957	-16.04
740.384	-29.06791
740.811	-15.03678
741.238	-42.09872
741.665	16.03599
742.092	-30.06767
742.519	21.05104
742.945	-3.00694
743.372	2.0048
743.798	-12.02988
744.225	-34.07867
744.651	47.11474
745.077	-29.06945
745.503	7.01648
745.929	-16.03714
746.355	41.09609
746.781	46.1106
747.207	53.12143
747.632	-60.14311
748.058	-48.11589
748.483	24.05279
748.908	-39.09436
749.334	-25.05948
749.759	18.04138
750.184	2.00466
750.609	20.04708
751.033	-13.02926
751.458	-4.0085
751.883	-30.07178
752.307	50.11343
752.732	-41.10009
753.156	44.10692
753.58	-13.02926
754.005	-14.03416
754.429	-16.03611
754.853	21.05104
755.277	12.02742
755.7	-7.01666
756.124	3.00726
756.548	40.09141
756.971	11.02543
757.394	42.10454
757.818	5.01256
758.241	-22.05406
758.664	14.03403
759.087	-35.07564
759.51	-19.04588
759.933	9.02113
760.356	-6.01484
760.778	-2.00479
761.201	17.03962
761.623	9.02084
762.046	28.06314
762.468	2.00458
762.89	18.04232
763.312	-4.00934
763.734	12.02794
764.156	-17.04068
764.578	-44.09612
765	-18.04211
765.421	14.03507
765.843	27.0688
766.264	24.05507
766.686	36.08708
767.107	-6.01416
767.528	-15.03707
767.949	21.05203
768.37	6.01427
768.791	22.05062
769.212	28.06895
769.632	11.02499
770.053	-26.06715
770.473	6.01402
770.894	-7.01679
771.314	4.00907
771.734	1.00226
772.154	4.00991
772.575	12.02616
772.994	-43.09507
773.414	32.07263
773.834	-28.0675
774.254	-28.06592
774.673	5.01172
775.093	-9.02171
775.512	-31.07435
775.931	-29.07154
776.351	22.05292
776.77	15.03572
777.189	6.0137
777.607	27.06687
778.026	-34.08163
778.445	27.06643
778.864	33.08212
779.282	5.0116
779.701	-13.03149
780.119	13.03214
780.537	-1.00244
780.955	-16.03929
781.373	16.03815
781.791	11.02381
782.209	20.04354
782.627	-6.01533
783.045	-57.12629
783.462	21.05216
783.88	30.07513
784.297	-32.07755
784.715	-4.01005
785.132	2.00467
785.549	-35.08583
785.966	0
786.383	26.06164
786.8	-28.06145
787.217	-27.06166
787.633	17.04124
788.05	4.00889
788.466	15.03312
788.883	29.07225
789.299	47.1095
789.715	-29.06775
790.131	11.02631
790.547	-2.00479
790.963	-29.06974
791.379	-30.07396
791.795	14.03051
792.21	62.13717
792.626	32.07327
793.041	16.0378
793.457	43.10168
793.872	-13.02944
794.287	26.06006
794.702	-54.12781
795.117	-5.01202
795.532	23.05598
795.947	-76.17081
796.362	-39.08893
796.776	-41.08902
797.191	-5.01169
797.605	25.05726
798.02	5.01183
798.434	15.03137
798.848	-16.03786
799.262	11.02656
799.676	33.07661
800.09	-56.13178
800.504	12.02758
800.918	4.0089
801.331	4.01004
801.745	-74.16194
802.158	-14.03365
802.572	33.07588
802.985	12.02738
803.398	-17.03845
803.811	6.0147
804.224	-14.03347
804.637	-26.0597
805.05	-8.01748
805.462	-1.00233
805.875	36.09136
806.288	-39.09111
806.7	0
807.112	63.13795
807.525	-29.06786
807.937	-21.05016
808.349	17.04081
808.761	-16.03768
809.173	-35.0817
809.584	-22.05145
809.996	5.01189
810.408	-23.05803
810.819	-22.05021
811.231	-5.01279
811.642	-46.10917
812.053	-13.03032
812.464	9.02048
812.875	-40.0988
813.286	-3.0075
813.697	5.01094
814.108	18.04156
814.519	6.01252
814.929	1.00242
815.34	27.06276
815.75	-13.03204
816.16	-8.01888
816.571	-13.03283
816.981	24.05354
817.391	12.02765
817.801	41.09796
818.211	15.03386
818.62	16.03708
819.03	-42.09772
819.44	-4.00999
819.849	4.00964
820.259	-2.00488
820.668	-8.01904
821.077	60.1447
821.486	3.0068
821.895	1.00233
822.304	13.03325
822.713	-37.08368
823.122	15.03566
823.531	-1.00226
823.939	31.07183
824.348	35.08058
824.756	-15.03579
825.164	11.02607
825.573	11.02642
825.981	2.00472
826.389	-38.09001
826.797	-18.0433
827.205	16.03526
827.612	-7.0164
828.02	-3.00682
828.428	-35.08665
828.835	1.00255
829.243	11.02521
829.65	11.02657
830.057	-1.00232
830.464	-15.03517
830.871	17.03868
831.278	15.03491
831.685	-28.05858
832.092	0
832.499	45.09266
832.905	-3.00729
833.312	20.04332
833.718	0
834.124	-57.12297
834.531	24.05777
834.937	-24.05906
835.343	29.06642
835.749	-4.00879
836.155	48.1206
836.561	-65.15376
836.966	92.21244
837.372	36.08735
837.777	-42.10106
838.183	-12.02526
838.588	-4.00957
838.993	-18.04137
839.399	-23.0539
839.804	21.05002
840.209	4.00982
840.613	11.02306
841.018	-3.0072
841.423	-38.09437
841.828	44.10752
842.232	-21.04881
842.637	-32.07254
843.041	41.10181
843.445	-4.0096
843.849	18.04351
844.253	-6.0135
844.657	-19.04616
845.061	43.09316
845.465	85.1971
845.869	1.00217
846.272	40.09336
846.676	-30.06889
847.079	2.00491
847.483	35.08238
847.886	19.0432
848.289	-12.03134
848.692	-9.02176
849.095	-5.01137
849.498	65.15548
849.901	21.04552
850.304	-59.13437
850.707	25.06067
851.109	33.07954
851.512	29.06786
851.914	26.06396
852.316	-4.00973
852.718	6.01517
853.121	-8.01852
853.523	16.03525
853.925	27.06831
854.326	-17.04093
854.728	18.04498
855.13	34.08545
855.531	-26.05951
855.933	-12.02721
856.334	20.04827
856.736	37.07907
857.137	2.00445
857.538	30.07276
857.939	23.05464
858.34	-30.06938
858.741	12.03005
859.142	-16.03643
859.542	5.01274
859.943	10.02358
860.343	12.02873
860.744	-57.13149
861.144	-2.00466
861.544	43.10073
861.945	-15.03727
862.345	9.02093
862.745	61.14424
863.145	-1.00224
863.544	30.07243
863.944	-5.01116
864.344	-12.02824
864.743	-3.00696
865.143	-17.04193
865.542	44.09738
865.941	57.13588
866.34	8.01802
866.74	35.09109
867.139	-7.01612
867.537	39.09535
867.936	-12.02731
868.335	-12.02953
868.734	29.07143
869.132	23.05092
869.531	22.04997
869.929	36.07801
870.327	6.01375
870.726	37.08742
871.124	3.00664
871.522	-20.0492
871.92	-4.00941
872.318	48.11243
872.715	5.01176
873.113	-2.00465
873.511	23.05489
873.908	-9.02218
874.306	14.03343
874.703	-8.01895
875.1	-16.03882
875.497	-50.11334
875.894	56.13332
876.291	-4.00935
876.688	-41.10158
877.085	-29.06583
877.482	18.04295
877.878	-19.04374
878.275	2.00488
878.671	16.03277
879.068	-8.01832
879.464	-41.09405
879.86	7.01583
880.256	-43.09971
880.652	25.06165
881.048	2.00473
881.444	20.04506
881.84	41.09998
882.236	36.08653
882.631	40.09372
883.027	16.03625
883.422	1.00244
883.817	-31.07591
884.213	-4.00983
884.608	-35.08337
885.003	9.02086
885.398	-1.00243
885.793	18.04303
886.188	51.1226
886.582	-7.01687
886.977	-15.03332
887.371	-30.0723
887.766	59.14312
888.16	-29.06884
888.554	-52.12041
888.949	-95.22438
889.343	27.06206
889.737	13.03406
890.131	67.16216
890.525	-19.04618
890.918	6.01457
891.312	60.13628
891.706	33.08251
892.099	33.07891
892.492	14.02808
892.886	-18.04199
893.279	20.04905
893.672	12.02938
894.065	23.05409
894.458	-53.12702
894.851	-19.04388
895.244	17.0419
895.637	-38.08596
896.029	8.01863
896.422	-21.04902
896.814	16.0379
897.206	-14.03198
897.599	0
897.991	-27.06261
898.383	7.0156
898.775	-2.00426
899.167	-9.02016
899.559	-5.01205
899.951	-2.00446
900.342	-9.02167
900.734	-47.11406
901.125	-9.02233
901.517	21.04879
901.908	61.13543
902.299	28.06604
902.69	6.01329
903.082	-8.01825
903.473	5.0114
903.863	7.01696
904.254	-33.07315
904.645	-6.01402
905.036	11.0256
905.426	60.12641
905.817	2.00468
906.207	60.1375
906.597	-6.01333
906.987	-18.04423
907.378	13.03163
907.768	-1.00253
908.158	-46.10647
908.547	5.01247
908.937	-23.05653
909.327	5.01144
909.717	15.03581
910.106	-20.0457
910.495	-25.05898
910.885	31.07458
911.274	14.03346
911.663	-1.0024
912.052	28.06522
912.441	32.07752
912.83	-13.02813
913.219	4.00992
913.608	51.11873
913.997	8.01934
914.385	-51.11403
914.774	50.11514
915.162	-21.04759
915.55	20.04524
915.939	-51.12344
916.327	-38.09123
916.715	-25.06135
917.103	21.04835
917.491	1.00234
917.878	52.12218
918.266	-14.03468
918.654	-35.08541
919.041	2.00508
919.429	-8.018
919.816	-56.13465
920.203	-23.05318
920.591	-26.06123
920.978	-48.11084
921.365	35.08738
921.752	-10.02275
922.139	2.00407
922.525	-8.0184
922.912	-14.03241
923.299	4.00952
923.685	-5.01264
924.072	58.1251
924.458	2.00474
924.844	30.07112
925.231	5.01105
925.617	-55.13462
926.003	40.09694
926.389	-13.0316
926.774	-4.00972
927.16	12.02806
927.546	53.13184
927.931	-41.09673
928.317	-33.07095
928.702	-7.01543
929.088	-53.11831
929.473	-9.02179
929.858	38.08953
930.243	9.02055
930.628	-16.03662
931.013	15.03533
931.398	51.10922
931.783	-8.02001
932.167	-24.05582
932.552	-5.01204
932.937	69.1593
933.321	-24.05744
933.705	14.03369
934.09	-51.1212
934.474	-12.02673
934.858	2.00501
935.242	58.12773
935.626	3.0074
936.009	-31.07944
936.393	-21.05163
936.777	-3.00739
937.16	7.01744
937.544	26.0575
937.927	2.00491
938.311	-21.04812
938.694	-11.02791
939.077	-12.0272
939.46	-8.01844
939.843	-10.01938
940.226	-1.00244
940.609	33.07171
940.991	-29.07085
941.374	-30.06966
941.757	27.06268
942.139	-16.03378
942.522	-41.09061
942.904	38.08701
943.286	-8.01913
943.668	-1.00247
944.05	-13.03051
944.432	-17.04011
944.814	-52.12179
945.196	23.05443
945.578	-3.00687
945.959	13.02908
946.341	23.05244
946.722	-6.01319
947.104	25.05659
947.485	-32.06985
947.866	63.15334
948.247	2.00479
948.628	-6.01374
949.009	-36.08908
949.39	-31.07308
949.771	-14.03047
950.152	-20.04677
950.532	5.01191
950.913	14.03195
951.293	18.04711
951.674	4.00919
952.054	34.08038
952.434	-24.05663
952.814	41.09122
953.194	26.06462
953.574	0
953.954	-29.06484
954.334	-16.03783
954.714	42.09776
955.093	-77.17756
955.473	6.01451
955.853	0
956.232	29.07636
956.611	6.01346
956.99	28.06786
957.37	17.0416
957.749	-6.01351
958.128	24.0579
958.506	-28.0701
958.885	-11.02665
959.264	27.06372
959.643	-47.09974
960.021	-8.01885
960.4	9.01915
960.778	-37.08505
961.156	14.03323
961.535	15.03286
961.913	-17.03737
962.291	6.01487
962.669	19.04594
963.047	57.13941
963.424	-11.02695
963.802	-1.00233
964.18	37.0882
964.557	35.07544
964.935	0
965.312	14.03534
965.69	0
966.067	-24.05493
966.444	-1.00234
966.821	4.00988
967.198	-26.05925
967.575	18.04161
967.952	-20.04419
968.329	-4.00921
968.705	-1.00196
969.082	6.01469
969.458	8.01861
969.835	36.08419
970.211	21.05167
970.587	-14.03283
970.963	19.04671
971.339	-30.07575
971.715	-7.01669
972.091	21.04941
972.467	-23.05378
972.843	21.05006
973.219	31.06828
973.594	-17.04235
973.97	45.09912
974.345	42.09486
974.721	22.05046
975.096	10.02307
975.471	15.03336
975.846	0
976.221	-24.05847
976.596	-5.01135
976.971	-28.0653
977.346	32.0697
977.72	4.00976
978.095	-3.00742
978.469	37.08263
978.844	4.0095
979.218	12.02736
979.593	-29.06514
979.967	5.01146
980.341	-9.01956
980.715	16.03851
981.089	9.02141
981.463	-53.11488
981.837	-4.00929
982.21	-5.01066
982.584	-25.05772
982.957	29.06945
983.331	-13.02863
983.704	65.15215
984.078	11.02598
984.451	22.05127
984.824	37.08535
985.197	10.02287
985.57	0
985.943	0
986.316	53.12021
986.688	14.03184
987.061	10.02201
987.434	34.08444
987.806	-16.03645
988.179	11.02456
988.551	-14.03367
988.923	2.00467
989.295	-3.00709
989.667	12.0275
990.039	21.04979
990.411	4.00875
990.783	-16.0345
991.155	-22.051
991.527	-21.0479
991.898	33.07794
992.27	-42.09991
992.641	12.02849
993.012	-1.00219
993.384	11.02491
993.755	11.02673
994.126	-6.01376
994.497	20.04644
994.868	14.03025
995.239	31.0706
995.61	5.01207
995.98	8.01824
996.351	7.01674
996.722	35.07745
997.092	-50.11283
997.462	45.10103
997.833	-15.0333
998.203	32.07239
998.573	42.10037
998.943	-4.00886
999.313	18.0409
999.683	-12.02749
1000.053	-23.04966
1000.423	51.11634
1000.792	-9.02214
1001.162	37.08617
1001.531	61.1434
1001.901	-6.01429
1002.27	1.00207
1002.639	45.10998
1003.009	18.04065
1003.378	26.06393
1003.747	23.05104
1004.116	57.1296
1004.485	-13.02939
1004.853	-15.03609
1005.222	22.05338
1005.591	30.06706
1005.959	-11.02344
1006.328	23.04866
1006.696	12.02741
1007.064	30.07175
1007.433	10.02353
1007.801	7.01611
1008.169	8.01909
1008.537	8.01649
1008.905	36.08011
1009.273	30.06949
1009.64	43.09872
1010.008	-4.00901
1010.375	35.07845
1010.743	36.07685
1011.11	-21.0468
1011.478	26.06059
1011.845	16.03537
1012.212	24.05121
1012.579	-17.03958
1012.946	51.11285
1013.313	14.03074
1013.68	-25.05268
1014.047	30.06878
1014.414	-1.00226
1014.78	27.06377
1015.147	5.01124
1015.513	1.00228
1015.88	-34.08206
1016.246	12.028
1016.612	13.02759
1016.978	-1.00234
1017.344	22.05185
1017.71	-26.05877
1018.076	30.06562
1018.442	-48.11768
1018.808	-13.03105
1019.174	-13.03128
1019.539	56.11575
1019.905	-4.0089
1020.27	-3.00709
1020.636	-53.11948
1021.001	-34.07654
1021.366	5.01145
1021.731	-21.05159
1022.096	-25.06069
1022.461	-3.00671
1022.826	58.13078
1023.191	-41.10377
1023.556	-2.00441
1023.92	24.05555
1024.285	-17.03983
1024.649	-25.05765
1025.014	-20.04688
1025.378	-4.0096
1025.742	17.03998
1026.107	-24.05103
1026.471	8.01751
1026.835	2.0047
1027.199	61.13993
1027.562	-12.02619
1027.926	22.05066
1028.29	10.02414
1028.654	17.03661
1029.017	18.04178
1029.381	22.05007
1029.744	35.08522
1030.107	-37.08263
1030.471	-35.07864
1030.834	12.02547
1031.197	-36.08111
1031.56	18.04027
1031.923	29.07266
1032.286	-14.03029
1032.648	16.0362
1033.011	3.0065
1033.374	96.2099
1033.736	-18.0462
1034.099	6.01389
1034.461	30.07298
1034.823	-23.05495
1035.185	-12.0288
1035.548	-24.05535
1035.91	17.03876
1036.272	23.04902
1036.634	-30.06905
1036.995	19.04208
1037.357	32.07442
1037.719	36.0831
1038.08	-3.00672
1038.442	-20.04511
1038.803	-21.04827
1039.165	24.0579
1039.526	0
1039.887	35.07932
1040.248	-1.00234
1040.609	-27.06318
1040.97	-42.09714
1041.331	7.0168
1041.692	-19.04278
1042.053	16.03396
1042.413	-11.02403
1042.774	15.034
1043.134	27.05987
1043.495	43.10361
1043.855	23.05249
1044.215	-12.02825
1044.576	4.00911
1044.936	-56.11923
1045.296	37.08722
1045.656	53.12299
1046.016	57.12929
1046.375	8.01834
1046.735	0
1047.095	113.2489
1047.454	-45.0879
1047.814	8.0182
1048.173	32.07212
1048.533	28.06057
1048.892	42.09729
1049.251	-20.04761
1049.61	-41.0974
1049.969	56.12513
1050.328	-25.05013
1050.687	9.0207
1051.046	-7.01616
1051.405	-13.03086
1051.763	16.03484
1052.122	42.1006
1052.48	1.00231
1052.839	13.02898
1053.197	-19.04276
1053.555	35.07252
1053.914	-17.03936
1054.272	-3.00683
1054.63	6.01405
1054.988	9.02042
1055.345	-5.01003
1055.703	-21.04754
1056.061	-30.07415
1056.419	30.07508
1056.776	-6.01363
1057.134	69.15096
1057.491	-31.07336
1057.848	21.04931
1058.206	10.02238
1058.563	-2.00414
1058.92	15.03225
1059.277	-15.03517
1059.634	-49.10779
1059.991	47.10522
1060.348	-17.03628
1060.704	-42.09679
1061.061	24.05139
1061.418	33.077
1061.774	8.01888
1062.131	-1.00256
1062.487	13.02883
1062.843	3.0071
1063.199	-9.02131
1063.555	-63.1376
1063.911	17.04056
1064.267	45.08552
1064.623	39.09136
1064.979	21.04616
1065.335	63.14051
1065.691	39.08774
1066.046	13.02697
1066.402	-13.02827
1066.757	-4.00962
1067.112	-11.02547
1067.468	14.03184
1067.823	8.01822
1068.178	-31.07083
1068.533	4.00904
1068.888	4.0089
1069.243	-28.06574
1069.598	13.02999
1069.952	28.06008
1070.307	-15.03573
1070.662	-20.045
1071.016	30.06385
1071.371	88.18344
1071.725	21.04709
1072.079	-7.01585
1072.434	-17.03958
1072.788	-20.04524
1073.142	-25.05806
1073.496	1.00227
1073.85	8.0174
1074.203	-20.04605
1074.557	-16.04112
1074.911	15.03364
1075.265	-19.04199
1075.618	-31.07123
1075.971	77.17188
1076.325	2.00489
1076.678	47.10192
1077.031	9.01933
1077.385	10.02033
1077.738	-7.01473
1078.091	-46.09956
1078.444	55.11921
1078.796	11.02598
1079.149	2.00469
1079.502	-2.0045
1079.855	7.01538
1080.207	23.05333
1080.56	-57.14195
1080.912	-12.02778
1081.264	13.02964
1081.617	-8.01858
1081.969	61.14759
1082.321	3.00695
1082.673	-1.0022
1083.025	28.06293
1083.377	297.63246
1083.728	1.0022
1084.08	21.05025
1084.432	-56.12808
1084.783	0
1085.135	-2.00479
1085.486	38.08323
1085.838	-67.15751
1086.189	40.09299
1086.54	5.01126
1086.891	10.02414
1087.242	-40.09196
1087.593	29.06599
1087.944	-2.00423
1088.295	-20.04236
1088.646	9.02054
1088.996	-43.0988
1089.347	55.12794
1089.698	21.0475
1090.048	-56.13826
1090.398	14.03031
1090.749	-29.06522
1091.099	23.05537
1091.449	26.06187
1091.799	8.01899
1092.149	58.13617
1092.499	-29.06709
1092.849	-7.01713
1093.199	17.04034
1093.548	16.03627
1093.898	-14.03319
1094.248	-34.0829
1094.597	21.05233
1094.947	-13.03344
1095.296	-23.0538
1095.645	-34.08407
1095.994	-28.06378
1096.343	-25.05951
1096.692	0
1097.041	54.14216
1097.39	-49.11488
1097.739	6.01483
1098.088	-38.09722
1098.437	30.07675
1098.785	-22.05709
1099.134	3.0076
1099.482	-12.03202
1099.83	-32.0804
1100.179	50.12589
1100.527	23.05885
1100.875	-13.03337
1101.223	3.00762
1101.571	-30.08078
1101.919	5.01288
1102.267	-4.01099
1102.615	4.01286
1102.962	4.01283
1103.31	13.04174
1103.658	0
