Data from N3 R9 sample 7_Subt2__5__15-10-05-542.txt Node

Date: Mon Sep 22 15:10:05 PDT 2025
User: uwsun
Spectrometer: HDX01956
Trigger mode: 0
Integration Time (sec): 5.000000E-1
Scans to average: 1
Nonlinearity correction enabled: true
Boxcar width: 0
Storing dark spectrum: false
XAxis mode: Wavelengths
Number of Pixels in Spectrum: 2068
>>>>>Begin Spectral Data<<<<<
194.03	7.02038
194.578	-10.03251
195.127	5.01603
195.676	7.02249
196.225	20.05262
196.773	3.00835
197.321	-8.02248
197.87	3.00778
198.418	43.11253
198.966	15.03992
199.513	-33.0845
200.061	-9.02335
200.609	11.02928
201.156	-23.0514
201.704	-21.05428
202.251	29.07825
202.798	30.0789
203.345	7.01744
203.892	31.07924
204.438	30.07268
204.985	48.11633
205.532	19.05095
206.078	32.08008
206.624	79.19738
207.17	32.07489
207.716	0
208.262	25.05004
208.808	-12.03041
209.354	-38.09358
209.899	51.13
210.445	49.12459
210.99	14.03455
211.535	64.15318
212.08	8.01892
212.625	-4.01015
213.17	1.00255
213.715	35.08035
214.259	48.11251
214.804	27.06682
215.348	38.08827
215.892	7.01699
216.436	-5.01166
216.98	52.11567
217.524	20.04765
218.068	26.06603
218.612	0
219.155	-9.02155
219.698	14.03373
220.242	17.0423
220.785	17.03992
221.328	47.11755
221.871	-27.06812
222.414	71.17623
222.956	20.04891
223.499	36.08124
224.041	-21.04869
224.583	38.08119
225.126	51.1137
225.668	0
226.21	8.0203
226.751	31.0686
227.293	7.01601
227.835	21.05127
228.376	46.10444
228.918	30.07589
229.459	35.08757
230	27.06468
230.541	-1.00228
231.082	66.16313
231.622	28.06458
232.163	19.04659
232.704	20.04991
233.244	32.0802
233.784	29.07048
234.324	53.11787
234.864	-22.04993
235.404	82.19364
235.944	65.15233
236.484	41.10233
237.023	46.10846
237.563	-11.02566
238.102	-7.01646
238.641	-3.00758
239.18	-10.02353
239.719	-10.02515
240.258	32.07207
240.797	30.0723
241.335	-11.0267
241.874	-27.05246
242.412	10.02386
242.95	-8.01937
243.488	-23.05287
244.026	5.01138
244.564	0
245.102	15.03366
245.64	18.04307
246.177	-32.07121
246.715	33.07815
247.252	10.02322
247.789	112.2044
248.326	44.10732
248.863	67.14789
249.4	38.08512
249.936	46.09585
250.473	-1.00233
251.009	-5.01168
251.546	-15.03318
252.082	10.02162
252.618	16.03586
253.154	5.01199
253.69	-52.11725
254.226	43.10215
254.761	66.14711
255.297	47.10296
255.832	3.00722
256.367	14.03319
256.903	36.07948
257.438	19.04441
257.972	49.1097
258.507	-9.02076
259.042	40.08809
259.576	37.0804
260.111	16.03709
260.645	58.12467
261.179	-5.0117
261.713	-10.02227
262.247	61.14049
262.781	11.02292
263.315	8.01981
263.849	-2.00504
264.382	25.05753
264.915	25.0596
265.449	1.00248
265.982	35.08055
266.515	-51.12418
267.048	11.024
267.58	-17.03694
268.113	12.0262
268.646	45.11194
269.178	19.04259
269.71	-25.05398
270.243	-29.06655
270.775	-33.08412
271.307	29.06942
271.838	5.01186
272.37	-37.0914
272.902	-4.00906
273.433	-12.02655
273.965	19.04559
274.496	52.1291
275.027	69.17083
275.558	1.00244
276.089	55.13692
276.62	-9.02291
277.15	5.01233
277.681	33.0715
278.211	53.13011
278.741	42.09408
279.272	-50.11375
279.802	56.13923
280.332	-28.06745
280.861	-1.00241
281.391	23.05236
281.921	-35.08379
282.45	44.11003
282.98	14.03636
283.509	24.05465
284.038	-7.01603
284.567	-4.00935
285.096	30.07235
285.625	2.00459
286.153	33.07831
286.682	31.0716
287.21	11.02684
287.739	16.03815
288.267	-21.05153
288.795	27.07097
289.323	37.0878
289.851	6.01405
290.378	19.0428
290.906	45.10965
291.433	34.0853
291.961	84.19134
292.488	27.06731
293.015	15.03522
293.542	7.0177
294.069	38.09362
294.596	33.08107
295.122	69.16518
295.649	-13.02875
296.175	47.11393
296.702	38.09185
297.228	-12.02895
297.754	59.13409
298.28	-19.04334
298.806	35.08583
299.332	20.04504
299.857	84.19234
300.383	3.00753
300.908	9.02203
301.433	41.10013
301.958	79.18239
302.483	51.12885
303.008	14.03479
303.533	-11.02866
304.058	65.15257
304.582	46.10993
305.107	61.16061
305.631	53.11953
306.155	7.01632
306.679	30.07057
307.203	69.16069
307.727	29.06918
308.251	27.06663
308.775	49.11815
309.298	15.03635
309.822	21.05326
310.345	5.01179
310.868	36.08708
311.391	7.01733
311.914	99.24994
312.437	24.05456
312.96	52.12384
313.482	7.0168
314.005	80.20258
314.527	56.14742
315.049	37.09328
315.571	80.1812
316.093	52.12796
316.615	70.17226
317.137	14.03084
317.659	43.1047
318.18	37.08881
318.702	45.10521
319.223	73.15045
319.744	74.16713
320.265	65.15987
320.786	61.15152
321.307	17.04273
321.828	30.06806
322.348	34.08026
322.869	32.07598
323.389	-237.4344
323.909	30.06988
324.43	16.03825
324.95	51.11732
325.47	48.11964
325.989	41.09811
326.509	33.07439
327.029	12.027
327.548	71.16346
328.067	56.1375
328.587	61.15152
329.106	83.18925
329.625	75.1952
330.144	83.19246
330.662	55.12905
331.181	57.13416
331.7	108.25295
332.218	91.20162
332.736	126.29303
333.255	37.08742
333.773	36.08593
334.291	44.11055
334.808	65.14749
335.326	30.06803
335.844	80.18745
336.361	61.1557
336.879	84.19644
337.396	54.12974
337.913	46.10571
338.43	109.24532
338.947	101.24123
339.464	48.10442
339.981	108.2577
340.497	55.13527
341.014	92.22255
341.53	82.18663
342.046	111.2735
342.562	66.16367
343.078	74.17475
343.594	37.08881
344.11	-9.02148
344.626	105.26451
345.141	126.28573
345.657	99.22473
346.172	71.17016
346.687	11.02523
347.202	84.19088
347.717	122.29055
348.232	47.11734
348.747	71.16156
349.261	113.24932
349.776	97.22866
350.29	50.12454
350.805	86.21155
351.319	62.14505
351.833	117.27108
352.347	25.05836
352.861	40.09288
353.374	185.41994
353.888	112.27266
354.401	95.21924
354.915	161.36339
355.428	105.25843
355.941	103.24374
356.454	132.29069
356.967	170.40143
357.48	99.22847
357.993	134.32731
358.505	128.31672
359.018	123.29736
359.53	167.40419
360.042	103.22744
360.554	98.2384
361.066	103.25248
361.578	145.3167
362.09	70.16459
362.602	150.33019
363.113	120.27709
363.625	173.38792
364.136	107.23192
364.647	76.17961
365.158	99.2281
365.669	115.27267
366.18	125.29157
366.691	118.25942
367.201	132.31231
367.712	134.29942
368.222	127.28899
368.733	112.24292
369.243	170.3739
369.753	166.38148
370.263	148.35138
370.773	125.30595
371.282	125.29237
371.792	147.33396
372.301	130.31126
372.811	175.45342
373.32	184.38783
373.829	182.42993
374.338	165.36511
374.847	150.3396
375.356	160.37679
375.865	209.43849
376.373	194.43546
376.882	191.47251
377.39	182.4326
377.898	250.6022
378.407	247.54655
378.915	261.54879
379.423	201.46273
379.93	204.44584
380.438	285.66864
380.946	232.52395
381.453	280.65191
381.96	255.58704
382.468	305.69259
382.975	327.76686
383.482	356.77109
383.989	311.7583
384.495	315.68856
385.002	444.8708
385.509	382.84786
386.015	355.65925
386.521	426.89273
387.028	443.92363
387.534	449.90162
388.04	479.04235
388.546	572.15136
389.051	533.04144
389.557	544.13411
390.063	609.2268
390.568	630.32357
391.073	668.32209
391.578	719.52703
392.084	709.36311
392.589	729.34851
393.093	862.73924
393.598	857.61498
394.103	933.81946
394.607	1033.99859
395.112	1037.04014
395.616	1195.20049
396.12	1216.0733
396.624	1432.48142
397.128	1452.50572
397.632	1699.66969
398.136	1787.67594
398.639	1970.88579
399.143	2214.40597
399.646	2453.0929
400.15	2735.14712
400.653	3130.1386
401.156	3490.9014
401.659	4022.01297
402.162	4945.36282
402.664	6510.69239
403.167	9231.90982
403.67	17663.05218
404.172	54927.41205
404.674	61235.23759
405.176	60252.21675
405.678	57642.47783
406.18	55467.82182
406.682	56151.3881
407.184	60564.14267
407.686	63049.78229
408.187	28846.14565
408.688	16909.75971
409.19	11653.70731
409.691	9242.91895
410.192	8002.1644
410.693	6740.13668
411.194	6198.63915
411.694	5724.05924
412.195	5539.59951
412.696	4912.3874
413.196	4546.93297
413.696	4381.81093
414.196	4335.23715
414.696	4311.02071
415.196	4165.73442
415.696	3695.6783
416.196	3116.13779
416.695	2401.19468
417.195	1996.98619
417.694	1910.32296
418.194	1748.34946
418.693	1682.60133
419.192	1628.66004
419.691	1604.6306
420.19	1522.57484
420.688	1469.58926
421.187	1469.07429
421.685	1323.28498
422.184	1209.14013
422.682	1133.90394
423.18	875.67637
423.678	763.47625
424.176	766.49585
424.674	703.33274
425.172	695.42342
425.669	640.38651
426.167	619.26356
426.664	535.07947
427.161	484.0097
427.659	441.97939
428.156	415.79066
428.652	461.07253
429.149	337.75779
429.646	363.75921
430.143	337.75748
430.639	315.68856
431.135	319.74869
431.632	272.58715
432.128	269.60713
432.624	256.62271
433.12	271.58387
433.616	199.4105
434.111	207.46893
434.607	151.34597
435.103	221.44317
435.598	180.35335
436.093	160.35663
436.588	174.37207
437.083	181.38896
437.578	158.34721
438.073	124.30063
438.568	168.39779
439.062	139.28325
439.557	100.22898
440.051	85.18754
440.546	100.22373
441.04	146.34115
441.534	100.24472
442.028	128.29474
442.522	112.26263
443.015	84.17791
443.509	82.19461
444.002	36.08537
444.496	18.03816
444.989	116.27275
445.482	89.21606
445.975	76.16912
446.468	63.1337
446.961	-2.00413
447.454	96.20955
447.947	86.20064
448.439	39.09247
448.931	65.14377
449.424	85.20627
449.916	-6.01404
450.408	44.09783
450.9	63.14949
451.392	-20.04911
451.884	31.06908
452.375	37.09006
452.867	2.00437
453.358	-1.00221
453.849	53.10835
454.341	31.06754
454.832	20.04175
455.323	9.02139
455.814	0
456.304	62.13785
456.795	3.00668
457.285	91.19455
457.776	42.09245
458.266	-35.08106
458.756	32.07469
459.247	-10.02308
459.737	-4.00937
460.226	-1.00218
460.716	2.00465
461.206	30.07024
461.695	12.02873
462.185	27.06186
462.674	6.01335
463.163	-2.00434
463.653	25.05092
464.142	16.03753
464.63	18.04275
465.119	6.01355
465.608	-12.02683
466.096	65.13782
466.585	-16.03577
467.073	63.14678
467.561	-28.06579
468.05	-16.03583
468.538	12.02856
469.026	-9.02101
469.513	-12.02498
470.001	-19.04231
470.489	51.1184
470.976	41.09235
471.463	27.0651
471.951	-21.05083
472.438	-20.04615
472.925	-15.0344
473.412	1.00239
473.899	1.00223
474.385	8.01923
474.872	-38.08705
475.359	64.15347
475.845	-6.01213
476.331	-6.01266
476.817	-12.02858
477.303	17.0385
477.789	-8.01872
478.275	-32.07732
478.761	7.01632
479.247	48.10468
479.732	-48.11773
480.218	41.10458
480.703	-11.02677
481.188	-5.01051
481.673	-29.06473
482.158	13.02764
482.643	7.01732
483.128	3.00679
483.612	-22.05038
484.097	-48.11401
484.581	-33.07418
485.066	39.09222
485.55	-5.01084
486.034	28.05967
486.518	14.03186
487.002	23.05594
487.486	22.05306
487.969	-8.01945
488.453	-27.06672
488.936	24.05325
489.42	-24.05137
489.903	-29.07148
490.386	-16.03571
490.869	-17.0362
491.352	-16.03813
491.835	-33.06636
492.318	-35.07787
492.8	-32.06457
493.283	-58.14583
493.765	-21.05079
494.247	1.00227
494.73	19.04127
495.212	-42.09941
495.694	-36.08277
496.175	-2.00473
496.657	-58.13334
497.139	-44.07498
497.62	9.02104
498.102	-25.06144
498.583	-75.18494
499.064	-40.08827
499.545	-1.00223
500.026	-22.04806
500.507	27.06139
500.988	-76.18454
501.469	-49.12043
501.949	-42.10125
502.43	-46.10829
502.91	-52.10608
503.39	-7.01718
503.87	-18.04153
504.35	-10.02311
504.83	-57.12323
505.31	-50.11999
505.79	-49.11497
506.269	-21.0481
506.749	-49.11096
507.228	-60.13949
507.707	-116.25041
508.187	-72.16791
508.666	-68.16493
509.145	-47.10825
509.623	-64.14908
510.102	-61.1453
510.581	-78.18433
511.059	-17.04212
511.538	-77.19551
512.016	-66.15616
512.494	-35.0836
512.972	-68.15964
513.45	-73.16941
513.928	-41.09875
514.406	-36.08705
514.884	-105.26612
515.361	-40.09416
515.839	-81.18268
516.316	-73.17335
516.793	-4.01004
517.27	-57.13489
517.747	-39.09979
518.224	-19.04306
518.701	-35.07667
519.178	-34.08379
519.654	-23.05392
520.131	-79.19487
520.607	-46.11186
521.083	-51.11511
521.56	-92.21725
522.036	-106.22892
522.512	-68.16294
522.987	-94.2206
523.463	-57.13431
523.939	-29.06948
524.414	-69.15568
524.89	-3.00701
525.365	-89.19694
525.84	-65.15537
526.315	-35.08379
526.79	-44.09755
527.265	-41.09201
527.74	-57.13739
528.215	-6.01386
528.689	-78.17091
529.164	-60.12847
529.638	-89.22541
530.112	-74.17325
530.587	-56.11788
531.061	-45.10756
531.534	-74.17563
532.008	-116.27583
532.482	-111.24952
532.956	-76.19177
533.429	-41.09774
533.903	-111.23967
534.376	-100.21707
534.849	-118.27063
535.322	-102.23703
535.795	-75.18139
536.268	-108.25622
536.741	-68.16027
537.213	-96.21894
537.686	-9.02168
538.158	-89.19694
538.631	-84.19967
539.103	-106.23461
539.575	-78.16079
540.047	-91.19531
540.519	-54.12628
540.991	-23.05508
541.463	-27.06352
541.934	-52.11706
542.406	-70.16389
542.877	-88.1929
543.348	-77.1837
543.82	-87.20986
544.291	-93.21317
544.762	-108.25414
545.233	-69.17121
545.703	-100.22207
546.174	-58.13254
546.645	-63.14903
547.115	-84.20036
547.585	-44.09986
548.056	-99.23681
548.526	-59.13746
548.996	-113.26772
549.466	-53.1276
549.935	-113.26741
550.405	-82.17861
550.875	-54.12702
551.344	-58.13728
551.814	-60.137
552.283	12.02543
552.752	-76.1748
553.221	-72.15756
553.69	-91.20036
554.159	-90.22049
554.628	-123.27989
555.096	-46.11491
555.565	-99.22044
556.033	-49.11317
556.502	-83.19922
556.97	-90.1987
557.438	-64.14726
557.906	-76.17696
558.374	-69.15644
558.842	-52.12165
559.31	-108.23714
559.777	-82.19619
560.245	-121.27478
560.712	-45.10269
561.18	-80.17529
561.647	-98.21636
562.114	-73.16396
562.581	-113.27309
563.048	-85.19013
563.514	-111.27078
563.981	-95.21083
564.448	-13.02833
564.914	-113.25911
565.381	-18.04011
565.847	-55.12774
566.313	-46.10537
566.779	-44.09751
567.245	-60.14009
567.711	-56.13219
568.176	-12.02655
568.642	-50.12454
569.108	4.00968
569.573	-10.02285
570.038	-6.01216
570.504	1.0022
570.969	7.0171
571.434	-8.01734
571.899	37.08593
572.363	-30.06643
572.828	37.08194
573.293	24.05365
573.757	10.02223
574.222	5.01089
574.686	41.09057
575.15	-41.0942
575.614	26.05747
576.078	67.15234
576.542	39.08489
577.006	33.07122
577.469	60.143
577.933	14.03026
578.396	35.08026
578.86	51.11634
579.323	58.13372
579.786	38.07929
580.249	5.01111
580.712	44.1037
581.175	48.11502
581.637	60.13141
582.1	-38.08091
582.563	41.08355
583.025	39.09201
583.487	37.07241
583.95	-9.01899
584.412	31.06228
584.874	-22.05181
585.336	25.05783
585.797	-33.06936
586.259	-63.14394
586.721	-42.09799
587.182	-14.03121
587.643	-29.06417
588.105	38.08886
588.566	-12.02441
589.027	7.0165
589.488	-13.02923
589.949	15.03551
590.41	7.01341
590.87	-63.14057
591.331	-6.01255
591.791	-47.10639
592.252	-28.06401
592.712	-1.00235
593.172	-18.03942
593.632	8.01697
594.092	-45.0985
594.552	-62.13218
595.011	-44.09925
595.471	-27.0585
595.931	-67.14634
596.39	-49.11488
596.849	-11.02513
597.308	-58.12279
597.768	-25.06303
598.227	-24.05652
598.685	-41.09182
599.144	-18.04145
599.603	0
600.062	-5.01036
600.52	-57.12497
600.978	-7.01628
601.437	-16.03571
601.895	-38.07957
602.353	-26.05666
602.811	-26.05704
603.269	-19.04484
603.727	-59.13989
604.184	-29.06441
604.642	-14.03365
605.099	-82.1861
605.557	-30.07208
606.014	-9.01888
606.471	-56.13776
606.928	-55.11697
607.385	33.08002
607.842	-5.01133
608.299	-18.04108
608.755	-20.04701
609.212	9.01952
609.668	19.04175
610.125	25.05822
610.581	-51.11737
611.037	1.00222
611.493	1.00228
611.949	-7.01658
612.405	-6.01181
612.861	56.12555
613.316	54.12603
613.772	-3.00662
614.227	-21.049
614.683	-24.04934
615.138	-7.01597
615.593	35.07958
616.048	26.0575
616.503	56.13229
616.958	21.05184
617.412	44.10063
617.867	5.01091
618.321	-26.05157
618.776	20.04327
619.23	5.01137
619.684	-3.00646
620.138	23.05113
620.592	60.14075
621.046	9.02039
621.5	0
621.954	22.04733
622.407	1.00214
622.861	31.07333
623.314	15.03262
623.768	8.01813
624.221	-24.04607
624.674	72.16241
625.127	-16.03612
625.58	41.08993
626.033	4.00848
626.485	15.03524
626.938	-7.01625
627.39	-59.13284
627.843	-11.02467
628.295	-9.01997
628.747	-26.05951
629.199	-10.02214
629.651	27.06057
630.103	5.0112
630.555	-23.04759
631.006	16.03609
631.458	-3.00692
631.909	-14.03058
632.361	3.00679
632.812	-1.00227
633.263	41.08511
633.714	10.02073
634.165	-66.15767
634.616	-10.02305
635.067	41.08739
635.518	-19.04409
635.968	24.04613
636.419	8.01684
636.869	52.11969
637.319	-28.06254
637.769	-46.0999
638.219	-48.11044
638.669	-92.21438
639.119	34.08029
639.569	-32.0758
640.019	-6.01336
640.468	-21.0456
640.918	-37.08668
641.367	-71.15547
641.816	-23.05011
642.265	28.06332
642.714	-8.01791
643.163	-35.07793
643.612	-65.15382
644.061	-65.13402
644.51	-43.09606
644.958	-6.013
645.406	-26.06068
645.855	-54.12974
646.303	-27.06109
646.751	-46.10296
647.199	-24.05283
647.647	3.00677
648.095	-18.0402
648.543	-1.00195
648.99	-46.10728
649.438	8.0182
649.885	-22.05312
650.333	-9.01681
650.78	14.03303
651.227	8.01921
651.674	-3.00664
652.121	-69.16404
652.568	-17.04053
653.015	-23.05688
653.461	2.00467
653.908	3.00675
654.354	17.03954
654.801	5.01151
655.247	-1.00211
655.693	22.05621
656.139	-48.11212
656.585	19.04453
657.031	48.11146
657.477	4.00836
657.922	25.05668
658.368	-73.17615
658.813	20.04475
659.259	-21.0497
659.704	22.05054
660.149	-20.0455
660.594	8.01843
661.039	-12.02665
661.484	-5.0115
661.929	1.00227
662.373	14.03495
662.818	-9.02184
663.262	19.04468
663.707	35.0865
664.151	-17.04077
664.595	-25.05923
665.039	0
665.483	63.15723
665.927	-4.00906
666.371	29.06653
666.814	0
667.258	-16.03727
667.701	-42.08658
668.145	21.0502
668.588	24.05777
669.031	-24.05531
669.474	29.06844
669.917	54.11507
670.36	13.03129
670.803	21.04879
671.245	25.05101
671.688	47.11088
672.13	-60.1323
672.573	22.0544
673.015	36.08448
673.457	11.02341
673.899	24.05595
674.341	58.13627
674.783	34.0797
675.225	-54.13018
675.666	52.12379
676.108	56.11669
676.549	49.11155
676.991	0
677.432	38.07336
677.873	72.16195
678.314	8.01856
678.755	36.08501
679.196	-13.02897
679.637	40.09442
680.078	16.036
680.518	29.06519
680.959	27.0629
681.399	73.17415
681.839	73.17182
682.28	4.00963
682.72	64.14064
683.16	1.00243
683.6	89.19151
684.039	65.12823
684.479	71.16958
684.919	90.20177
685.358	90.21845
685.798	76.19286
686.237	66.15143
686.676	93.20579
687.115	60.13501
687.554	62.13923
687.993	87.1814
688.432	113.24806
688.871	117.25327
689.309	123.27853
689.748	121.23792
690.186	104.23229
690.625	87.19541
691.063	108.2467
691.501	71.16691
691.939	85.20294
692.377	123.28351
692.815	77.17706
693.253	168.38174
693.69	203.41969
694.128	162.37675
694.565	143.32237
695.003	128.30636
695.44	150.33143
695.877	150.33199
696.314	149.2963
696.751	152.31869
697.188	146.31314
697.625	155.32491
698.061	185.42182
698.498	132.29508
698.934	250.56091
699.371	179.39592
699.807	223.48685
700.243	159.35697
700.679	172.35743
701.115	182.38918
701.551	236.51054
701.987	235.4817
702.422	217.48478
702.858	268.59437
703.294	206.42828
703.729	268.60204
704.164	229.50926
704.599	274.55644
705.035	255.52506
705.47	247.56112
705.904	252.54818
706.339	274.56888
706.774	274.58386
707.209	226.47928
707.643	259.57262
708.078	292.6484
708.512	246.57547
708.946	284.61542
709.38	288.62222
709.814	237.49042
710.248	225.5014
710.682	339.73976
711.116	283.63247
711.549	314.74916
711.983	287.60478
712.416	287.61063
712.85	327.74374
713.283	318.67997
713.716	337.77051
714.149	342.72811
714.582	315.63079
715.015	268.60846
715.448	239.55043
715.881	319.61248
716.313	282.60769
716.746	293.62719
717.178	308.68051
717.61	298.6908
718.043	287.65198
718.475	313.68881
718.907	322.73696
719.339	303.63485
719.77	310.67663
720.202	210.49203
720.634	285.6372
721.065	280.60079
721.497	267.594
721.928	280.6375
722.359	255.5793
722.79	292.64409
723.221	221.51831
723.652	233.55647
724.083	239.49677
724.514	180.38056
724.945	272.59344
725.375	255.54774
725.806	207.47712
726.236	190.45005
726.666	217.47756
727.096	179.40715
727.526	244.58062
727.956	195.41146
728.386	168.38545
728.816	198.47099
729.246	170.38723
729.675	141.32617
730.105	213.48781
730.534	135.29274
730.964	239.55898
731.393	220.50495
731.822	196.4682
732.251	208.49876
732.68	181.39248
733.109	144.33463
733.537	186.42213
733.966	161.37361
734.395	199.4247
734.823	182.37686
735.251	131.29797
735.68	161.37139
736.108	160.38309
736.536	172.37496
736.964	159.35169
737.392	139.32906
737.82	131.29846
738.247	101.22666
738.675	100.2205
739.102	151.35885
739.53	135.32785
739.957	125.30448
740.384	107.24388
740.811	144.34268
741.238	73.16773
741.665	156.3408
742.092	72.15902
742.519	102.24413
742.945	67.15283
743.372	90.21253
743.798	119.28921
744.225	109.24502
744.651	109.26302
745.077	65.15287
745.503	126.28979
745.929	73.16645
746.355	73.17001
746.781	138.326
747.207	132.29763
747.632	53.12367
748.058	81.19079
748.483	88.19094
748.908	34.08113
749.334	62.14505
749.759	113.25484
750.184	128.29109
750.609	91.21126
751.033	66.14614
751.458	66.13807
751.883	54.12712
752.307	68.1537
752.732	29.06987
753.156	137.32708
753.58	29.06471
754.005	11.02671
754.429	17.0381
754.853	119.28389
755.277	120.26825
755.7	57.134
756.124	75.17893
756.548	72.16347
756.971	70.1599
757.394	103.25351
757.818	58.14436
758.241	83.19998
758.664	57.13744
759.087	34.07239
759.51	87.20588
759.933	96.2215
760.356	60.14661
760.778	98.23016
761.201	71.16372
761.623	44.1012
762.046	85.18942
762.468	67.15129
762.89	74.1721
763.312	53.12231
763.734	64.14749
764.156	25.05935
764.578	31.06665
765	45.10397
765.421	72.17849
765.843	125.31298
766.264	86.19487
766.686	63.15162
767.107	50.1167
767.528	26.06377
767.949	95.23218
768.37	22.05215
768.791	28.06435
769.212	56.1372
769.632	29.06564
770.053	47.11984
770.473	53.1227
770.894	43.10215
771.314	73.16322
771.734	48.10757
772.154	55.13497
772.575	-10.0219
772.994	63.1362
773.414	42.09513
773.834	11.02632
774.254	16.03734
774.673	70.16196
775.093	28.06707
775.512	10.0238
775.931	49.11913
776.351	52.12436
776.77	6.01431
777.189	-2.00457
777.607	57.1404
778.026	8.01905
778.445	16.03945
778.864	86.21194
779.282	28.06466
779.701	24.05773
780.119	30.07393
780.537	55.13267
780.955	29.07061
781.373	34.08079
781.791	54.11582
782.209	38.08242
782.627	6.0153
783.045	-3.00657
783.462	55.13577
783.88	20.05018
784.297	-30.07268
784.715	23.05753
785.132	31.07191
785.549	52.12546
785.966	-23.05584
786.383	28.06635
786.8	0
787.217	51.11464
787.633	25.06055
788.05	22.04873
788.466	2.00443
788.883	61.15108
789.299	30.07013
789.715	-14.03261
790.131	-7.0168
790.547	-16.03838
790.963	18.0429
791.379	24.05858
791.795	26.05651
792.21	-2.00448
792.626	56.12761
793.041	-11.02612
793.457	15.03566
793.872	14.03153
794.287	8.01855
794.702	0
795.117	-18.04338
795.532	32.07776
795.947	-74.16624
796.362	20.04506
796.776	-27.05845
797.191	-40.0942
797.605	18.04128
798.02	32.07533
798.434	41.08526
798.848	-24.05687
799.262	11.02656
799.676	68.15677
800.09	-42.09856
800.504	-3.00692
800.918	27.05982
801.331	22.05506
801.745	-36.07815
802.158	-2.0048
802.572	35.08045
802.985	16.03648
803.398	-21.04754
803.811	18.044
804.224	46.10871
804.637	2.00457
805.05	-67.14826
805.462	36.08333
805.875	46.11653
806.288	-5.0116
806.7	-22.05348
807.112	9.01993
807.525	-49.1151
807.937	-11.02622
808.349	21.05037
808.761	-6.0141
809.173	-23.05356
809.584	-35.08206
809.996	27.06394
810.408	-31.07832
810.819	26.05877
811.231	11.02807
811.642	6.0141
812.053	-7.01631
812.464	-70.16183
812.875	-18.04428
813.286	18.04482
813.697	33.0718
814.108	9.02082
814.519	-18.03776
814.929	30.07208
815.34	43.09963
815.75	18.04412
816.16	-3.00707
816.571	12.03017
816.981	-29.0654
817.391	25.05746
817.801	8.01924
818.211	61.13639
818.62	6.01393
819.03	-52.12122
819.44	3.00748
819.849	-14.03385
820.259	-12.02934
820.668	24.05676
821.077	46.11123
821.486	-19.04325
821.895	-1.00234
822.304	-4.01026
822.713	-15.03377
823.122	13.03092
823.531	15.03379
823.939	32.07413
824.348	18.04158
824.756	1.00238
825.164	-13.03095
825.573	-7.01687
825.981	-14.03316
826.389	-28.0662
826.797	2.00479
827.205	6.01325
827.612	-27.0635
828.02	14.03171
828.428	34.08311
828.835	-30.07686
829.243	54.12271
829.65	12.02898
830.057	40.09207
830.464	18.04193
830.871	38.0861
831.278	47.10868
831.685	16.03315
832.092	-14.03237
832.499	16.03316
832.905	8.01941
833.312	56.12037
833.718	1.00237
834.124	7.01489
834.531	7.0169
834.937	-44.10868
835.343	-26.0602
835.749	39.08493
836.155	51.12807
836.561	-17.03984
836.966	62.14402
837.372	45.109
837.777	-23.05514
838.183	13.02721
838.588	42.09964
838.993	-38.08768
839.399	11.02561
839.804	10.02387
840.209	-10.02461
840.613	6.01259
841.018	-51.12358
841.423	-4.00987
841.828	33.0808
842.232	-2.00463
842.637	27.06047
843.041	34.08453
843.445	27.06439
843.849	74.17698
844.253	13.02914
844.657	-27.06569
845.061	89.19093
845.465	56.1306
845.869	-17.03702
846.272	20.04686
846.676	24.05451
847.079	-20.04927
847.483	21.04956
847.886	-19.04353
848.289	-10.02611
848.692	9.02168
849.095	9.02041
849.498	38.09137
849.901	40.08635
850.304	-5.01126
850.707	44.1064
851.109	58.13914
851.512	20.04688
851.914	13.03206
852.316	-11.0268
852.718	18.0454
853.121	-48.11198
853.523	52.1137
853.925	24.06075
854.326	-13.03128
854.728	43.10697
855.13	24.06043
855.531	-22.05032
855.933	17.03832
856.334	13.03142
856.736	35.07483
857.137	9.01999
857.538	27.06552
857.939	18.0428
858.34	-16.0369
858.741	-9.02262
859.142	-19.04329
859.542	-13.03324
859.943	8.01887
860.343	24.05733
860.744	-42.0966
861.144	38.08792
861.544	62.1447
861.945	36.08862
862.345	13.0302
862.745	19.04529
863.145	-7.01571
863.544	-4.00972
863.944	-7.01563
864.344	-21.0495
864.743	-40.09354
865.143	-28.06921
865.542	53.11708
865.941	61.1453
866.34	-4.00903
866.74	53.13752
867.139	-2.0046
867.537	28.0686
867.936	-34.07773
868.335	2.00491
868.734	63.1542
869.132	22.04871
869.531	-9.02057
869.929	9.01962
870.327	10.0229
870.726	42.09914
871.124	7.01547
871.522	8.01958
871.92	21.04916
872.318	33.07752
872.715	31.07257
873.113	-1.00233
873.511	18.043
873.908	24.0588
874.306	-40.0965
874.703	-15.03558
875.1	-25.06076
875.497	-57.12939
875.894	53.12625
876.291	0
876.688	-19.04689
877.085	-20.04532
877.482	-11.02639
877.878	-43.09947
878.275	3.00732
878.671	2.00411
879.068	12.02737
879.464	-42.09637
879.86	4.00905
880.256	13.02981
880.652	55.13487
881.048	6.01417
881.444	27.06074
881.84	75.18173
882.236	12.02897
882.631	-4.00945
883.027	33.07452
883.422	-19.04649
883.817	19.04609
884.213	5.01227
884.608	-14.03321
885.003	47.10812
885.398	32.0772
885.793	33.07867
886.188	48.11546
886.582	-61.14848
886.977	-2.00443
887.371	-46.11119
887.766	31.0756
888.16	18.04234
888.554	-55.12743
888.949	-57.13364
889.343	-17.03942
889.737	-13.03421
890.131	59.14302
890.525	-7.01697
890.918	22.05326
891.312	45.10252
891.706	-7.01763
892.099	-12.02894
892.492	-6.01209
892.886	-27.0631
893.279	14.03438
893.672	3.00736
894.065	-28.0665
894.458	-46.1101
894.851	21.04812
895.244	-1.00247
895.637	-40.09052
896.029	17.03953
896.422	-4.00931
896.814	-15.03574
897.206	-36.0826
897.599	17.03911
897.991	23.0528
898.383	22.04888
898.775	12.02549
899.167	-25.0562
899.559	14.03362
899.951	47.10379
900.342	15.03595
900.734	-42.10183
901.125	-40.09981
901.517	-13.03041
901.908	20.04478
902.299	19.04489
902.69	-33.07369
903.082	32.07242
903.473	-28.06424
903.863	-28.06827
904.254	41.08948
904.645	-22.05157
905.036	-48.113
905.426	23.04885
905.817	-39.09201
906.207	3.00695
906.597	-12.02669
906.987	-12.02945
907.378	31.07517
907.768	-15.03806
908.158	-33.07619
908.547	-9.0225
908.937	13.03174
909.327	-10.02295
909.717	-4.00958
910.106	36.08134
910.495	-28.06609
910.885	30.07219
911.274	-1.0024
911.663	2.00481
912.052	-15.03524
912.441	24.05823
912.83	13.02797
913.219	-1.00248
913.608	54.12564
913.997	42.10087
914.385	-34.07575
914.774	11.02553
915.162	-9.02035
915.55	24.05425
915.939	-30.07232
916.327	23.05458
916.715	-20.04904
917.103	8.01847
917.491	15.03493
917.878	48.11287
918.266	-39.09705
918.654	-23.056
919.041	-5.01272
919.429	-15.0338
919.816	-17.04057
920.203	11.02526
920.591	7.01638
920.978	-1.00229
921.365	-14.03526
921.752	-10.02275
922.139	49.09853
922.525	-21.04842
922.912	-20.04635
923.299	15.03563
923.685	4.01009
924.072	54.11657
924.458	-18.04279
924.844	-18.04307
925.231	-14.03105
925.617	-16.03888
926.003	-32.0786
926.389	-38.09279
926.774	-2.00486
927.16	27.06295
927.546	46.11458
927.931	-33.07773
928.317	-51.11007
928.702	-68.15176
929.088	-60.13413
929.473	-7.01694
929.858	34.08016
930.243	-3.00687
930.628	-57.13154
931.013	-14.03316
931.398	35.07522
931.783	-15.03756
932.167	13.03001
932.552	2.00481
932.937	-27.06352
933.321	-17.04063
933.705	1.00241
934.09	-11.02594
934.474	-32.07156
934.858	22.05488
935.242	52.11466
935.626	-7.01729
936.009	-14.03577
936.393	35.08516
936.777	13.03191
937.16	-17.04255
937.544	29.06409
937.927	-16.03939
938.311	-12.02744
938.694	34.08558
939.077	-7.01585
939.46	5.0115
939.843	9.01736
940.226	8.01953
940.609	64.13816
940.991	-17.04144
941.374	-29.06732
941.757	18.04186
942.139	-19.04014
942.522	-27.0595
942.904	22.05054
943.286	-56.13511
943.668	-9.02227
944.05	20.04664
944.432	4.0094
944.814	1.00232
945.196	26.06149
945.578	-4.00917
945.959	51.11318
946.341	-22.05062
946.722	-16.03524
947.104	41.0925
947.485	-26.05668
947.866	75.18214
948.247	-18.04331
948.628	6.01371
949.009	-19.04687
949.39	-24.0565
949.771	-9.01957
950.152	-30.07029
950.532	-32.07674
950.913	12.0274
951.293	5.01312
951.674	-4.0092
952.054	0
952.434	-24.05663
952.814	-37.08365
953.194	14.03487
953.574	-9.02077
953.954	-73.1647
954.334	-49.11658
954.714	23.05373
955.093	-54.12395
955.473	27.06505
955.853	0
956.232	12.03169
956.611	0
956.99	26.06304
957.37	37.09019
957.749	-13.02932
958.128	-1.00242
958.506	-1.00249
958.885	44.10551
959.264	19.04491
959.643	-22.04643
960.021	-27.06385
960.4	23.04879
960.778	-14.03203
961.156	-21.05018
961.535	9.01974
961.913	13.02839
962.291	2.00496
962.669	-38.09286
963.047	50.12245
963.424	-14.03432
963.802	-25.05854
964.18	27.06449
964.557	67.14342
964.935	2.00446
965.312	50.1254
965.69	1.00238
966.067	-36.0826
966.444	13.03037
966.821	-5.01237
967.198	4.00906
967.575	46.10576
967.952	-3.00661
968.329	14.03212
968.705	-5.00983
969.082	5.01225
969.458	16.03717
969.835	60.13965
970.211	3.00741
970.587	-25.05875
970.963	77.18728
971.339	-22.05547
971.715	39.09219
972.091	18.04237
972.467	-31.07259
972.843	1.00239
973.219	-14.03113
973.594	-67.16842
973.97	17.03767
974.345	15.03406
974.721	31.07097
975.096	17.03917
975.471	-47.10587
975.846	8.01796
976.221	-13.03161
976.596	12.02715
976.971	0
977.346	34.07403
977.72	-14.03426
978.095	20.04924
978.469	-24.05427
978.844	15.03557
979.218	-50.11541
979.593	12.02673
979.967	-4.00918
980.341	5.01083
980.715	77.1832
981.089	-6.01432
981.463	-49.10612
981.837	-28.06532
982.21	2.00426
982.584	-2.0046
982.957	3.00722
983.331	29.06331
983.704	49.11506
984.078	21.0495
984.451	-15.03521
984.824	-14.03262
985.197	16.03655
985.57	-14.0332
985.943	-34.07823
986.316	-32.07383
986.688	-25.0573
987.061	14.03079
987.434	-20.05016
987.806	-1.00227
988.179	23.05123
988.551	12.02872
988.923	-49.11551
989.295	14.033
989.667	-21.04844
990.039	34.08041
990.411	52.11254
990.783	-29.0627
991.155	39.08932
991.527	-17.03875
991.898	6.01425
992.27	-2.00472
992.641	28.06627
993.012	-15.03294
993.384	16.0362
993.755	20.04853
994.126	24.05469
994.497	-10.02336
994.868	27.05817
995.239	-10.02296
995.61	11.02653
995.98	-47.10834
996.351	34.08088
996.722	77.16889
997.092	-47.106
997.462	67.14974
997.833	-18.03999
998.203	6.01365
998.573	69.16404
998.943	0
999.313	35.07926
999.683	-10.0229
1000.053	-17.03666
1000.423	63.14336
1000.792	2.00491
1001.162	-42.09933
1001.531	56.13178
1001.901	15.03558
1002.27	7.01449
1002.639	12.02951
1003.009	-16.03639
1003.378	38.09324
1003.747	51.11252
1004.116	38.08673
1004.485	12.02699
1004.853	-21.05058
1005.222	52.12546
1005.591	59.1311
1005.959	1.00212
1006.328	-9.01917
1006.696	-8.01835
1007.064	11.0264
1007.433	16.03761
1007.801	46.10504
1008.169	23.05472
1008.537	22.04521
1008.905	9.02014
1009.273	9.02094
1009.64	91.20691
1010.008	3.00675
1010.375	8.01803
1010.743	55.11692
1011.11	-46.10304
1011.478	0
1011.845	-20.04454
1012.212	-12.0258
1012.579	-33.07707
1012.946	34.0755
1013.313	-10.02207
1013.68	39.08103
1014.047	33.07561
1014.414	19.04269
1014.78	29.06847
1015.147	-6.01352
1015.513	17.03859
1015.88	-6.0144
1016.246	24.05586
1016.612	11.02335
1016.978	45.10414
1017.344	37.08695
1017.71	15.03362
1018.076	26.05692
1018.442	-18.04389
1018.808	40.09457
1019.174	27.06446
1019.539	-20.04204
1019.905	-28.06262
1020.27	-20.04745
1020.636	-2.00446
1021.001	-20.04489
1021.366	14.03199
1021.731	10.02443
1022.096	-29.07046
1022.461	2.00447
1022.826	53.11963
1023.191	48.11956
1023.556	11.0242
1023.92	0
1024.285	40.09266
1024.649	4.00917
1025.014	3.007
1025.378	-25.06021
1025.742	-12.02838
1026.107	24.0505
1026.471	73.15755
1026.835	-18.04242
1027.199	2.00464
1027.562	-22.04812
1027.926	32.07354
1028.29	-3.00726
1028.654	1.00216
1029.017	4.00931
1029.381	-28.06437
1029.744	18.04397
1030.107	0
1030.471	-13.02908
1030.834	44.09274
1031.197	-6.01343
1031.56	30.06695
1031.923	41.10251
1032.286	-48.1046
1032.648	1.00227
1033.011	-4.00868
1033.374	68.14956
1033.736	31.07888
1034.099	-6.01392
1034.461	28.06814
1034.823	14.03321
1035.185	26.06194
1035.548	4.00917
1035.91	36.08177
1036.272	29.06173
1036.634	5.01143
1036.995	-6.01336
1037.357	6.01403
1037.719	47.10825
1038.08	19.04236
1038.442	16.03583
1038.803	14.03195
1039.165	23.0555
1039.526	-4.00912
1039.887	30.06806
1040.248	-19.04455
1040.609	40.09237
1040.97	-31.07154
1041.331	6.0144
1041.692	-13.02923
1042.053	-12.02563
1042.413	-12.02622
1042.774	-50.11481
1043.134	46.1016
1043.495	67.1607
1043.855	9.0206
1044.215	-6.01411
1044.576	-3.00684
1044.936	-59.1257
1045.296	20.0473
1045.656	56.12988
1046.016	36.082
1046.375	-24.05538
1046.735	25.05375
1047.095	58.12923
1047.454	2.00386
1047.814	15.03408
1048.173	22.04969
1048.533	35.0756
1048.892	29.06735
1049.251	9.02131
1049.61	40.09354
1049.969	19.04278
1050.328	-19.03805
1050.687	-31.07188
1051.046	-20.04629
1051.405	18.04247
1051.763	14.03049
1052.122	35.08395
1052.48	-9.02079
1052.839	-14.03139
1053.197	25.05576
1053.555	-11.02303
1053.914	-16.03703
1054.272	5.01137
1054.63	15.03507
1054.988	4.00909
1055.345	1.002
1055.703	-34.07717
1056.061	-29.07167
1056.419	19.04764
1056.776	-17.03872
1057.134	15.03319
1057.491	-57.13557
1057.848	25.05866
1058.206	17.03799
1058.563	-3.00622
1058.92	7.01508
1059.277	22.05121
1059.634	-12.02619
1059.991	25.05622
1060.348	-31.06636
1060.704	-38.0875
1061.061	21.04499
1061.418	21.04912
1061.774	-24.05698
1062.131	-16.04103
1062.487	-24.05363
1062.843	-2.00474
1063.199	-24.057
1063.555	-2.00431
1063.911	-14.0336
1064.267	6.01151
1064.623	49.11457
1064.979	-14.031
1065.335	13.02929
1065.691	-27.06156
1066.046	12.0249
1066.402	5.01083
1066.757	-12.02891
1067.112	-28.06504
1067.468	23.05221
1067.823	-14.03202
1068.178	-23.05246
1068.533	-49.11191
1068.888	-18.04024
1069.243	-28.06574
1069.598	7.01617
1069.952	-35.07612
1070.307	12.02844
1070.662	-16.03597
1071.016	13.02777
1071.371	-33.07064
1071.725	24.05378
1072.079	-3.00679
1072.434	-16.03724
1072.788	-25.05661
1073.142	-10.02316
1073.496	9.02037
1073.85	7.01523
1074.203	37.08423
1074.557	24.06125
1074.911	33.07372
1075.265	15.03292
1075.618	2.00456
1075.971	38.08551
1076.325	-12.02943
1076.678	16.03492
1077.031	4.0086
1077.385	6.01221
1077.738	-19.04007
1078.091	-11.02363
1078.444	65.14059
1078.796	-7.01659
1079.149	-17.04001
1079.502	-21.04744
1079.855	-11.02426
1080.207	-4.00932
1080.56	-12.02964
1080.912	-27.06268
1081.264	-16.0367
1081.617	17.03928
1081.969	43.10439
1082.321	-17.03956
1082.673	7.01537
1083.025	58.12955
1083.377	290.61849
1083.728	9.01977
1084.08	44.10483
1084.432	-33.07512
1084.783	27.0593
1085.135	1.00239
1085.486	27.05927
1085.838	-6.01394
1086.189	31.0722
1086.54	7.01575
1086.891	20.0482
1087.242	-21.0481
1087.593	10.02284
1087.944	-9.01907
1088.295	23.04826
1088.646	1.00229
1088.996	-39.08954
1089.347	47.1095
1089.698	18.04074
1090.048	-27.06631
1090.398	-25.05458
1090.749	13.02898
1091.099	-13.03151
1091.449	12.02863
1091.799	11.02609
1092.149	11.02606
1092.499	-1.0023
1092.849	42.10183
1093.199	20.04743
1093.548	12.02722
1093.898	-36.0857
1094.248	-18.04376
1094.597	-1.0025
1094.947	20.05115
1095.296	-8.01866
1095.645	-33.08158
1095.994	7.01583
1096.343	-24.05711
1096.692	1.00255
1097.041	8.02122
1097.39	-86.20308
1097.739	-47.1173
1098.088	13.03296
1098.437	33.08438
1098.785	20.05153
1099.134	5.01266
1099.482	12.03189
1099.83	22.05474
1100.179	52.13088
1100.527	28.07158
1100.875	4.01024
1101.223	-32.08175
1101.571	5.01339
1101.919	35.08972
1102.267	-23.06339
1102.615	12.03854
1102.962	6.01924
1103.31	19.06097
1103.658	10.03205
