Data from N3 R9 sample 9_Subt2__2__15-11-07-041.txt Node

Date: Mon Sep 22 15:11:07 PDT 2025
User: uwsun
Spectrometer: HDX01956
Trigger mode: 0
Integration Time (sec): 5.000000E-1
Scans to average: 1
Nonlinearity correction enabled: true
Boxcar width: 0
Storing dark spectrum: false
XAxis mode: Wavelengths
Number of Pixels in Spectrum: 2068
>>>>>Begin Spectral Data<<<<<
194.03	3.00874
194.578	-5.01625
195.127	2.00641
195.676	2.00643
196.225	-24.06361
196.773	-15.04189
197.321	7.01962
197.87	25.0646
198.418	52.13587
198.966	12.03195
199.513	-16.04085
200.061	49.12587
200.609	1.00267
201.156	-15.03347
201.704	47.12005
202.251	61.16374
202.798	60.15699
203.345	55.13587
203.892	24.06142
204.438	53.12784
204.985	69.16656
205.532	65.17299
206.078	37.09251
206.624	31.07812
207.17	50.11661
207.716	5.01235
208.262	61.12108
208.808	44.11039
209.354	-29.0713
209.899	12.0308
210.445	59.14975
210.99	56.13715
211.535	92.21902
212.08	55.1289
212.625	2.00507
213.17	22.05593
213.715	44.10083
214.259	32.07524
214.804	57.14029
215.348	78.17975
215.892	19.046
216.436	52.11988
216.98	1.00225
217.524	-18.0432
218.068	29.07361
218.612	35.08811
219.155	77.1813
219.698	45.10777
220.242	39.09666
220.785	84.19466
221.328	57.14231
221.871	42.10465
222.414	44.10975
222.956	36.08777
223.499	54.12141
224.041	-6.01387
224.583	38.08119
225.126	46.10266
225.668	2.0049
226.21	51.12843
226.751	52.11456
227.293	1.00229
227.835	23.05613
228.376	54.12241
228.918	73.18324
229.459	51.12724
230	56.13342
230.541	-20.04582
231.082	51.12641
231.622	7.01621
232.163	84.2035
232.704	43.10685
233.244	32.0802
233.784	24.05838
234.324	53.11787
234.864	-14.03172
235.404	38.0905
235.944	46.1082
236.484	34.08496
237.023	-23.05495
237.563	22.05098
238.102	-28.06612
238.641	-6.01517
239.18	34.07932
239.719	19.04754
240.258	43.09662
240.797	66.15797
241.335	-23.05596
241.874	4.00771
242.412	15.03576
242.95	4.00967
243.488	37.08403
244.026	-41.0942
244.564	27.05484
245.102	69.15313
245.64	17.04068
246.177	13.02866
246.715	15.03565
247.252	66.15155
247.789	36.06697
248.326	53.12905
248.863	54.11952
249.4	56.12498
249.936	76.1573
250.473	22.05098
251.009	75.17246
251.546	36.07878
252.082	-5.01085
252.618	-6.01351
253.154	-4.00961
253.69	-26.05831
254.226	25.0596
254.761	58.1295
255.297	35.07687
255.832	36.0861
256.367	58.13633
256.903	33.0729
257.438	30.06996
257.972	77.17138
258.507	5.0115
259.042	93.20253
259.576	44.09547
260.111	25.05785
260.645	85.18164
261.179	31.07202
261.713	-7.01558
262.247	42.0971
262.781	15.03122
263.315	45.11068
263.849	13.03266
264.382	42.09633
264.915	80.18869
265.449	22.05444
265.982	105.23825
266.515	-17.04113
267.048	81.17407
267.58	-4.00867
268.113	26.05661
268.646	63.1562
269.178	-5.01126
269.71	-14.03016
270.243	19.04318
270.775	15.03791
271.307	46.10976
271.838	42.09895
272.37	6.01471
272.902	21.04734
273.433	11.02422
273.965	0
274.496	51.12664
275.027	69.17083
275.558	29.07038
276.089	11.0276
276.62	17.04307
277.15	41.10047
277.681	31.06719
278.211	63.15437
278.741	64.14271
279.272	-3.00676
279.802	23.05753
280.332	71.16782
280.861	15.03603
281.391	66.14894
281.921	-11.02621
282.45	37.09264
282.98	14.03636
283.509	46.10427
284.038	65.14665
284.567	37.08583
285.096	39.0939
285.625	25.05705
286.153	58.13696
286.682	40.09222
287.21	17.04144
287.739	55.13016
288.267	29.07051
288.795	50.13091
289.323	61.14408
289.851	42.09768
290.378	-14.03175
290.906	41.09998
291.433	74.18432
291.961	24.05533
292.488	46.11428
293.015	32.07489
293.542	32.08057
294.069	11.02723
294.596	36.08839
295.122	64.15336
295.649	34.07447
296.175	66.15941
296.702	35.08465
297.228	-3.00723
297.754	43.09805
298.28	11.02494
298.806	89.21606
299.332	42.09416
299.857	85.1946
300.383	24.05997
300.908	12.02936
301.433	74.17961
301.958	56.12988
302.483	61.15384
303.008	54.13323
303.533	12.03114
304.058	43.10136
304.582	74.1759
305.107	91.23838
305.631	43.09718
306.155	1.00233
306.679	32.07524
307.203	66.1538
307.727	64.15166
308.251	52.12773
308.775	85.20356
309.298	29.07009
309.822	50.12616
310.345	22.05171
310.868	72.17299
311.391	60.14711
311.914	87.22011
312.437	-1.00228
312.96	92.21742
313.482	70.16601
314.005	65.16504
314.527	54.1422
315.049	44.11079
315.571	96.21673
316.093	88.21511
316.615	116.28303
317.137	58.1266
317.659	82.19821
318.18	39.09358
318.702	50.11679
319.223	52.10768
319.744	80.18046
320.265	59.14527
320.786	69.17114
321.307	99.24519
321.828	54.12191
322.348	98.22845
322.869	86.20206
323.389	6.01032
323.909	106.24321
324.43	72.17029
324.95	44.10136
325.47	90.22262
325.989	104.24587
326.509	126.27864
327.029	31.06948
327.548	131.29797
328.067	107.26024
328.587	79.19559
329.106	100.22723
329.625	140.3603
330.144	65.15126
330.662	83.19368
331.181	117.27215
331.7	128.29862
332.218	180.3914
332.736	106.24749
333.255	118.27443
333.773	112.26345
334.291	84.20953
334.808	118.26487
335.326	77.17295
335.844	83.19436
336.361	92.23355
336.879	100.23312
337.396	22.05318
337.913	96.21841
338.43	100.22548
338.947	127.30182
339.464	127.27163
339.981	120.28567
340.497	102.24869
341.014	101.2439
341.53	114.25778
342.046	159.3883
342.562	100.24645
343.078	134.31274
343.594	131.3088
344.11	103.24054
344.626	119.29903
345.141	135.30558
345.657	147.33044
346.172	125.29649
346.687	59.13404
347.202	155.34713
347.717	156.36909
348.232	143.35079
348.747	151.33804
349.261	171.3727
349.776	142.3318
350.29	131.32147
350.805	171.41402
351.319	146.33592
351.833	212.48191
352.347	76.17563
352.861	129.29426
353.374	234.52588
353.888	148.35787
354.401	173.39302
354.915	158.35684
355.428	159.38743
355.941	172.40158
356.454	145.31844
356.967	206.48304
357.48	191.43268
357.993	192.4639
358.505	193.47185
359.018	211.50162
359.53	235.56146
360.042	166.36172
360.554	218.51836
361.066	185.44657
361.578	209.45029
362.09	164.37854
362.602	179.39162
363.113	218.49354
363.625	232.51389
364.136	167.35733
364.647	168.38993
365.158	126.28875
365.669	195.45519
366.18	186.42863
366.691	231.49577
367.201	175.41059
367.712	204.44924
368.222	206.46125
368.733	241.5083
369.243	207.45173
369.753	231.52393
370.263	255.59289
370.773	185.44775
371.282	208.47856
371.792	247.54974
372.301	191.45198
372.811	272.69286
373.32	233.48581
373.829	255.59383
374.338	282.60874
374.847	235.52282
375.356	323.73643
375.865	307.63014
376.373	256.56729
376.882	278.67672
377.39	333.7684
377.898	335.7939
378.407	319.69524
378.915	389.79484
379.423	371.82499
379.93	342.72558
380.438	356.82359
380.946	435.94157
381.453	472.05511
381.96	417.9288
382.468	473.03537
382.975	551.23327
383.482	539.11993
383.989	551.28075
384.495	593.21808
385.002	600.13188
385.509	614.29501
386.015	635.09603
386.521	675.33503
387.028	764.47784
387.534	768.42752
388.04	766.56655
388.546	843.59244
389.051	797.46135
389.557	857.66395
390.063	996.83027
390.568	957.86721
391.073	1084.93967
391.578	1048.06617
392.084	1092.90905
392.589	1181.94306
393.093	1326.39351
393.598	1408.30178
394.103	1494.53258
394.607	1703.77988
395.112	1766.8956
395.616	1902.90563
396.12	2079.7666
396.624	2326.13246
397.128	2462.18322
397.632	2752.12827
398.136	2978.03645
398.639	3124.14923
399.143	3500.61679
399.646	3895.91865
400.15	4392.68016
400.653	4991.3426
401.156	5544.86821
401.659	6324.8781
402.162	7818.98857
402.664	10386.43362
403.167	14659.57794
403.67	27690.63446
404.172	59086.27999
404.674	62421.90989
405.176	60252.21675
405.678	57642.47783
406.18	55467.82182
406.682	56151.3881
407.184	60564.14267
407.686	63049.78229
408.187	45836.68863
408.688	26592.64362
409.19	18562.43289
409.691	14800.11358
410.192	12624.97173
410.693	10719.68991
411.194	9931.63927
411.694	9301.04208
412.195	8692.12651
412.696	7777.96427
413.196	7307.3035
413.696	6995.77988
414.196	7110.35149
414.696	7059.9232
415.196	6572.6371
415.696	6006.52256
416.196	4912.38447
416.695	3832.10373
417.195	3229.25609
417.694	3115.39341
418.194	2871.59954
418.693	2759.04727
419.192	2593.18374
419.691	2622.17833
420.19	2467.17839
420.688	2407.26703
421.187	2401.47798
421.685	2204.96547
422.184	1976.83218
422.682	1711.43934
423.18	1491.44051
423.678	1303.20052
424.176	1204.10981
424.674	1142.93733
425.172	1098.04499
425.669	1048.07291
426.167	965.81711
426.664	869.62083
427.161	805.56136
427.659	721.50602
428.156	683.21547
428.652	630.41754
429.149	566.21087
429.646	660.28794
430.143	549.17824
430.639	481.01254
431.135	496.12161
431.632	442.9193
432.128	439.95631
432.624	461.0759
433.12	364.76854
433.616	351.6993
434.111	318.70407
434.607	338.74523
435.103	331.64687
435.598	359.67498
436.093	300.64925
436.588	262.54956
437.083	297.62228
437.578	282.60352
438.073	247.58493
438.568	278.64419
439.062	196.39422
439.557	253.56146
440.051	168.36422
440.546	207.45288
441.04	233.53511
441.534	183.44091
442.028	193.43864
442.522	193.44538
443.015	154.32117
443.509	206.47718
444.002	156.36136
444.496	102.21225
444.989	163.37975
445.482	144.34596
445.975	144.31592
446.468	172.35632
446.961	122.24493
447.454	121.26272
447.947	151.34777
448.439	83.19512
448.931	148.32168
449.424	138.33155
449.916	85.1953
450.408	127.27751
450.9	108.25404
451.392	81.19516
451.884	89.19595
452.375	125.29923
452.867	75.16138
453.358	69.1502
453.849	71.14455
454.341	90.19362
454.832	60.12413
455.323	60.14119
455.814	85.18691
456.304	56.12467
456.795	69.15147
457.285	134.28381
457.776	83.18113
458.266	54.12286
458.756	95.21897
459.247	14.03216
459.737	47.10903
460.226	85.18196
460.716	39.08993
461.206	64.14884
461.695	44.10471
462.185	66.15003
462.674	76.16666
463.163	69.14758
463.653	57.11525
464.142	59.13724
464.63	84.19697
465.119	32.07186
465.608	45.09941
466.096	81.17114
466.585	75.16451
467.073	70.16286
467.561	54.12484
468.05	-13.02909
468.538	49.11578
469.026	21.04873
469.513	40.08231
470.001	0
470.489	84.19374
470.976	65.14569
471.463	69.16505
471.951	35.08382
472.438	52.11826
472.925	44.0997
473.412	28.06671
473.899	54.11897
474.385	28.06704
474.872	1.00227
475.359	118.28005
475.845	4.00807
476.331	70.14527
476.817	40.09431
477.303	49.11024
477.789	43.09963
478.275	-30.07246
478.761	6.01399
479.247	72.15623
479.732	-4.00973
480.218	71.18014
480.703	17.04116
481.188	20.04182
481.673	-33.07372
482.158	60.12624
482.643	-8.01985
483.128	42.09428
483.612	-12.02742
484.097	-6.01414
484.581	-5.01117
485.066	29.06871
485.55	11.02376
486.034	23.04907
486.518	-8.01829
487.002	35.08494
487.486	50.11995
487.969	0
488.453	-20.04936
488.936	45.09941
489.42	-6.01279
489.903	2.0049
490.386	-2.00445
490.869	22.04645
491.352	34.08026
491.835	-32.06433
492.318	33.07238
492.8	-23.04631
493.283	18.04464
493.765	-24.05808
494.247	10.02266
494.73	-28.06143
495.212	6.01407
495.694	4.00912
496.175	-20.04745
496.657	-66.15198
497.139	50.08304
497.62	-28.06594
498.102	25.06087
498.583	-12.02925
499.064	-52.11504
499.545	2.00447
500.026	-54.11877
500.507	3.00685
500.988	-45.10863
501.469	-68.16771
501.949	-24.05766
502.43	-40.09405
502.91	-13.02629
503.39	-19.04675
503.87	2.0046
504.35	27.06194
504.83	5.01067
505.31	-34.08135
505.79	-74.17447
506.269	-18.0412
506.749	-42.09497
507.228	-68.15833
507.707	-107.23054
508.187	-15.03459
508.666	-19.04566
509.145	-34.0781
509.623	-37.08573
510.102	-9.02122
510.581	-59.13892
511.059	-2.00494
511.538	-62.157
512.016	-32.07521
512.494	-1.00237
512.972	-74.17393
513.45	-56.12952
513.928	-32.07694
514.406	7.01679
514.884	-74.18652
515.361	-25.05868
515.839	-16.0356
516.316	-45.10629
516.793	-2.00502
517.27	-55.13011
517.747	-23.05869
518.224	-33.075
518.701	-42.09214
519.178	-70.17366
519.654	-1.00233
520.131	-6.0146
520.607	-33.08005
521.083	-60.13568
521.56	-29.06764
522.036	-95.20468
522.512	-49.11699
522.987	-94.2206
523.463	-36.08448
523.939	-53.12755
524.414	-27.06039
524.89	-29.06815
525.365	-79.17445
525.84	-39.09276
526.315	-7.01667
526.79	-28.06187
527.265	-48.10788
527.74	-47.11307
528.215	-7.01617
528.689	-54.11772
529.164	-25.05312
529.638	-80.20229
530.112	-66.15428
530.587	-71.14995
531.061	-18.0428
531.534	-98.23366
532.008	-55.12925
532.482	-52.11548
532.956	-57.14334
533.429	-31.07376
533.903	-88.18907
534.376	-95.206
534.849	-25.05627
535.322	-69.1593
535.795	-52.12522
536.268	-68.16008
536.741	-65.15311
537.213	-53.11982
537.686	-39.09447
538.158	-110.24448
538.631	-95.22629
539.103	-88.19404
539.575	-55.11279
540.047	-79.16911
540.519	-73.17135
540.991	-75.18139
541.463	-83.1974
541.934	-60.13529
542.406	-103.24271
542.877	-126.27841
543.348	-48.11388
543.82	-69.16587
544.291	-81.18521
544.762	-70.1635
545.233	-75.1863
545.703	-70.15448
546.174	-94.21637
546.645	-84.19951
547.115	-35.0827
547.585	-56.12741
548.056	-105.25145
548.526	-54.12569
548.996	-92.21708
549.466	-49.11788
549.935	-109.25774
550.405	-67.14547
550.875	-40.09383
551.344	-93.22161
551.814	-43.09785
552.283	-26.05555
552.752	-73.16779
553.221	-51.11111
553.69	-53.11576
554.159	-49.11913
554.628	-7.01555
555.096	-47.11743
555.565	-55.12135
556.033	-49.11317
556.502	-54.1289
556.97	-41.08959
557.438	-105.24357
557.906	-15.03451
558.374	-5.01119
558.842	-67.1572
559.31	-50.10845
559.777	-37.08776
560.245	-35.0781
560.712	-11.02493
561.18	-52.11326
561.647	-45.09825
562.114	-12.02661
562.581	-31.07376
563.048	-38.08418
563.514	-22.05278
563.981	-69.1523
564.448	28.0605
564.914	31.06903
565.381	58.12719
565.847	79.1786
566.313	66.14778
566.779	51.11078
567.245	112.25264
567.711	67.15437
568.176	59.12859
568.642	89.21606
569.108	108.25612
569.573	114.254
570.038	62.12367
570.504	140.29846
570.969	155.36807
571.434	219.45155
571.899	155.35156
572.363	119.25529
572.828	271.57082
573.293	163.3539
573.757	165.35504
574.222	163.34319
574.686	209.44546
575.15	169.37193
575.614	209.4443
576.078	249.54522
576.542	193.40635
577.006	204.42412
577.469	238.5478
577.933	185.38522
578.396	192.42636
578.86	225.49517
579.323	265.58564
579.786	228.45562
580.249	188.40201
580.712	192.43946
581.175	228.52751
581.637	188.40061
582.1	187.37863
582.563	174.34383
583.025	189.43285
583.487	156.29669
583.95	153.31135
584.412	128.25139
584.874	119.27254
585.336	167.37539
585.797	121.24567
586.259	119.2619
586.721	132.29739
587.182	140.30209
587.643	116.24891
588.105	180.40918
588.566	117.23104
589.027	82.19048
589.488	90.19811
589.949	125.28962
590.41	47.08919
590.87	84.18172
591.331	82.16812
591.791	59.13067
592.252	95.2118
592.712	51.11854
593.172	61.13137
593.632	100.20781
594.092	36.07745
594.552	54.11222
595.011	24.05339
595.471	3.00646
595.931	6.0129
596.39	1.00232
596.849	6.01366
597.308	2.00418
597.768	27.06743
598.227	-2.00469
598.685	39.0859
599.144	34.07748
599.603	52.11984
600.062	6.0124
600.52	-27.05882
600.978	13.03012
601.437	-2.00445
601.895	30.06187
602.353	43.09233
602.811	39.08439
603.269	26.06083
603.727	4.00937
604.184	-35.07784
604.642	-8.01921
605.099	-41.09228
605.557	34.08069
606.014	-8.01678
606.471	-42.10305
606.928	-33.06985
607.385	10.02435
607.842	5.01131
608.299	-8.01822
608.755	-39.09201
609.212	-33.07223
609.668	11.02421
610.125	-50.11816
610.581	6.01365
611.037	4.00888
611.493	11.02506
611.949	10.02361
612.405	-12.02365
612.861	17.03842
613.316	25.05868
613.772	-58.12955
614.227	-7.01629
614.683	8.01633
615.138	-56.129
615.593	-22.0506
616.048	8.01776
616.503	3.00716
616.958	32.07883
617.412	-66.15428
617.867	24.05216
618.321	-6.01185
618.776	-9.01959
619.23	-35.08026
619.684	-28.06063
620.138	6.01339
620.592	-20.04765
621.046	-50.11463
621.5	25.05864
621.954	2.00432
622.407	-27.05815
622.861	-16.03819
623.314	-8.01748
623.768	-27.06164
624.221	-20.03835
624.674	37.08406
625.127	-27.06109
625.58	-3.00664
626.033	42.08825
626.485	-7.01651
626.938	-12.02789
627.39	-21.04692
627.843	-12.02691
628.295	-14.0311
628.747	-57.13128
629.199	-27.06
629.651	14.03149
630.103	-20.04504
630.555	-48.09988
631.006	-45.10277
631.458	-17.03933
631.909	-42.0923
632.361	-61.13993
632.812	-6.01363
633.263	16.0334
633.714	-14.02917
634.165	1.00236
634.616	-32.0741
635.067	-12.02587
635.518	15.03458
635.968	-7.01356
636.419	-36.07651
636.869	38.08771
637.319	-71.15999
637.769	-57.12408
638.219	-25.05726
638.669	-74.17183
639.119	-18.04293
639.569	-17.04015
640.019	-44.09877
640.468	-75.16471
640.918	-53.12455
641.367	-59.12887
641.816	-28.06107
642.265	63.14144
642.714	-83.18872
643.163	-50.11168
643.612	-51.12036
644.061	-109.22697
644.51	-12.02664
644.958	-18.03911
645.406	-38.0889
645.855	-34.08138
646.303	-7.01577
646.751	-75.16887
647.199	-81.18044
647.647	16.03602
648.095	-29.06492
648.543	-67.13268
648.99	-75.1759
649.438	-30.06878
649.885	-32.07741
650.333	-58.10966
650.78	0
651.227	-4.00962
651.674	-33.07351
652.121	-60.1424
652.568	-28.06689
653.015	-21.05192
653.461	-24.05632
653.908	-18.0407
654.354	6.01399
654.801	-42.09756
655.247	-9.01899
655.693	-32.08253
656.139	-40.09328
656.585	18.04219
657.031	21.04902
657.477	-13.02729
657.922	-2.00456
658.368	-14.03341
658.813	-9.02026
659.259	9.02117
659.704	-12.02775
660.149	2.00453
660.594	-45.10476
661.039	-32.07136
661.484	-45.10435
661.929	-21.04796
662.373	-36.09068
662.818	-9.02184
663.262	-32.07601
663.707	-14.03491
664.151	-3.00718
664.595	-16.03784
665.039	-65.15839
665.483	45.11267
665.927	5.0113
666.371	8.01843
666.814	5.01157
667.258	-29.06772
667.701	-23.04721
668.145	-37.08942
668.588	4.00967
669.031	-40.09248
669.474	7.01659
669.917	16.03438
670.36	-24.05817
670.803	28.06496
671.245	10.02048
671.688	-10.02385
672.13	-50.11002
672.573	9.02231
673.015	52.12165
673.457	-10.02138
673.899	3.00702
674.341	-10.02381
674.783	32.07504
675.225	-30.072
675.666	19.04552
676.108	-23.04877
676.549	0
676.991	-49.10553
677.432	-2.0039
677.873	40.09056
678.314	-38.08897
678.755	2.00475
679.196	-47.10548
679.637	4.00951
680.078	-23.05217
680.518	53.11855
680.959	2.00468
681.399	-16.03882
681.839	24.05703
682.28	-13.03141
682.72	3.00668
683.16	-3.0073
683.6	2.00438
684.039	-8.01605
684.479	-10.02425
684.919	-11.02517
685.358	-20.04954
685.798	2.00514
686.237	-19.04434
686.676	41.09171
687.115	-4.00912
687.554	-23.05255
687.993	-6.01277
688.432	29.06479
688.871	-12.02669
689.309	8.01854
689.748	34.06823
690.186	-14.03203
690.625	30.06817
691.063	35.08113
691.501	-9.02149
691.939	-13.03162
692.377	-50.11922
692.815	17.03956
693.253	38.08862
693.69	59.12592
694.128	19.04543
694.565	9.02084
695.003	-2.00491
695.44	5.01138
695.877	24.05451
696.314	-7.01443
696.751	-36.07861
697.188	31.06814
697.625	-19.04136
698.061	26.06118
698.498	-13.02993
698.934	53.12372
699.371	-26.05997
699.807	-4.00915
700.243	16.03698
700.679	0
701.115	-56.12591
701.551	-1.00227
701.987	33.07073
702.422	27.06268
702.858	27.06288
703.294	33.07125
703.729	51.11966
704.164	-22.05147
704.599	25.05366
705.035	29.06275
705.47	31.0735
705.904	27.06154
706.339	20.04388
706.774	16.036
707.209	2.00445
707.643	10.02326
708.078	20.04692
708.512	-3.00736
708.946	22.05034
709.38	-15.03451
709.814	-37.08126
710.248	-39.09165
710.682	35.08129
711.116	29.0682
711.549	14.03531
711.983	7.01566
712.416	-1.00226
712.85	42.10102
713.283	-2.00457
713.716	61.1472
714.149	46.10423
714.582	7.01502
715.015	-22.05288
715.448	-12.02902
715.881	-2.00414
716.313	8.01825
716.746	-1.00228
717.178	72.16692
717.61	-26.06412
718.043	-18.04341
718.475	23.05369
718.907	44.10632
719.339	14.03121
719.77	16.03709
720.202	-49.1206
720.634	-25.05946
721.065	5.01136
721.497	-4.0094
721.928	-6.01445
722.359	7.0167
722.79	49.11358
723.221	18.04389
723.652	26.06455
724.083	17.03708
724.514	-8.01761
724.945	27.06196
725.375	23.05187
725.806	-10.02404
726.236	-16.0394
726.666	18.04127
727.096	33.07728
727.526	25.06199
727.956	7.01538
728.386	-3.00712
728.816	1.00247
729.246	2.00471
729.675	-31.07415
730.105	11.02621
730.534	-29.06508
730.964	18.04392
731.393	31.07384
731.822	12.02967
732.251	77.18924
732.68	45.10041
733.109	22.05235
733.537	23.05392
733.966	-18.04325
734.395	-21.04695
734.823	24.05145
735.251	1.00233
735.68	-7.01669
736.108	54.1319
736.536	18.04052
736.964	9.02053
737.392	26.06289
737.82	59.13637
738.247	-1.00229
738.675	-10.02256
739.102	1.00244
739.53	3.00747
739.957	-42.10549
740.384	-7.01632
740.811	14.03415
741.238	-16.03742
741.665	31.06951
742.092	-33.07449
742.519	35.08484
742.945	-3.00694
743.372	27.06454
743.798	22.05444
744.225	-1.0023
744.651	21.05152
745.077	-21.05021
745.503	25.05866
745.929	14.0323
746.355	59.13778
746.781	46.1106
747.207	15.03463
747.632	-32.07592
748.058	-14.03359
748.483	22.04841
748.908	-26.06275
749.334	1.00237
749.759	15.03451
750.184	67.15425
750.609	23.05411
751.033	4.00897
751.458	-15.03194
751.883	-33.079
752.307	23.05246
752.732	-41.10009
753.156	71.17165
753.58	-20.04508
754.005	-9.02194
754.429	-31.07017
754.853	48.11607
755.277	-12.02756
755.7	-14.03337
756.124	0
756.548	46.10499
756.971	-13.03019
757.394	6.01503
757.818	-12.03025
758.241	-20.04913
758.664	-2.00488
759.087	-15.03228
759.51	24.05749
759.933	60.13943
760.356	-2.00494
760.778	8.01912
761.201	28.06512
761.623	53.12168
762.046	17.03842
762.468	24.05467
762.89	29.06804
763.312	-5.01167
763.734	-6.01402
764.156	-2.00477
764.578	-3.0065
765	11.02559
765.421	7.01756
765.843	54.13694
766.264	20.04593
766.686	41.09909
767.107	5.01177
767.528	1.00246
767.949	26.06436
768.37	20.04743
768.791	-7.0162
769.212	16.03949
769.632	53.11938
770.053	-5.01287
770.473	10.02335
770.894	-14.03362
771.314	2.00454
771.734	41.09201
772.154	48.11795
772.575	8.01745
772.994	11.02405
773.414	-18.04127
773.834	-29.06993
774.254	-50.11821
774.673	-4.00939
775.093	36.0861
775.512	19.04514
775.931	2.00491
776.351	18.04333
776.77	47.11122
777.189	31.07043
777.607	-3.00747
778.026	-17.04068
778.445	-8.01981
778.864	57.14122
779.282	-3.00697
779.701	-20.04851
780.119	30.07393
780.537	3.00731
780.955	20.04878
781.373	-20.04802
781.791	31.06682
782.209	13.02835
782.627	-19.04865
783.045	-22.04839
783.462	38.0941
783.88	15.03767
784.297	-3.00723
784.715	10.02507
785.132	-2.00467
785.549	27.06545
785.966	-7.01694
786.383	8.01903
786.8	-54.11917
787.217	21.0475
787.633	27.06537
788.05	-3.00668
788.466	-28.06239
788.883	15.03746
789.299	18.04218
789.715	9.02087
790.131	16.03824
790.547	-27.06491
790.963	13.03101
791.379	-24.0591
791.795	31.06731
792.21	21.04686
792.626	71.1613
793.041	19.04486
793.457	40.09464
793.872	41.09182
794.287	-22.05131
794.702	-8.01877
795.117	-5.01202
795.532	21.05113
795.947	-30.06679
796.362	-2.00453
796.776	1.00215
797.191	-15.03515
797.605	19.04357
798.02	-4.00948
798.434	-10.02103
798.848	-25.05925
799.262	13.03138
799.676	22.05119
800.09	-41.0962
800.504	-41.09522
800.918	35.07742
801.331	13.03259
801.745	-54.11767
802.158	-6.0144
802.572	11.02541
802.985	18.04102
803.398	-54.12305
803.811	51.1239
804.224	29.06876
804.637	0
805.05	-26.05704
805.462	-7.01634
805.875	33.08379
806.288	-39.09111
806.7	3.00726
807.112	11.02435
807.525	-28.0655
807.937	16.03794
808.349	26.0623
808.761	13.03044
809.173	-12.02789
809.584	-42.0986
809.996	-19.0454
810.408	-26.06563
810.819	18.04075
811.231	17.04333
811.642	-39.09244
812.053	27.06248
812.464	1.00228
812.875	32.07799
813.286	23.05721
813.697	9.01968
814.108	-20.04653
814.519	-8.01674
814.929	-4.00967
815.34	29.06738
815.75	3.00737
816.16	-27.06394
816.571	30.07518
816.981	-33.07449
817.391	-4.00925
817.801	-6.01446
818.211	26.05855
818.62	40.09226
819.03	-40.09303
819.44	2.00499
819.849	19.04566
820.259	-19.04652
820.668	19.04498
821.077	48.11602
821.486	-1.00227
821.895	3.007
822.304	-20.05145
822.713	-1.00225
823.122	-18.04307
823.531	39.08742
823.939	3.00699
824.348	28.06455
824.756	-2.00476
825.164	-18.0429
825.573	-29.07019
825.981	-6.01419
826.389	-50.11871
826.797	-6.0144
827.205	2.00442
827.612	-38.08956
828.02	44.09905
828.428	19.04658
828.835	-21.05372
829.243	79.1786
829.65	4.00968
830.057	-8.01859
830.464	-13.03047
830.871	63.14202
831.278	26.06037
831.685	7.01453
832.092	-17.03933
832.499	41.0845
832.905	11.02667
833.312	19.04117
833.718	-2.00475
834.124	-26.05572
834.531	41.09838
834.937	-36.08879
835.343	9.0207
835.749	11.0241
836.155	22.05553
836.561	-31.07285
836.966	-16.03774
837.372	-13.03183
837.777	-37.08895
838.183	67.13858
838.588	40.09493
838.993	-4.00917
839.399	-1.00233
839.804	14.03339
840.209	30.07328
840.613	-12.02528
841.018	-28.06755
841.423	9.02216
841.828	54.13171
842.232	10.0231
842.637	27.06047
843.041	35.087
843.445	-3.0072
843.849	32.07715
844.253	-2.0045
844.657	-12.02912
845.061	47.10174
845.465	71.16509
845.869	-44.09637
846.272	18.04219
846.676	-3.00685
847.079	32.07808
847.483	-6.01423
847.886	31.07031
848.289	9.02342
848.692	-37.08992
849.095	-5.01137
849.498	79.18847
849.901	10.02173
850.304	4.00899
850.707	38.09199
851.109	51.12251
851.512	6.0141
851.914	-4.00989
852.316	33.07975
852.718	-13.03297
853.121	-26.0604
853.523	-2.00442
853.925	-10.02547
854.326	26.06209
854.728	2.00501
855.13	46.11537
855.531	-36.08257
855.933	4.00904
856.334	40.09618
856.736	37.07907
857.137	6.01334
857.538	29.07035
857.939	12.02857
858.34	-21.04848
858.741	-27.06809
859.142	-19.04329
859.542	32.08118
859.943	-29.06889
860.343	4.00959
860.744	-40.09196
861.144	-1.00233
861.544	24.05643
861.945	37.09107
862.345	9.02093
862.745	14.03341
863.145	-15.03372
863.544	-6.01459
863.944	-11.02458
864.344	-12.02824
864.743	-22.05127
865.143	24.05876
865.542	50.11053
865.941	53.12644
866.34	2.00451
866.74	64.16574
867.139	9.02066
867.537	36.08807
867.936	-33.07543
868.335	77.18637
868.734	-5.01239
869.132	23.05092
869.531	3.00684
869.929	10.02179
870.327	29.06615
870.726	40.09446
871.124	62.13545
871.522	6.01469
871.92	35.0817
872.318	73.17014
872.715	35.08186
873.113	-23.05371
873.511	16.03824
873.908	-1.00246
874.306	5.01196
874.703	30.07054
875.1	5.01208
875.497	-6.01348
875.894	49.11681
876.291	0
876.688	-19.04689
877.085	-3.00677
877.482	31.07379
877.878	-20.04605
878.275	11.02679
878.671	-3.00617
879.068	14.03192
879.464	-45.10331
879.86	0
880.256	-16.0369
880.652	52.12759
881.048	9.02124
881.444	30.06745
881.84	26.06358
882.236	22.05302
882.631	-2.00472
883.027	-19.04336
883.422	-19.04649
883.817	-43.10552
884.213	5.01227
884.608	13.03068
885.003	7.01623
885.398	19.04595
885.793	2.0048
886.188	29.07001
886.582	-7.01687
886.977	-8.01774
887.371	-31.07472
887.766	38.09255
888.16	41.09601
888.554	-34.07845
888.949	-79.18601
889.343	17.03915
889.737	11.02883
890.131	74.17887
890.525	-45.1099
890.918	10.02426
891.312	50.1138
891.706	-23.05809
892.099	3.00721
892.492	40.07975
892.886	-16.03731
893.279	60.14607
893.672	5.01226
894.065	-9.0213
894.458	-29.06918
894.851	-11.02537
895.244	20.04927
895.637	-41.09281
896.029	10.02328
896.422	-10.02329
896.814	-20.0477
897.206	18.04085
897.599	-51.11891
897.991	51.11643
898.383	-23.05157
898.775	6.01276
899.167	-18.0404
899.559	16.03841
899.951	35.07748
900.342	-1.0024
900.734	2.00481
901.125	-18.04474
901.517	6.01398
901.908	19.04255
902.299	47.11045
902.69	-14.03114
903.082	-9.02054
903.473	12.02731
903.863	-3.00728
904.254	15.03292
904.645	-36.08462
905.036	27.06263
905.426	4.00853
905.817	-12.02816
906.207	60.1375
906.597	9.01993
906.987	-50.12359
907.378	24.05827
907.768	-50.12765
908.158	-28.06458
908.547	-15.03754
908.937	-1.00245
909.327	-13.02986
909.717	-3.00719
910.106	1.00228
910.495	2.00469
910.885	11.02656
911.274	24.05725
911.663	-14.03374
912.052	12.02804
912.441	11.02675
912.83	-14.0303
913.219	-14.03485
913.608	33.0771
913.997	12.02898
914.385	-33.07351
914.774	73.16732
915.162	-4.00903
915.55	-3.00682
915.939	3.00719
916.327	14.03328
916.715	-17.04166
917.103	7.01616
917.491	-30.07049
917.878	46.1082
918.266	-2.00494
918.654	3.00727
919.041	21.05319
919.429	17.03806
919.816	-20.04776
920.203	-18.04158
920.591	-12.02818
920.978	-26.05977
921.365	-11.02769
921.752	33.07442
922.139	37.07461
922.525	-27.06233
922.912	-4.00924
923.299	18.04274
923.685	40.10028
924.072	54.11657
924.458	-5.01186
924.844	17.0404
925.231	6.01325
925.617	-44.10748
926.003	35.0849
926.389	17.04108
926.774	20.04838
927.16	14.03273
927.546	47.11704
927.931	-27.06352
928.317	-28.06013
928.702	-21.04641
929.088	-57.12734
929.473	-7.01694
929.858	30.07079
930.243	-1.00229
930.628	-26.05963
931.013	45.10538
931.398	18.03882
931.783	-47.11836
932.167	6.01387
932.552	22.0527
932.937	0
933.321	-12.02866
933.705	-31.07523
934.09	-21.04962
934.474	48.10557
934.858	28.06977
935.242	6.01336
935.626	37.09066
936.009	-34.08717
936.393	67.16204
936.777	25.06124
937.16	-27.0677
937.544	-3.00667
937.927	44.10712
938.311	-12.02744
938.694	24.06052
939.077	-6.01358
939.46	12.02756
939.843	34.0652
940.226	-22.054
940.609	9.01966
940.991	5.01214
941.374	-6.01387
941.757	19.04418
942.139	6.01261
942.522	-42.09284
942.904	24.05511
943.286	-3.00717
943.668	-49.12211
944.05	-4.00937
944.432	12.02815
944.814	39.08972
945.196	28.0662
945.578	8.01829
945.959	-6.01347
946.341	1.00229
946.722	30.06543
947.104	9.02044
947.485	-17.03699
947.866	43.10505
948.247	-4.0096
948.628	-4.00916
949.009	-38.09406
949.39	-26.06123
949.771	-12.0261
950.152	8.01861
950.532	-7.01671
950.913	29.06599
951.293	-18.0474
951.674	5.01148
952.054	36.08508
952.434	-35.08276
952.814	13.02909
953.194	24.05967
953.574	3.00691
953.954	-64.14413
954.334	-8.01888
954.714	-26.06133
955.093	-52.11931
955.473	25.06026
955.853	-20.04978
956.232	-18.04777
956.611	15.03359
956.99	56.135
957.37	49.11918
957.749	-35.07929
958.128	-35.08538
958.506	-11.02745
958.885	10.02414
959.264	4.00948
959.643	-7.01473
960.021	-16.03775
960.4	-30.06437
960.778	-20.04582
961.156	-22.05258
961.535	-4.0088
961.913	7.01531
962.291	5.01239
962.669	-37.0904
963.047	26.06396
963.424	4.00977
963.802	-22.05149
964.18	28.06686
964.557	65.1392
964.935	-10.02236
965.312	44.11047
965.69	-5.0119
966.067	-24.05493
966.444	19.04434
966.821	1.00247
967.198	6.01358
967.575	6.0139
967.952	13.02853
968.329	-17.03925
968.705	-39.0773
969.082	9.02203
969.458	51.11765
969.835	77.17862
970.211	19.04676
970.587	-16.03753
970.963	20.04916
971.339	32.07991
971.715	21.04981
972.091	63.14701
972.467	-49.11515
972.843	38.09029
973.219	22.04855
973.594	-35.08748
973.97	7.01554
974.345	-21.04804
974.721	48.10951
975.096	42.09629
975.471	22.04886
975.846	-6.01351
976.221	1.00242
976.596	-9.02045
976.971	-17.03956
977.346	28.06104
977.72	8.0195
978.095	-7.01732
978.469	54.12017
978.844	22.05209
979.218	6.01369
979.593	-31.06966
979.967	37.08423
980.341	-13.02827
980.715	11.0265
981.089	-7.01671
981.463	-47.10174
981.837	-23.05361
982.21	-13.02777
982.584	-10.02302
982.957	10.02404
983.331	6.01316
983.704	50.11738
984.078	16.03775
984.451	32.07442
984.824	-38.08897
985.197	-13.02987
985.57	9.02125
985.943	-15.03438
986.316	8.01831
986.688	11.02503
987.061	9.01982
987.434	0
987.806	-12.02731
988.179	-15.03368
988.551	3.00719
988.923	-31.07282
989.295	56.13091
989.667	35.07984
990.039	42.09918
990.411	23.05009
990.783	48.10206
991.155	17.03911
991.527	-31.07086
991.898	47.11071
992.27	-16.03787
992.641	5.01189
993.012	11.02403
993.384	47.10565
993.755	-39.09567
994.126	45.10211
994.497	-10.02336
994.868	4.00866
995.239	21.04792
995.61	-20.04853
995.98	-49.11299
996.351	23.05483
996.722	50.11029
997.092	-14.03136
997.462	23.05187
997.833	12.02649
998.203	-11.0251
998.573	36.08613
998.943	-18.03997
999.313	-34.07807
999.683	26.0591
1000.053	-23.04966
1000.423	32.07327
1000.792	-22.05424
1001.162	-28.06604
1001.531	39.09208
1001.901	9.02137
1002.27	-31.06469
1002.639	45.10998
1003.009	41.09216
1003.378	21.05169
1003.747	8.01781
1004.116	0
1004.485	-11.02486
1004.853	-7.01681
1005.222	37.08952
1005.591	58.12891
1005.959	-24.05128
1006.328	-13.02772
1006.696	11.02513
1007.064	5.01202
1007.433	-20.04734
1007.801	-14.03235
1008.169	6.01432
1008.537	37.07577
1008.905	33.07348
1009.273	1.00233
1009.64	59.13502
1010.008	2.0045
1010.375	-13.02943
1010.743	40.08531
1011.11	-37.08273
1011.478	-34.08016
1011.845	-19.04231
1012.212	11.02354
1012.579	-15.03491
1012.946	20.04454
1013.313	-51.11351
1013.68	42.0872
1014.047	28.06422
1014.414	11.02476
1014.78	4.00949
1015.147	-48.10912
1015.513	-13.02969
1015.88	-24.05782
1016.246	-9.02108
1016.612	24.05081
1016.978	-5.01169
1017.344	-2.00474
1017.71	15.03362
1018.076	-38.08432
1018.442	-25.06103
1018.808	-5.01192
1019.174	-25.06028
1019.539	14.02921
1019.905	-39.08742
1020.27	-8.01894
1020.636	32.07088
1021.001	-24.05392
1021.366	-1.00229
1021.731	8.01955
1022.096	-17.04121
1022.461	7.01563
1022.826	40.09052
1023.191	-34.08595
1023.556	31.06791
1023.92	-46.10795
1024.285	26.0604
1024.649	-62.14402
1025.014	-19.04453
1025.378	-19.04571
1025.742	-1.00236
1026.107	-8.01695
1026.471	-4.00878
1026.835	-21.04952
1027.199	14.03242
1027.562	-12.02619
1027.926	57.13034
1028.29	9.02173
1028.654	-11.02383
1029.017	6.01396
1029.381	25.05687
1029.744	-1.00245
1030.107	29.06388
1030.471	-51.11497
1030.834	21.04449
1031.197	-23.05168
1031.56	37.08246
1031.923	54.1347
1032.286	-38.08263
1032.648	24.0542
1033.011	-32.06982
1033.374	12.0267
1033.736	-5.0128
1034.099	-30.06994
1034.461	0
1034.823	-17.04057
1035.185	-23.05531
1035.548	-6.01379
1035.91	33.075
1036.272	-8.01717
1036.634	-12.02752
1036.995	41.09039
1037.357	-5.01171
1037.719	-16.03731
1038.08	25.05567
1038.442	-28.06326
1038.803	28.06373
1039.165	24.0579
1039.526	-27.06186
1039.887	22.04999
1040.248	-35.08231
1040.609	2.00465
1040.97	-38.08782
1041.331	-11.02649
1041.692	17.03799
1042.053	-1.00213
1042.413	6.01306
1042.774	39.08796
1043.134	49.10816
1043.495	32.07726
1043.855	-1.00229
1044.215	-34.08038
1044.576	2.00456
1044.936	-33.06991
1045.296	28.06612
1045.656	36.08382
1046.016	2.00459
1046.375	-14.03224
1046.735	-1.00216
1047.095	51.1138
1047.454	-15.02909
1047.814	25.05668
1048.173	22.04969
1048.533	4.0087
1048.892	13.03029
1049.251	31.07308
1049.61	25.05864
1049.969	54.12071
1050.328	-11.02199
1050.687	-10.02309
1051.046	-33.07658
1051.405	15.03541
1051.763	-32.07038
1052.122	20.04811
1052.48	-21.04862
1052.839	-1.00224
1053.197	40.08894
1053.555	-13.02723
1053.914	-6.01386
1054.272	-3.00683
1054.63	2.00469
1054.988	30.06778
1055.345	14.02795
1055.703	2.00451
1056.061	-13.03203
1056.419	-8.02016
1056.776	-15.03415
1057.134	-3.00666
1057.491	-51.12116
1057.848	24.05632
1058.206	39.08677
1058.563	-42.08779
1058.92	22.04723
1059.277	32.07433
1059.634	-14.03057
1059.991	1.00226
1060.348	-28.0599
1060.704	31.0704
1061.061	5.01075
1061.418	54.12549
1061.774	-22.05221
1062.131	1.00256
1062.487	-19.04241
1062.843	25.05893
1063.199	-24.057
1063.555	-15.03243
1063.911	8.01912
1064.267	74.13964
1064.623	54.12613
1064.979	-2.00442
1065.335	19.04276
1065.691	38.08551
1066.046	-11.02295
1066.402	28.06037
1066.757	22.05266
1067.112	-5.01156
1067.468	50.11288
1067.823	44.09946
1068.178	14.0317
1068.533	-22.04997
1068.888	0
1069.243	27.06271
1069.598	8.01847
1069.952	7.01509
1070.307	-13.03095
1070.662	47.10431
1071.016	8.01711
1071.371	18.03811
1071.725	22.04932
1072.079	-10.02265
1072.434	40.09207
1072.788	13.02921
1073.142	-19.04407
1073.496	15.03391
1073.85	18.03907
1074.203	35.07971
1074.557	-5.01283
1074.911	58.12891
1075.265	9.01977
1075.618	12.02733
1075.971	41.0922
1076.325	16.03904
1076.678	-14.03075
1077.031	24.05139
1077.385	-4.00816
1077.738	-6.01262
1078.091	-12.02578
1078.444	61.13205
1078.796	31.07293
1079.149	-38.0898
1079.502	24.05372
1079.855	-9.01984
1080.207	-7.01633
1080.56	20.04911
1080.912	-5.01156
1081.264	6.0137
1081.617	6.01389
1081.969	65.15715
1082.321	-9.02091
1082.673	40.0872
1083.025	31.06963
1083.377	63.14098
1083.728	57.12397
1084.08	39.09301
1084.432	-47.1073
1084.783	1.00221
1085.135	-33.07954
1085.486	-6.01326
1085.838	-27.06298
1086.189	44.10221
1086.54	-4.00902
1086.891	-27.06565
1087.242	-11.02514
1087.593	9.02056
1087.944	-4.00847
1088.295	21.04408
1088.646	10.02282
1088.996	-21.04804
1089.347	38.08869
1089.698	40.09012
1090.048	-26.06384
1090.398	43.09253
1090.749	-13.02914
1091.099	-46.1122
1091.449	45.1067
1091.799	-12.02859
1092.149	7.0166
1092.499	-24.05546
1092.849	-32.07866
1093.199	5.01189
1093.548	5.01136
1093.898	-47.11213
1094.248	-13.03157
1094.597	7.01749
1094.947	11.02818
1095.296	-22.05145
1095.645	11.02697
1095.994	-6.01361
1096.343	-20.04756
1096.692	-5.01274
1097.041	26.06877
1097.39	-82.19349
1097.739	9.02223
1098.088	-37.09464
1098.437	21.05381
1098.785	-16.04148
1099.134	0
1099.482	24.06365
1099.83	-30.07535
1100.179	13.03295
1100.527	25.06395
1100.875	51.12945
1101.223	-31.07918
1101.571	-28.07537
1101.919	35.08972
1102.267	-8.022
1102.615	13.04174
1102.962	-3.00963
1103.31	12.03854
1103.658	-7.02248
