Data from N3 R9 sample 11_Subt2__2__14-44-06-077.txt Node

Date: Mon Sep 22 14:44:06 PDT 2025
User: uwsun
Spectrometer: HDX01956
Trigger mode: 0
Integration Time (sec): 5.000000E-1
Scans to average: 1
Nonlinearity correction enabled: true
Boxcar width: 0
Storing dark spectrum: false
XAxis mode: Wavelengths
Number of Pixels in Spectrum: 2068
>>>>>Begin Spectral Data<<<<<
194.03	34.09845
194.578	38.12301
195.127	38.12154
195.676	39.12476
196.225	39.10327
196.773	-2.00553
197.321	83.22998
197.87	109.27793
198.418	98.25204
198.966	141.36998
199.513	118.29732
200.061	89.22797
200.609	102.26915
201.156	138.30301
201.704	124.31411
202.251	136.36007
202.798	105.2744
203.345	104.25583
203.892	156.3908
204.438	32.0758
204.985	114.27181
205.532	113.29882
206.078	115.28085
206.624	163.40103
207.17	140.32147
207.716	153.37309
208.262	128.25163
208.808	145.36174
209.354	142.34814
209.899	154.39024
210.445	174.43463
210.99	139.33782
211.535	147.33937
212.08	121.28501
212.625	118.29508
213.17	108.2688
213.715	95.21355
214.259	167.38508
214.804	86.21288
215.348	168.38453
215.892	126.29961
216.436	179.40451
216.98	161.3518
217.524	116.27552
218.068	74.18344
218.612	68.1698
219.155	63.14961
219.698	87.20445
220.242	105.25758
220.785	141.32901
221.328	91.22612
221.871	37.09204
222.414	147.35632
222.956	81.19405
223.499	98.22178
224.041	94.21654
224.583	105.22302
225.126	117.25338
225.668	55.13347
226.21	115.28701
226.751	83.18136
227.293	87.19669
227.835	72.17535
228.376	71.1615
228.918	157.38869
229.459	112.27754
230	71.16789
230.541	91.20783
231.082	81.19405
231.622	90.20401
232.163	77.18665
232.704	96.2358
233.244	109.26729
233.784	83.20081
234.324	74.1607
234.864	78.17444
235.404	131.30748
235.944	143.33735
236.484	89.21622
237.023	81.19035
237.563	59.13594
238.102	119.27473
238.641	91.22793
239.18	117.27312
239.719	53.13117
240.258	60.13335
240.797	106.25186
241.335	97.2346
241.874	94.17729
242.412	99.23446
242.95	107.25673
243.488	89.19982
244.026	131.30207
244.564	148.29836
245.102	157.34668
245.64	70.1662
246.177	139.30771
246.715	115.26993
247.252	100.22631
247.789	200.35466
248.326	156.37023
248.863	99.21522
249.4	86.19122
249.936	156.31348
250.473	107.24653
251.009	120.27168
251.546	139.29974
252.082	137.29771
252.618	105.23244
253.154	121.28723
253.69	98.2179
254.226	175.40835
254.761	95.21048
255.297	59.12854
255.832	132.3111
256.367	145.33542
256.903	113.24388
257.438	130.3046
257.972	95.20767
258.507	126.29048
259.042	136.29509
259.576	113.24064
260.111	103.23353
260.645	110.23277
261.179	154.35404
261.713	166.3651
262.247	165.37683
262.781	164.34081
263.315	164.3964
263.849	100.24672
264.382	132.29751
264.915	158.36367
265.449	167.40449
265.982	182.40331
266.515	142.33947
267.048	25.0524
267.58	92.19664
268.113	104.22008
268.646	190.46011
269.178	206.45935
269.71	132.28226
270.243	95.21162
270.775	105.26281
271.307	133.31327
271.838	138.31904
272.37	152.37169
272.902	101.22666
273.433	132.28361
273.965	122.29133
274.496	138.33934
275.027	172.42091
275.558	149.35437
276.089	166.41165
276.62	167.42024
277.15	109.26531
277.681	82.1761
278.211	161.38703
278.741	156.34022
279.272	154.34823
279.802	177.43628
280.332	148.34351
280.861	115.27256
281.391	136.30352
281.921	150.35393
282.45	167.41057
282.98	137.3519
283.509	132.29605
284.038	121.26943
284.567	151.34346
285.096	191.45215
285.625	110.246
286.153	136.31579
286.682	172.38861
287.21	154.36309
287.739	95.22211
288.267	189.45001
288.795	166.43092
289.323	136.31304
289.851	111.25493
290.378	175.38708
290.906	202.48585
291.433	149.36442
291.961	163.36234
292.488	199.48344
293.015	167.38308
293.542	141.34985
294.069	169.41072
294.596	143.34806
295.122	126.29349
295.649	154.33258
296.175	189.4469
296.702	136.31965
297.228	195.4659
297.754	125.27129
298.28	194.4342
298.806	114.2715
299.332	211.46728
299.857	190.4249
300.383	140.34426
300.908	146.35197
301.433	195.46644
301.958	218.49093
302.483	200.48924
303.008	164.39954
303.533	164.41735
304.058	99.22919
304.582	158.36701
305.107	156.40091
305.631	130.28845
306.155	165.37986
306.679	221.51283
307.203	163.37001
307.727	153.35505
308.251	154.37167
308.775	155.36438
309.298	144.33938
309.822	224.55018
310.345	224.52154
310.868	229.53728
311.391	157.37641
311.914	161.39961
312.437	178.39478
312.96	147.34059
313.482	199.46142
314.005	193.47588
314.527	189.48783
315.049	213.52229
315.571	219.47792
316.093	192.46075
316.615	185.44083
317.137	203.43492
317.659	179.42751
318.18	234.54718
318.702	237.53295
319.223	267.52699
319.744	233.50954
320.265	254.60348
320.786	271.65042
321.307	208.50388
321.828	244.53348
322.348	202.46086
322.869	268.61166
323.389	521.88595
323.909	269.59025
324.43	184.42842
324.95	316.70227
325.47	285.67986
325.989	269.61407
326.509	244.52604
327.029	269.58677
327.548	295.65029
328.067	281.65411
328.587	272.65121
329.106	271.59289
329.625	288.71308
330.144	235.52564
330.662	323.73078
331.181	259.57812
331.7	241.54305
332.218	317.65478
332.736	348.77048
333.255	283.6322
333.773	342.77706
334.291	353.83557
334.808	326.69707
335.326	360.77076
335.844	362.80882
336.361	369.89498
336.879	319.70467
337.396	379.87313
337.913	417.91302
338.43	342.72716
338.947	322.7251
339.464	349.72249
339.981	344.7816
340.497	415.96746
341.014	412.94743
341.53	366.77785
342.046	387.90221
342.562	403.93913
343.078	446.97506
343.594	405.90879
344.11	440.98467
344.626	391.92442
345.141	375.80582
345.657	445.93357
346.172	424.95747
346.687	394.85557
347.202	427.88316
347.717	512.13997
348.232	455.04689
348.747	486.03228
349.261	445.90513
349.776	448.9815
350.29	499.15379
350.805	527.18819
351.319	524.11992
351.833	419.88369
352.347	506.10331
352.861	506.07484
353.374	465.97639
353.888	519.152
354.401	501.05472
354.915	480.98854
355.428	513.17493
355.941	509.08804
356.454	507.03553
356.967	485.04649
357.48	552.1605
357.993	542.20189
358.505	541.2198
359.018	506.12148
359.53	618.35359
360.042	564.13835
360.554	558.21379
361.066	537.19844
361.578	622.21597
362.09	569.21808
362.602	541.0861
363.113	568.19314
363.625	593.18904
364.136	609.18404
364.647	588.25963
365.158	647.35486
365.669	605.29359
366.18	642.36007
366.691	669.31264
367.201	621.31352
367.712	638.29504
368.222	654.31125
368.733	671.29055
369.243	760.46378
369.753	661.3537
370.263	691.44711
370.773	697.50338
371.282	632.32078
371.792	770.53565
372.301	715.5238
372.811	703.63181
373.32	779.43975
373.829	784.59544
374.338	773.4885
374.847	885.72573
375.356	897.81117
375.865	925.66001
376.373	962.83225
376.882	875.8578
377.39	969.93795
377.898	990.02625
378.407	1076.92532
378.915	1089.88139
379.423	1169.18352
379.93	1192.09631
380.438	1183.25095
380.946	1323.33076
381.453	1334.41896
381.96	1341.41763
382.468	1446.45595
382.975	1485.59197
383.482	1620.44942
383.989	1638.96976
384.495	1768.63688
385.002	1786.35018
385.509	1909.8598
386.015	1962.22656
386.521	2080.70239
387.028	2256.85934
387.534	2322.64416
388.04	2270.97883
388.546	2522.85732
389.051	2530.7145
389.557	2702.06984
390.063	2877.80758
390.568	3103.0876
391.073	3105.70454
391.578	3282.22973
392.084	3413.76524
392.589	3499.34991
393.093	3774.78812
393.598	4160.34192
394.103	4642.43574
394.607	4970.14369
395.112	5327.1275
395.616	5678.77485
396.12	6096.26326
396.624	6741.30516
397.128	7212.47835
397.632	8263.21006
398.136	8785.94201
398.639	9238.88522
399.143	10401.16461
399.646	11702.4837
400.15	12889.29128
400.653	14330.63398
401.156	15967.10787
401.659	18691.61762
402.162	22820.80576
402.664	29810.17989
403.167	41935.72134
403.67	57683.75432
404.172	52566.9044
404.674	31176.06428
405.176	3757.7064
405.678	27.69154
406.18	0
406.682	0
407.184	45159.96023
407.686	58897.86778
408.187	61455.21265
408.688	62150.63916
409.19	53694.45639
409.691	42842.21233
410.192	36304.66374
410.693	31606.50057
411.194	28630.30262
411.694	27236.52595
412.195	25000.6585
412.696	22493.04879
413.196	21177.98444
413.696	20801.87484
414.196	21023.10594
414.696	20356.94548
415.196	19603.42676
415.696	17805.27147
416.196	14303.09221
416.695	10906.44582
417.195	9525.57168
417.694	8926.25853
418.194	8479.3495
418.693	7817.61878
419.192	7634.57546
419.691	7535.50486
420.19	7282.53836
420.688	7334.63209
421.187	6913.82642
421.685	6278.29409
422.184	5780.50668
422.682	5023.47437
423.18	4210.3925
423.678	3817.59226
424.176	3462.64012
424.674	3257.55962
425.172	3122.96974
425.669	2982.36362
426.167	2753.89209
426.664	2520.84865
427.161	2327.8627
427.659	2122.98116
428.156	2038.40045
428.652	1844.02727
429.149	1788.83274
429.646	1758.42626
430.143	1635.65613
430.639	1544.50359
431.135	1487.63601
431.632	1396.26185
432.128	1275.25281
432.624	1212.39017
433.12	1150.97507
433.616	1102.789
434.111	1063.95708
434.607	1074.00706
435.103	1069.69302
435.598	930.44881
436.093	977.79663
436.588	912.60859
437.083	809.45809
437.578	790.49251
438.073	731.54782
438.568	712.45401
439.062	697.23467
439.557	702.38884
440.051	639.23775
440.546	712.39682
441.04	623.29188
441.534	611.34246
442.028	596.20801
442.522	601.23787
443.015	624.15594
443.509	573.21133
444.002	596.25205
444.496	585.10974
444.989	541.15306
445.482	487.08131
445.975	539.0746
446.468	522.97789
446.961	495.92158
447.454	469.94308
447.947	414.86912
448.439	462.99253
448.931	489.96518
449.424	455.00386
449.916	421.89531
450.408	384.76878
450.9	417.91109
451.392	389.87612
451.884	336.6811
452.375	348.77626
452.867	379.75298
453.358	313.64652
453.849	363.68721
454.341	394.79063
454.832	369.6996
455.323	355.78188
455.814	357.73706
456.304	334.68881
456.795	309.63654
457.285	327.64784
457.776	341.68443
458.266	342.72811
458.756	390.84508
459.247	314.67548
459.737	308.66286
460.226	338.69267
460.716	310.66258
461.206	278.60602
461.695	265.60347
462.185	323.68692
462.674	267.55819
463.163	339.67948
463.653	272.51455
464.142	239.52487
464.63	263.58195
465.119	345.72923
465.608	316.65637
466.096	237.47767
466.585	224.46674
467.073	222.48846
467.561	225.50016
468.05	284.60911
468.538	148.33644
469.026	219.48682
469.513	215.43074
470.001	224.47836
470.489	221.48412
470.976	221.47021
471.463	192.43734
471.951	177.40976
472.438	194.42471
472.925	231.50474
473.412	203.46379
473.899	181.3836
474.385	136.31091
474.872	230.50479
475.359	138.31688
475.845	154.29789
476.331	160.32701
476.817	163.37196
477.303	207.45345
477.789	165.37424
478.275	103.24469
478.761	175.39273
479.247	159.33079
479.732	141.33289
480.218	134.33108
480.703	158.37223
481.188	152.30445
481.673	100.21689
482.158	126.25822
482.643	122.29222
483.128	75.16263
483.612	145.32099
484.097	103.23751
484.581	112.24343
485.066	55.12632
485.55	51.10624
486.034	105.21562
486.518	116.25931
487.002	93.22059
487.486	118.27378
487.969	79.18637
488.453	91.22067
488.936	114.24673
489.42	56.11752
489.903	136.32612
490.386	68.14874
490.869	40.08375
491.352	110.25754
491.835	126.24384
492.318	54.11792
492.8	42.08315
493.283	60.14645
493.765	78.18476
494.247	16.03565
494.73	60.1268
495.212	-8.01846
495.694	71.15973
496.175	38.08813
496.657	48.1081
497.139	18.02963
497.62	4.00925
498.102	66.15773
498.583	39.09393
499.064	70.1502
499.545	67.14745
500.026	74.1592
500.507	39.0867
500.988	28.06638
501.469	34.08314
501.949	42.09987
502.43	70.16164
502.91	40.07941
503.39	-14.03379
503.87	61.13903
504.35	-21.04701
504.83	64.13555
505.31	38.08841
505.79	1.00233
506.269	-9.02024
506.749	49.10897
507.228	6.01363
507.707	54.11487
508.187	24.05447
508.666	81.19094
509.145	-2.00448
509.623	43.0965
510.102	25.05742
510.581	53.12095
511.059	22.053
511.538	18.04412
512.016	13.02941
512.494	128.29309
512.972	30.06806
513.45	63.14208
513.928	20.04655
514.406	24.05595
514.884	40.09814
515.361	45.1019
515.839	119.25859
516.316	74.16945
516.793	101.24197
517.27	83.18956
517.747	107.26238
518.224	51.11158
518.701	73.15343
519.178	78.18362
519.654	51.11408
520.131	55.12955
520.607	85.19889
521.083	50.10858
521.56	95.21294
522.036	48.10002
522.512	86.19938
522.987	80.18186
523.463	62.13951
523.939	32.0746
524.414	56.12099
524.89	72.16341
525.365	34.0727
525.84	7.01614
526.315	27.06216
526.79	51.10804
527.265	19.04118
527.74	15.03532
528.215	5.01125
528.689	-21.04418
529.164	57.11552
529.638	32.07886
530.112	-9.02055
530.587	-5.0103
531.061	-27.06233
531.534	-20.04637
532.008	-73.17101
532.482	5.01091
532.956	-63.15598
533.429	-23.05344
533.903	-49.10371
534.376	-98.20992
534.849	-71.15842
535.322	-75.17011
535.795	-48.11128
536.268	-15.03482
536.741	-61.14105
537.213	-101.22489
537.686	-41.0962
538.158	-35.07641
538.631	-78.18248
539.103	-64.13958
539.575	-85.16848
540.047	-110.23206
540.519	-71.16111
540.991	-35.0819
541.463	-28.06579
541.934	-113.25088
542.406	-124.28713
542.877	22.04839
543.348	-133.31108
543.82	-83.19733
544.291	-53.11982
544.762	-113.25953
545.233	-64.15522
545.703	-88.18907
546.174	-43.09674
546.645	4.00931
547.115	-10.02333
547.585	-46.10249
548.056	-35.08225
548.526	-50.11486
548.996	-12.02756
549.466	19.04458
549.935	24.05485
550.405	-32.06792
550.875	-38.08677
551.344	-28.06481
551.814	-5.01098
552.283	-6.01249
552.752	-12.02701
553.221	41.08644
553.69	50.10683
554.159	6.01427
554.628	18.03876
555.096	29.07064
555.565	-36.07675
556.033	-2.00449
556.502	-2.00462
556.97	-23.0486
557.438	-14.03155
557.906	-32.07153
558.374	22.04863
558.842	4.00911
559.31	-2.00421
559.777	43.10046
560.245	-22.04867
560.712	10.02199
561.18	37.07701
561.647	48.10277
562.114	41.08948
562.581	30.0704
563.048	17.03678
563.514	-1.00234
563.981	39.08392
564.448	131.28018
564.914	53.11576
565.381	80.16981
565.847	75.16374
566.313	83.17952
566.779	107.22489
567.245	90.19811
567.711	118.2677
568.176	109.22586
568.642	143.33473
569.108	137.31364
569.573	126.27141
570.038	90.17451
570.504	192.3949
570.969	187.4336
571.434	167.33767
571.899	143.3118
572.363	182.38344
572.828	208.42819
573.293	136.28829
573.757	164.34324
574.222	208.42144
574.686	216.44747
575.15	151.33176
575.614	214.4455
576.078	240.51608
576.542	162.3368
577.006	253.51743
577.469	197.44028
577.933	152.31009
578.396	185.40321
578.86	134.28765
579.323	200.43692
579.786	131.25965
580.249	88.18589
580.712	182.41188
581.175	72.16593
581.637	108.22594
582.1	122.24187
582.563	75.14601
583.025	179.39857
583.487	105.19595
583.95	125.24985
584.412	139.26906
584.874	51.11375
585.336	97.21536
585.797	67.13522
586.259	56.12136
586.721	80.17433
587.182	23.04889
587.643	26.05461
588.105	60.13252
588.566	47.09098
589.027	3.00688
589.488	10.0212
589.949	50.11293
590.41	31.05719
590.87	41.08701
591.331	12.02399
591.791	-8.01737
592.252	6.01292
592.712	63.14115
593.172	18.03754
593.632	3.0061
594.092	59.12258
594.552	23.04567
595.011	11.02346
595.471	12.02456
595.931	54.11187
596.39	21.04701
596.849	-31.06774
597.308	48.09596
597.768	5.01199
598.227	86.19288
598.685	44.09384
599.144	75.16444
599.603	-12.02616
600.062	65.12739
600.52	90.18561
600.978	77.16761
601.437	58.12015
601.895	128.24807
602.353	69.1383
602.811	53.10677
603.269	112.24271
603.727	132.28861
604.184	186.38239
604.642	117.25771
605.099	171.35639
605.557	212.45901
606.014	212.40634
606.471	223.50065
606.928	242.46676
607.385	256.57201
607.842	230.46431
608.299	286.57868
608.755	333.7051
609.212	317.61628
609.668	305.59153
610.125	325.68636
610.581	358.72801
611.037	358.69284
611.493	370.75104
611.949	418.87403
612.405	420.70583
612.861	423.83843
613.316	368.75551
613.772	378.74521
614.227	397.80787
614.683	434.77731
615.138	354.72283
615.593	499.99694
616.048	422.82061
616.503	410.87135
616.958	438.95757
617.412	449.92242
617.867	355.67864
618.321	451.76727
618.776	377.70848
619.23	449.90079
619.684	364.6913
620.138	440.84706
620.592	428.89098
621.046	374.7557
621.5	421.88829
621.954	330.62947
622.407	393.73928
622.861	423.8976
623.314	319.61189
623.768	363.73162
624.221	414.70373
624.674	337.66953
625.127	327.66664
625.58	307.60025
626.033	276.52646
626.485	354.74645
626.938	334.70026
627.39	254.52147
627.843	265.53705
628.295	330.66832
628.747	281.58537
629.199	291.58003
629.651	249.5104
630.103	246.50619
630.555	257.47915
631.006	202.42801
631.458	277.5873
631.909	210.41829
632.361	179.37621
632.812	205.43256
633.263	178.34381
633.714	187.35816
634.165	192.41926
634.616	221.47533
635.067	246.48497
635.518	204.43471
635.968	230.40552
636.419	169.32902
636.869	160.34672
637.319	191.40019
637.769	143.29392
638.219	179.38367
638.669	204.4466
639.119	180.40237
639.569	273.59979
640.019	205.4242
640.468	258.52035
640.918	223.4885
641.367	148.30028
641.816	206.41433
642.265	227.47688
642.714	232.48061
643.163	231.48143
643.612	233.52288
644.061	255.49621
644.51	255.53192
644.958	222.4426
645.406	183.40122
645.855	256.5635
646.303	258.53854
646.751	249.50971
647.199	249.51179
647.647	276.57662
648.095	314.64785
648.543	258.46419
648.99	279.60807
649.438	274.5732
649.885	239.54361
650.333	284.47957
650.78	265.58417
651.227	265.58197
651.674	298.61042
652.121	261.57897
652.568	256.56776
653.015	246.55897
653.461	264.57867
653.908	269.56262
654.354	218.46878
654.801	259.56257
655.247	231.45958
655.693	249.60285
656.139	282.62281
656.585	169.37131
657.031	167.36398
657.477	236.46635
657.922	232.4905
658.368	154.35093
658.813	204.43489
659.259	200.44394
659.704	234.50535
660.149	173.37514
660.594	188.40983
661.039	178.37798
661.484	145.31804
661.929	217.47114
662.373	180.42817
662.818	131.30123
663.262	175.39773
663.707	147.35458
664.151	136.30928
664.595	177.40244
665.039	119.27539
665.483	139.33414
665.927	141.31227
666.371	163.36069
666.814	164.36312
667.258	160.35929
667.701	143.28317
668.145	128.29839
668.588	122.28395
669.031	151.33901
669.474	98.22449
669.917	152.31362
670.36	92.21792
670.803	122.2752
671.245	67.13087
671.688	127.29472
672.13	98.21019
672.573	92.22112
673.015	119.26991
673.457	176.36036
673.899	132.29885
674.341	70.16248
674.783	126.28944
675.225	76.17815
675.666	91.20942
676.108	145.30045
676.549	125.28214
676.991	96.2019
677.432	112.21374
677.873	122.26754
678.314	121.27512
678.755	106.24564
679.196	121.2654
679.637	128.29615
680.078	33.07296
680.518	86.18995
680.959	83.18963
681.399	165.3894
681.839	88.20498
682.28	126.29984
682.72	68.14956
683.16	120.28633
683.6	98.21146
684.039	89.17401
684.479	48.1141
684.919	55.12455
685.358	51.12274
685.798	110.27993
686.237	72.1652
686.676	11.02389
687.115	93.21025
687.554	81.18484
687.993	61.12894
688.432	46.10058
688.871	97.21043
689.309	80.18422
689.748	64.12469
690.186	81.18402
690.625	70.159
691.063	63.14365
691.501	48.11304
691.939	78.18726
692.377	68.16045
692.815	88.20434
693.253	3.00692
693.69	4.00845
694.128	56.13008
694.565	86.19851
695.003	61.14986
695.44	50.11408
695.877	56.12622
696.314	0
696.751	133.28852
697.188	73.16194
697.625	37.08003
698.061	25.05854
698.498	76.17647
698.934	72.1656
699.371	37.08433
699.807	3.00684
700.243	86.19882
700.679	36.07795
701.115	46.10232
701.551	58.13073
701.987	52.10994
702.422	94.21637
702.858	32.07342
703.294	115.24703
703.729	71.16672
704.164	31.07242
704.599	35.07463
705.035	85.18314
705.47	66.15513
705.904	41.09239
706.339	40.08857
706.774	68.15258
707.209	32.07162
707.643	93.21513
708.078	109.25774
708.512	57.14035
708.946	53.12246
709.38	61.13836
709.814	11.02396
710.248	63.14891
710.682	-11.02546
711.116	113.26441
711.549	20.05005
711.983	-7.01571
712.416	37.08379
712.85	14.03343
713.283	24.0548
713.716	61.14592
714.149	34.07713
714.582	7.01498
715.015	97.23318
715.448	64.15318
715.881	32.06605
716.313	32.07171
716.746	25.05691
717.178	29.06719
717.61	36.08767
718.043	47.11256
718.475	59.13843
718.907	92.22045
719.339	33.0729
719.77	27.06191
720.202	66.16194
720.634	11.0262
721.065	17.03875
721.497	35.08177
721.928	31.07427
722.359	-1.00237
722.79	51.11891
723.221	62.15099
723.652	7.01739
724.083	36.07875
724.514	96.21177
724.945	6.01385
725.375	93.21043
725.806	20.04798
726.236	57.14148
726.666	31.07086
727.096	35.08244
727.526	36.08875
727.956	-28.06145
728.386	49.11564
728.816	75.18501
729.246	41.09609
729.675	55.13086
730.105	46.10825
730.534	20.04447
730.964	40.09709
731.393	70.16645
731.822	3.00738
732.251	39.09603
732.68	53.11899
733.109	34.08104
733.537	47.11019
733.966	28.06714
734.395	15.03307
734.823	64.13543
735.251	34.07945
735.68	50.11858
736.108	18.04446
736.536	25.05604
736.964	36.08058
737.392	46.11144
737.82	46.10656
738.247	4.00913
738.675	18.04052
739.102	4.00968
739.53	39.09617
739.957	-26.06478
740.384	55.12834
740.811	15.03639
741.238	14.03287
741.665	43.0967
742.092	10.02254
742.519	2.00483
742.945	34.07885
743.372	3.00717
743.798	31.07714
744.225	86.19756
744.651	7.01683
745.077	13.03156
745.503	16.03728
745.929	50.11454
746.355	24.05621
746.781	33.07867
747.207	50.11352
747.632	-5.01188
748.058	-24.0574
748.483	12.02622
748.908	48.11598
749.334	20.04725
749.759	8.01804
750.184	-15.03493
750.609	6.01425
751.033	44.09808
751.458	42.08872
751.883	87.20716
752.307	-22.05034
752.732	50.1225
753.156	37.08847
753.58	-37.08382
754.005	-10.02442
754.429	5.01127
754.853	-1.00239
755.277	60.13529
755.7	1.00238
756.124	24.05799
756.548	11.02524
756.971	13.03026
757.394	41.10307
757.818	81.20369
758.241	7.01716
758.664	31.07644
759.087	17.03688
759.51	14.0332
759.933	14.03278
760.356	75.18603
760.778	20.04756
761.201	43.10026
761.623	88.20434
762.046	38.08519
762.468	-19.04318
762.89	38.09047
763.312	0
763.734	44.10201
764.156	28.06699
764.578	24.05314
765	23.05352
765.421	-12.03004
765.843	21.05315
766.264	27.06196
766.686	53.12813
767.107	15.03481
767.528	-25.06194
767.949	29.07146
768.37	64.1506
768.791	9.02102
769.212	6.0147
769.632	10.02256
770.053	-11.02832
770.473	11.02565
770.894	54.13028
771.314	5.01117
771.734	6.01341
772.154	22.0545
772.575	-4.00887
772.994	30.06609
773.414	57.13055
773.834	22.05274
774.254	-15.03507
774.673	56.13065
775.093	68.16381
775.512	-16.03787
775.931	-19.04639
776.351	12.02874
776.77	58.13792
777.189	14.03224
777.607	15.03696
778.026	29.06998
778.445	11.02685
778.864	57.13957
779.282	19.04418
779.701	-6.01468
780.119	-3.0073
780.537	42.10179
780.955	-8.01964
781.373	-29.06932
781.791	0
782.209	24.05174
782.627	20.0511
783.045	79.17277
783.462	39.09546
783.88	-19.04804
784.297	17.04143
784.715	48.11969
785.132	34.07926
785.549	24.05819
785.966	27.06533
786.383	18.04293
786.8	-17.03776
787.217	-5.01138
787.633	43.10431
788.05	-23.05077
788.466	36.08034
788.883	29.07246
789.299	3.00701
789.715	25.05836
790.131	-13.03112
790.547	-15.03614
790.963	54.12934
791.379	56.1372
791.795	22.04727
792.21	8.0179
792.626	1.00228
793.041	48.11449
793.457	33.07806
793.872	45.10199
794.287	37.0861
794.702	26.06125
795.117	26.06275
795.532	3.00732
795.947	-10.02249
796.362	-9.02041
796.776	12.02627
797.191	-25.05918
797.605	-8.01836
798.02	32.07439
798.434	-9.01878
798.848	54.12826
799.262	27.06513
799.676	-18.04135
800.09	22.05171
800.504	29.06698
800.918	2.00444
801.331	11.02767
801.745	-25.05497
802.158	-23.05565
802.572	14.03226
802.985	33.07485
803.398	8.01829
803.811	8.01974
804.224	7.01655
804.637	-42.09826
805.05	-42.093
805.462	46.10791
805.875	15.03792
806.288	-1.00232
806.7	-7.01695
807.112	20.04423
807.525	-50.1178
807.937	48.11581
808.349	17.04082
808.761	18.04272
809.173	22.05092
809.584	-15.03541
809.996	64.15131
810.408	5.0126
810.819	17.03837
811.231	15.03848
811.642	66.15634
812.053	77.17869
812.464	81.18752
812.875	-8.0196
813.286	-3.0075
813.697	19.04117
814.108	15.03514
814.519	-6.01261
814.929	107.26024
815.34	-39.09151
815.75	31.07624
816.16	-11.02624
816.571	23.05755
816.981	4.00902
817.391	55.12708
817.801	6.01444
818.211	-5.01133
818.62	-43.09935
819.03	5.01178
819.44	3.00751
819.849	48.11655
820.259	8.01961
820.668	-34.0801
821.077	40.09548
821.486	9.02061
821.895	54.12687
822.304	-27.0694
822.713	-1.00226
823.122	17.04076
823.531	-4.00901
823.939	-22.05141
824.348	75.17432
824.756	3.00718
825.164	30.07191
825.573	4.00969
825.981	27.06446
826.389	-11.02626
826.797	-13.03132
827.205	32.07047
827.612	31.07285
828.02	1.00228
828.428	9.02209
828.835	14.03557
829.243	9.02035
829.65	29.0695
830.057	29.06738
830.464	46.10816
830.871	-4.009
831.278	3.00693
831.685	14.0295
832.092	9.02126
832.499	-15.03089
832.905	6.01442
833.312	-70.15195
833.718	46.10985
834.124	18.03942
834.531	1.00241
834.937	-29.07135
835.343	-41.09398
835.749	-15.03294
836.155	-34.08607
836.561	22.05219
836.966	-2.00462
837.372	-24.05897
837.777	34.08178
838.183	9.01874
838.588	39.0939
838.993	8.01861
839.399	-29.06842
839.804	-28.06656
840.209	-38.09293
840.613	-3.00627
841.018	-44.10728
841.423	-40.09862
841.828	1.00246
842.232	10.02366
842.637	15.03391
843.041	-39.09751
843.445	35.08516
843.849	-14.03364
844.253	15.03402
844.657	27.06582
845.061	18.03841
845.465	12.02752
845.869	-19.04232
846.272	15.03535
846.676	56.12813
847.079	-1.00246
847.483	-33.07809
847.886	-17.03886
848.289	20.05167
848.692	46.11174
849.095	46.10546
849.498	-47.11294
849.901	34.07403
850.304	33.07433
850.707	-28.06865
851.109	16.03846
851.512	-22.05179
851.914	11.02716
852.316	-28.06817
852.718	-45.1143
853.121	-32.07551
853.523	-2.00443
853.925	46.11727
854.326	1.00241
854.728	-12.03007
855.13	11.02773
855.531	19.04376
855.933	40.09126
856.334	-44.10603
856.736	5.01076
857.137	62.13705
857.538	50.12127
857.939	15.03555
858.34	29.06711
858.741	0
859.142	-1.0023
859.542	-2.00513
859.943	30.0715
860.343	-32.07659
860.744	64.14867
861.144	58.13563
861.544	15.03525
861.945	-1.00247
862.345	24.0559
862.745	28.06681
863.145	-30.06706
863.544	9.02179
863.944	-2.0045
864.344	30.07136
864.743	37.08668
865.143	25.06135
865.542	3.00662
865.941	25.0587
866.34	-16.03634
866.74	-27.06981
867.139	68.15702
867.537	6.01461
867.936	12.02736
868.335	31.07571
868.734	10.02466
869.132	-42.09249
869.531	9.02075
869.929	5.01093
870.327	35.08035
870.726	-8.01883
871.124	-33.0726
871.522	0
871.92	-23.05356
872.318	0
872.715	35.08196
873.113	21.04871
873.511	-7.01687
873.908	-12.02965
874.306	-3.00719
874.703	-19.04541
875.1	5.01219
875.497	38.08628
875.894	-1.00236
876.291	-11.02575
876.688	2.00503
877.085	0
877.482	3.00716
877.878	41.09432
878.275	-24.0588
878.671	1.00208
879.068	28.06414
879.464	-30.0693
879.86	69.15689
880.256	-34.0797
880.652	-9.0222
881.048	14.03305
881.444	1.00225
881.84	25.06106
882.236	22.05282
882.631	-32.07477
883.027	24.05449
883.422	4.00993
883.817	0
884.213	17.04173
884.608	-8.01898
885.003	-11.02531
885.398	-2.00482
885.793	-3.00728
886.188	1.00241
886.582	16.03881
886.977	32.07133
887.371	52.12503
887.766	-25.06053
888.16	24.05689
888.554	15.03485
888.949	-26.06211
889.343	6.01384
889.737	-4.01046
890.131	15.036
890.525	-8.01964
890.918	-5.01212
891.312	1.00228
891.706	31.07815
892.099	-1.00242
892.492	29.05799
892.886	16.03765
893.279	2.0049
893.672	17.04122
894.065	-12.02835
894.458	-4.00969
894.851	-15.03442
895.244	-7.01723
895.637	37.0846
896.029	15.03532
896.422	8.0185
896.814	27.06454
897.206	19.0431
897.599	24.05564
897.991	11.02522
898.383	15.03357
898.775	36.07688
899.167	5.01127
899.559	27.06515
899.951	47.10396
900.342	2.00488
900.734	-11.02641
901.125	-8.01999
901.517	12.02806
901.908	-31.07066
902.299	-30.07101
902.69	-5.01123
903.082	-10.02286
903.473	15.03453
903.863	-23.05651
904.254	0
904.645	-24.05626
905.036	15.03513
905.426	9.0193
905.817	-53.12489
906.207	9.02078
906.597	-17.03809
906.987	20.04978
907.378	-3.00724
907.768	-28.07146
908.158	-22.0511
908.547	-48.11847
908.937	15.03682
909.327	-3.00687
909.717	-17.04056
910.106	-11.02484
910.495	-18.04295
910.885	-4.00969
911.274	8.01906
911.663	-2.00485
912.052	-30.06972
912.441	-33.08071
912.83	78.17033
913.219	22.05476
913.608	5.01157
913.997	-9.02184
914.385	30.06715
914.774	34.0791
915.162	-14.03202
915.55	-49.11146
915.939	-42.10355
916.327	38.09053
916.715	26.06481
917.103	-1.0023
917.491	-8.01862
917.878	13.03043
918.266	-23.05719
918.654	11.02704
919.041	-21.05328
919.429	19.04264
919.816	44.10636
920.203	-33.07646
920.591	58.13834
920.978	22.05129
921.365	-65.16428
921.752	-23.05185
922.139	29.0585
922.525	25.05795
922.912	25.0582
923.299	41.09729
923.685	17.04266
924.072	13.02783
924.458	0
924.844	13.03069
925.231	35.07709
925.617	-6.01485
926.003	-6.01466
926.389	-14.03387
926.774	17.04105
927.16	31.07291
927.546	20.04963
927.931	-31.07325
928.317	20.04279
928.702	5.01111
929.088	-30.06784
929.473	38.09258
929.858	24.05615
930.243	-3.00689
930.628	12.02788
931.013	58.13845
931.398	20.0429
931.783	3.00757
932.167	-39.09047
932.552	-16.0385
932.937	-29.06804
933.321	-18.04339
933.705	7.01706
934.09	-16.03835
934.474	-6.01342
934.858	27.0677
935.242	15.03355
935.626	21.05136
936.009	7.01813
936.393	9.02194
936.777	17.04214
937.16	2.005
937.544	-47.10444
937.927	-15.03661
938.311	-23.05238
938.694	21.05317
939.077	-5.01142
939.46	14.03235
939.843	13.02497
940.226	-18.04449
940.609	-2.00432
940.991	27.06601
941.374	5.01178
941.757	-45.10558
942.139	13.02772
942.522	3.00669
942.904	82.18829
943.286	-18.04326
943.668	1.00249
944.05	2.00473
944.432	-34.08079
944.814	42.09876
945.196	37.08725
945.578	-1.00228
945.959	-1.00225
946.341	7.01606
946.722	-8.01774
947.104	27.06142
947.485	38.084
947.866	-42.10187
948.247	3.00724
948.628	36.0829
949.009	16.03959
949.39	-2.00475
949.771	-29.06321
950.152	32.07463
950.532	12.02885
950.913	28.06414
951.293	-20.0526
951.674	-5.01144
952.054	9.0215
952.434	-2.00473
952.814	35.07848
953.194	-33.08233
953.574	-22.05094
953.954	21.0474
954.334	-7.01657
954.714	11.0257
955.093	5.01166
955.473	25.05978
955.853	47.11687
956.232	6.01598
956.611	28.06321
956.99	25.06078
957.37	11.02701
957.749	-9.02023
958.128	37.09006
958.506	-17.04244
958.885	33.08038
959.264	-36.08544
959.643	-58.12333
960.021	-8.01901
960.4	55.1186
960.778	-40.0935
961.156	2.00481
961.535	28.06244
961.913	2.00442
962.291	-32.07999
962.669	-24.05858
963.047	6.01472
963.424	-4.00981
963.802	1.00235
964.18	18.04285
964.557	-52.11095
964.935	25.05562
965.312	16.04004
965.69	76.17815
966.067	-11.02541
966.444	27.06315
966.821	20.04933
967.198	-11.02524
967.575	52.11993
967.952	31.06857
968.329	45.10468
968.705	-14.02833
969.082	65.16034
969.458	-17.0395
969.835	-4.00926
970.211	68.16832
970.587	55.13016
970.963	25.06144
971.339	-27.06834
971.715	-6.01426
972.091	47.11028
972.467	-10.02376
972.843	5.01195
973.219	-69.15549
973.594	5.01259
973.97	-8.01783
974.345	-7.01604
974.721	-22.04993
975.096	-23.05312
975.471	1.00225
975.846	8.0183
976.221	-26.06356
976.596	-33.07552
976.971	19.04449
977.346	-12.02653
977.72	9.02216
978.095	41.10166
978.469	17.03862
978.844	0
979.218	20.046
979.593	11.025
979.967	4.00925
980.341	21.04585
980.715	-12.02879
981.089	0
981.463	6.01319
981.837	13.03048
982.21	17.03645
982.584	-25.0582
982.957	-37.08955
983.331	-12.02671
983.704	27.06389
984.078	23.05445
984.451	-1.00234
984.824	-14.03273
985.197	-6.01379
985.57	40.09581
985.943	25.05889
986.316	16.03699
986.688	-3.00692
987.061	-31.06908
987.434	43.10739
987.806	-6.01378
988.179	24.05401
988.551	7.01692
988.923	31.07342
989.295	30.07115
989.667	11.02534
990.039	-10.02393
990.411	6.01317
990.783	-7.01518
991.155	-1.00233
991.527	-17.039
991.898	5.01193
992.27	2.00475
992.641	24.05692
993.012	37.08143
993.384	9.02039
993.755	-24.05895
994.126	34.07792
994.497	-28.06635
994.868	7.01512
995.239	-37.08505
995.61	-40.09687
995.98	25.05861
996.351	45.10744
996.722	10.02199
997.092	13.02958
997.462	56.12725
997.833	-32.07204
998.203	8.01827
998.573	67.15972
998.943	25.05562
999.313	58.13115
999.683	41.09473
1000.053	27.0585
1000.423	28.06499
1000.792	12.02967
1001.162	33.07812
1001.531	46.10618
1001.901	2.00478
1002.27	-18.03779
1002.639	8.01954
1003.009	43.09737
1003.378	4.0098
1003.747	63.14179
1004.116	1.00229
1004.485	63.14278
1004.853	6.01446
1005.222	3.0072
1005.591	-6.01339
1005.959	99.21449
1006.328	78.1678
1006.696	46.10736
1007.064	12.02875
1007.433	-19.04512
1007.801	44.10229
1008.169	26.06318
1008.537	14.02867
1008.905	65.14377
1009.273	30.06988
1009.64	-28.06412
1010.008	69.156
1010.375	-14.03105
1010.743	33.06979
1011.11	59.13317
1011.478	6.01414
1011.845	11.02449
1012.212	20.04253
1012.579	22.05137
1012.946	25.05571
1013.313	13.02921
1013.68	-22.04574
1014.047	6.01367
1014.414	40.09052
1014.78	42.0991
1015.147	32.07295
1015.513	58.13286
1015.88	14.03396
1016.246	28.06548
1016.612	29.06197
1016.978	-7.0163
1017.344	46.10669
1017.71	-34.07688
1018.076	63.13789
1018.442	42.10294
1018.808	8.01936
1019.174	19.04573
1019.539	30.06387
1019.905	92.2088
1020.27	6.01433
1020.636	-9.02025
1021.001	52.11878
1021.366	-5.01141
1021.731	7.01715
1022.096	18.04395
1022.461	-12.02711
1022.826	19.04308
1023.191	-2.00505
1023.556	41.09084
1023.92	19.0442
1024.285	14.0327
1024.649	0
1025.014	13.03044
1025.378	38.09119
1025.742	81.19139
1026.107	2.00422
1026.471	-10.02178
1026.835	83.19869
1027.199	11.02532
1027.562	27.05997
1027.926	16.03693
1028.29	-15.03624
1028.654	-13.02825
1029.017	2.00467
1029.381	29.06687
1029.744	43.10478
1030.107	19.04187
1030.471	55.12505
1030.834	-17.03688
1031.197	6.01341
1031.56	-1.00224
1031.923	-14.03493
1032.286	-25.05493
1032.648	3.00683
1033.011	70.15267
1033.374	-6.01305
1033.736	-23.05865
1034.099	-30.06991
1034.461	23.05644
1034.823	-38.09119
1035.185	11.02651
1035.548	-1.00232
1035.91	-4.00908
1036.272	31.0661
1036.634	2.0046
1036.995	-10.02228
1037.357	-23.05337
1037.719	1.00231
1038.08	32.07103
1038.442	42.09579
1038.803	64.14466
1039.165	17.04102
1039.526	9.02051
1039.887	32.07327
1040.248	19.04505
1040.609	-5.01178
1040.97	62.14482
1041.331	41.09909
1041.692	-25.0562
1042.053	22.04702
1042.413	49.10766
1042.774	28.06417
1043.134	14.03113
1043.495	20.04759
1043.855	-20.04593
1044.215	38.09015
1044.576	-2.0046
1044.936	-13.02801
1045.296	20.04699
1045.656	-58.13558
1046.016	-15.03438
1046.375	-4.0093
1046.735	38.08266
1047.095	14.03109
1047.454	-10.01943
1047.814	48.11057
1048.173	-20.04476
1048.533	1.00218
1048.892	42.09768
1049.251	64.15154
1049.61	-30.0704
1049.969	24.05343
1050.328	29.05829
1050.687	1.00233
1051.046	-11.02578
1051.405	5.01181
1051.763	2.00438
1052.122	29.06921
1052.48	-11.02609
1052.839	3.00668
1053.197	9.02006
1053.555	8.01697
1053.914	6.01391
1054.272	35.08026
1054.63	-36.08537
1054.988	26.0592
1055.345	32.06427
1055.703	37.0843
1056.061	12.0296
1056.419	39.09709
1056.776	11.02544
1057.134	-11.02432
1057.491	10.02404
1057.848	-28.06586
1058.206	-29.06388
1058.563	-18.03749
1058.92	42.09016
1059.277	-11.02582
1059.634	58.12794
1059.991	-42.09323
1060.348	42.09043
1060.704	6.01384
1061.061	29.06286
1061.418	18.04219
1061.774	-36.08551
1062.131	46.11797
1062.487	32.07139
1062.843	34.08104
1063.199	-16.03794
1063.555	20.04412
1063.911	33.07978
1064.267	-7.01351
1064.623	-21.04877
1064.979	-49.10784
1065.335	-33.07366
1065.691	-28.06277
1066.046	7.01452
1066.402	36.07821
1066.757	13.03126
1067.112	-18.04203
1067.468	-14.03193
1067.823	19.0436
1068.178	17.03875
1068.533	48.10996
1068.888	41.09152
1069.243	-16.03762
1069.598	7.01624
1069.952	22.04715
1070.307	5.01197
1070.662	1.00224
1071.016	17.03655
1071.371	43.09145
1071.725	-22.04912
1072.079	37.08546
1072.434	-41.09575
1072.788	27.06067
1073.142	18.04112
1073.496	-2.00449
1073.85	-7.01534
1074.203	-18.04133
1074.557	-27.0695
1074.911	10.02229
1075.265	23.05079
1075.618	24.05551
1075.971	45.10228
1076.325	16.03881
1076.678	-14.03062
1077.031	47.10009
1077.385	24.0491
1077.738	35.07502
1078.091	26.05644
1078.444	59.12832
1078.796	3.00709
1079.149	42.09991
1079.502	-26.05891
1079.855	9.01985
1080.207	-29.06815
1080.56	-19.04759
1080.912	-26.06025
1081.264	13.02958
1081.617	-16.03728
1081.969	-8.01951
1082.321	34.07935
1082.673	-37.08064
1083.025	-20.04471
1083.377	-39.0773
1083.728	24.05312
1084.08	7.01657
1084.432	-21.04875
1084.783	42.0916
1085.135	14.03374
1085.486	27.05892
1085.838	8.0188
1086.189	11.02551
1086.54	-32.07248
1086.891	7.01696
1087.242	-10.0231
1087.593	-17.03883
1087.944	69.14713
1088.295	13.02767
1088.646	-33.07564
1088.996	-7.01625
1089.347	17.03944
1089.698	0
1090.048	4.01001
1090.398	-39.08572
1090.749	51.11544
1091.099	53.1292
1091.449	19.04541
1091.799	0
1092.149	4.00946
1092.499	27.06278
1092.849	8.01954
1093.199	-13.03094
1093.548	24.05487
1093.898	35.08391
1094.248	-3.00736
1094.597	33.08251
1094.947	56.14337
1095.296	48.11366
1095.645	-46.11474
1095.994	-14.03157
1096.343	-13.03079
1096.692	-19.04824
1097.041	36.09589
1097.39	12.02882
1097.739	9.02241
1098.088	16.04057
1098.437	-14.03611
1098.785	63.16459
1099.134	-3.00758
1099.482	-18.04758
1099.83	57.14431
1100.179	29.0734
1100.527	27.06965
1100.875	36.0921
1101.223	13.03324
1101.571	16.04315
1101.919	-12.0308
1102.267	23.06343
1102.615	2.00643
1102.962	-1.00321
1103.31	5.01605
1103.658	4.01283
