Data from N3 R9 sample 12_Subt2__0__14-47-07-561.txt Node

Date: Mon Sep 22 14:47:07 PDT 2025
User: uwsun
Spectrometer: HDX01956
Trigger mode: 0
Integration Time (sec): 5.000000E-1
Scans to average: 1
Nonlinearity correction enabled: true
Boxcar width: 0
Storing dark spectrum: false
XAxis mode: Wavelengths
Number of Pixels in Spectrum: 2068
>>>>>Begin Spectral Data<<<<<
194.03	4.01163
194.578	2.0065
195.127	9.02889
195.676	7.02248
196.225	44.11642
196.773	-24.06664
197.321	40.11158
197.87	67.1721
198.418	57.14764
198.966	99.26163
199.513	62.15778
200.061	38.09821
200.609	59.15681
201.156	103.22782
201.704	92.23438
202.251	110.2925
202.798	96.25127
203.345	72.17816
203.892	64.16299
204.438	21.04985
204.985	85.20379
205.532	62.16536
206.078	69.16995
206.624	94.23421
207.17	94.21784
207.716	92.2269
208.262	72.14341
208.808	118.29583
209.354	141.34575
209.899	101.25835
210.445	113.28538
210.99	85.20867
211.535	40.09431
212.08	76.18058
212.625	79.19895
213.17	7.01774
213.715	64.14478
214.259	93.21761
214.804	89.22018
215.348	86.20009
215.892	53.1278
216.436	71.16398
216.98	94.20831
217.524	97.23123
218.068	62.15403
218.612	45.11284
219.155	70.16601
219.698	42.09957
220.242	35.08697
220.785	96.22599
221.328	58.14499
221.871	20.04991
222.414	39.09645
222.956	44.10616
223.499	88.19956
224.041	64.14831
224.583	129.27256
225.126	53.11635
225.668	58.14067
226.21	60.15123
226.751	-2.00445
227.293	75.16998
227.835	48.11742
228.376	36.08247
228.918	99.2477
229.459	56.14019
230	50.11871
230.541	59.13562
231.082	42.10137
231.622	46.10521
232.163	36.08794
232.704	76.18737
233.244	33.08206
233.784	53.12896
234.324	46.10049
234.864	48.10801
235.404	77.18264
235.944	83.19809
236.484	59.14414
237.023	50.11821
237.563	59.13594
238.102	86.19985
238.641	63.1586
239.18	68.16027
239.719	-4.01
240.258	52.11576
240.797	97.23088
241.335	91.22033
241.874	76.14398
242.412	36.0863
242.95	86.20717
243.488	77.1733
244.026	110.25471
244.564	87.17785
245.102	114.254
245.64	70.1662
246.177	89.19908
246.715	83.19604
247.252	75.1706
247.789	-4.00747
248.326	67.16174
248.863	46.10113
249.4	49.10979
249.936	59.12121
250.473	81.1876
251.009	46.10571
251.546	101.21957
252.082	110.24041
252.618	110.24326
253.154	69.16543
253.69	79.17634
254.226	33.07915
254.761	73.16248
255.297	48.10482
255.832	106.25109
256.367	56.13183
256.903	77.16747
257.438	121.28401
257.972	51.11252
258.507	108.24988
259.042	106.23147
259.576	75.16104
260.111	39.08957
260.645	91.19337
261.179	88.20498
261.713	94.20987
262.247	137.31465
262.781	89.18805
263.315	83.20368
263.849	58.1442
264.382	73.16652
264.915	72.16857
265.449	51.12622
265.982	90.20326
266.515	97.23389
267.048	-33.07006
267.58	66.14186
268.113	74.15762
268.646	102.2511
269.178	160.36017
269.71	90.1942
270.243	39.08788
270.775	81.20362
271.307	97.23008
271.838	121.28068
272.37	93.22991
272.902	78.17588
273.433	101.21845
273.965	71.1712
274.496	123.30329
275.027	131.32302
275.558	99.23772
276.089	82.20646
276.62	94.23964
277.15	99.24142
277.681	88.18875
278.211	116.28123
278.741	83.18382
279.272	120.27323
279.802	105.26224
280.332	68.16033
280.861	87.20731
281.391	36.082
281.921	78.18662
282.45	126.31212
282.98	74.19217
283.509	85.19248
284.038	60.13529
284.567	95.21854
285.096	113.27154
285.625	45.10199
286.153	107.24988
286.682	101.2315
287.21	101.24058
287.739	83.19452
288.267	87.2112
288.795	145.37777
289.323	77.17932
289.851	43.1001
290.378	88.19818
290.906	164.3973
291.433	84.20793
291.961	83.18757
292.488	110.27169
293.015	114.26429
293.542	68.17097
294.069	118.28952
294.596	100.24536
295.122	31.07356
295.649	125.27163
296.175	141.3365
296.702	93.22042
297.228	143.34506
297.754	22.04879
298.28	120.27268
298.806	75.17995
299.332	159.35594
299.857	154.34695
300.383	95.23554
300.908	108.26223
301.433	123.29826
301.958	149.34029
302.483	91.22711
303.008	151.36876
303.533	126.3228
304.058	85.19733
304.582	115.2694
305.107	82.21346
305.631	79.17715
306.155	75.17577
306.679	119.28172
307.203	87.20053
307.727	82.19296
308.251	87.21263
308.775	148.3484
309.298	109.25864
309.822	105.26357
310.345	115.27351
310.868	152.36199
311.391	101.24473
311.914	121.30253
312.437	93.20991
312.96	103.24072
313.482	154.36027
314.005	96.24093
314.527	131.34153
315.049	118.29444
315.571	113.25213
316.093	100.24417
316.615	126.30364
317.137	185.3979
317.659	164.39281
318.18	151.35885
318.702	118.27182
319.223	116.23708
319.744	168.37245
320.265	183.44074
320.786	184.44893
321.307	140.34349
321.828	166.36893
322.348	189.43233
322.869	166.38666
323.389	390.68661
323.909	143.32211
324.43	134.31508
324.95	235.53105
325.47	187.45446
325.989	197.45624
326.509	161.35328
327.029	182.40432
327.548	200.44966
328.067	180.42735
328.587	213.5157
329.106	203.4505
329.625	158.40052
330.144	191.4311
330.662	231.53243
331.181	199.4497
331.7	167.38201
332.218	195.41381
332.736	223.50661
333.255	217.49138
333.773	215.50108
334.291	247.59666
334.808	235.5124
335.326	259.56664
335.844	223.51256
336.361	263.6506
336.879	221.4982
337.396	269.63333
337.913	271.61165
338.43	258.5586
338.947	199.45941
339.464	283.59452
339.981	263.60739
340.497	249.59945
341.014	254.60255
341.53	230.5033
342.046	295.7002
342.562	277.66154
343.078	256.58216
343.594	284.65314
344.11	362.82316
344.626	258.6257
345.141	278.60987
345.657	316.68183
346.172	286.66404
346.687	288.63952
347.202	279.59619
347.717	356.81967
348.232	274.6545
348.747	316.69731
349.261	316.66164
349.776	327.7347
350.29	371.88122
350.805	337.79061
351.319	336.74857
351.833	293.63505
352.347	391.87486
352.861	316.70023
353.374	346.74559
353.888	336.77548
354.401	345.75253
354.915	343.72818
355.428	368.86888
355.941	376.8283
356.454	376.79214
356.967	310.69523
357.48	432.93368
357.993	340.78689
358.505	365.85395
359.018	390.88681
359.53	410.93869
360.042	383.80635
360.554	326.74521
361.066	405.93003
361.578	458.93136
362.09	389.86644
362.602	396.8229
363.113	429.93017
363.625	400.83899
364.136	401.81936
364.647	455.00218
365.158	482.04556
365.669	418.93121
366.18	476.04436
366.691	495.01051
367.201	440.96885
367.712	488.02392
368.222	436.91933
368.733	466.94158
369.243	500.02236
369.753	511.08147
370.263	512.11405
370.773	416.95242
371.282	490.05571
371.792	499.05695
372.301	546.20575
372.811	521.25224
373.32	574.11454
373.829	542.16295
374.338	588.18199
374.847	586.22289
375.356	627.34358
375.865	695.32011
376.373	684.38981
376.882	640.42772
377.39	733.5453
377.898	729.58052
378.407	742.4407
378.915	800.48711
379.423	838.69309
379.93	842.61576
380.438	916.85591
380.946	961.85202
381.453	984.94216
381.96	1054.03734
382.468	1083.01647
382.975	1177.21792
383.482	1228.06929
383.989	1242.47449
384.495	1260.16132
385.002	1309.99176
385.509	1439.45247
386.015	1521.00282
386.521	1596.40132
387.028	1630.49671
387.534	1684.35942
388.04	1707.6473
388.546	1884.62342
389.051	1901.51906
389.557	2055.87139
390.063	2163.70691
390.568	2252.98155
391.073	2277.6851
391.578	2449.18556
392.084	2477.84156
392.589	2587.53514
393.093	2888.99847
393.598	3096.74686
394.103	3535.95554
394.607	3731.78661
395.112	3981.85297
395.616	4265.53632
396.12	4601.96427
396.624	5072.83947
397.128	5598.69146
397.632	6259.37012
398.136	6795.09474
398.639	7225.35205
399.143	7887.9482
399.646	9104.59034
400.15	10138.57144
400.653	11038.4511
401.156	12649.3268
401.659	14714.41823
402.162	18028.75032
402.664	24227.66357
403.167	34513.79884
403.67	56869.5389
404.172	52566.9044
404.674	31176.06428
405.176	3757.7064
405.678	27.69154
406.18	0
406.682	0
407.184	45159.96023
407.686	58897.86778
408.187	61455.21265
408.688	60411.20308
409.19	41804.75239
409.691	33318.40272
410.192	28310.54395
410.693	24329.32029
411.194	21841.28898
411.694	20668.48423
412.195	19006.05174
412.696	17241.70755
413.196	15951.5982
413.696	15433.14556
414.196	15506.09618
414.696	14989.84284
415.196	14298.20223
415.696	13087.9869
416.196	10635.54199
416.695	8180.0433
417.195	7065.37093
417.694	6768.63211
418.194	6282.71089
418.693	5857.22011
419.192	5650.49252
419.691	5455.57065
420.19	5458.81065
420.688	5299.0024
421.187	5045.15277
421.685	4718.98009
422.184	4304.28157
422.682	3785.14967
423.18	3266.77821
423.678	2861.84741
424.176	2636.76947
424.674	2456.63211
425.172	2380.9317
425.669	2291.21358
426.167	2154.77
426.664	1954.65642
427.161	1739.56603
427.659	1677.67682
428.156	1546.13738
428.652	1387.56037
429.149	1408.46777
429.646	1282.03424
430.143	1203.18664
430.639	1196.12522
431.135	1056.07809
431.632	1072.89359
432.128	1005.89996
432.624	904.9115
433.12	891.63489
433.616	813.42574
434.111	799.56739
434.607	789.57833
435.103	697.22058
435.598	734.20791
436.093	754.46334
436.588	671.25711
437.083	625.17884
437.578	599.18393
438.073	603.31209
438.568	576.2121
439.062	513.9532
439.557	479.99824
440.051	506.01079
440.546	539.10001
441.04	455.98022
441.534	444.00912
442.028	420.88677
442.522	417.89568
443.015	479.9206
443.509	432.94286
444.002	410.89788
444.496	404.80133
444.989	388.8558
445.482	379.86198
445.975	347.72382
446.468	390.75441
446.961	324.62883
447.454	354.73071
447.947	290.62547
448.439	273.61037
448.931	330.67566
449.424	260.59819
449.916	265.5827
450.408	264.54323
450.9	280.62951
451.392	228.53044
451.884	276.56715
452.375	257.58408
452.867	267.54432
453.358	264.5513
453.849	201.3956
454.341	303.62081
454.832	267.51882
455.323	207.47007
455.814	293.61363
456.304	242.5094
456.795	218.45828
457.285	192.39241
457.776	255.52199
458.266	197.43264
458.756	258.57481
459.247	180.39838
459.737	223.48871
460.226	246.51463
460.716	200.43766
461.206	205.45381
461.695	143.33368
462.185	172.37782
462.674	216.45667
463.163	225.46288
463.653	169.32776
464.142	164.36585
464.63	181.40736
465.119	216.46947
465.608	150.32311
466.096	176.35971
466.585	152.32179
467.073	130.29157
467.561	138.31231
468.05	213.46384
468.538	146.33202
469.026	197.43992
469.513	188.379
470.001	179.38599
470.489	160.35501
470.976	173.37193
471.463	76.17717
471.951	122.28552
472.438	143.31643
472.925	147.32691
473.412	123.28555
473.899	128.27442
474.385	93.21445
474.872	109.24532
475.359	85.19725
475.845	80.15749
476.331	132.27149
476.817	141.32318
477.303	178.39231
477.789	105.24106
478.275	98.23303
478.761	94.21446
479.247	101.21284
479.732	119.28215
480.218	103.25594
480.703	101.24058
481.188	66.13483
481.673	71.15494
482.158	97.20009
482.643	23.05613
483.128	35.07654
483.612	78.17508
484.097	40.09339
484.581	48.10575
485.066	41.09443
485.55	4.00842
486.034	68.14081
486.518	91.20447
487.002	88.20893
487.486	49.11524
487.969	58.13739
488.453	73.17762
488.936	83.18083
489.42	-22.04696
489.903	93.22484
490.386	104.22576
490.869	42.0879
491.352	91.21385
491.835	57.11213
492.318	32.0702
492.8	26.05167
493.283	18.04428
493.765	53.12615
494.247	-4.00895
494.73	3.00642
495.212	5.01151
495.694	52.11744
496.175	-1.00234
496.657	48.1081
497.139	-45.07538
497.62	-10.0232
498.102	28.0674
498.583	22.05316
499.064	34.07352
499.545	53.11699
500.026	54.11667
500.507	15.03351
500.988	-24.05746
501.469	8.01966
501.949	20.04776
502.43	24.05593
502.91	5.01001
503.39	41.09793
503.87	40.09156
504.35	-57.12855
504.83	10.02143
505.31	-6.01408
505.79	-3.00698
506.269	-52.11797
506.749	0
507.228	-24.05485
507.707	-7.01509
508.187	-49.11286
508.666	-7.01678
509.145	-21.04723
509.623	-48.10973
510.102	-82.19236
510.581	-32.07427
511.059	-44.10732
511.538	-60.14917
512.016	-79.18209
512.494	-16.0377
512.972	-78.18083
513.45	-25.0574
513.928	-35.08235
514.406	-34.08016
514.884	-55.13732
515.361	-15.03438
515.839	-25.05599
516.316	-26.06073
516.793	-51.12571
517.27	-5.01162
517.747	-38.09568
518.224	-57.12755
518.701	-37.07965
519.178	-23.05521
519.654	-70.16048
520.131	-30.07183
520.607	-39.09347
521.083	-74.16494
521.56	-45.10377
522.036	-12.02534
522.512	-49.11663
522.987	-48.11194
523.463	-69.15943
523.939	-55.13041
524.414	-61.1351
524.89	-40.09284
525.365	-96.21106
525.84	-78.18283
526.315	-85.20006
526.79	-93.20321
527.265	-80.17706
527.74	-30.07126
528.215	-37.08399
528.689	-66.14021
529.164	-70.14599
529.638	-40.09988
530.112	-59.1361
530.587	-29.06006
531.061	-74.17244
531.534	-96.2259
532.008	-73.17101
532.482	-43.09475
532.956	-82.20372
533.429	-31.07214
533.903	-65.13806
534.376	-93.199
534.849	-92.20617
535.322	-108.2466
535.795	-89.208
536.268	-48.11216
536.741	-79.18333
537.213	-102.22717
537.686	-99.23491
538.158	-22.0479
538.631	-141.33392
539.103	-74.16173
539.575	-100.1989
540.047	-81.16979
540.519	-86.19574
540.991	-65.15299
541.463	-22.05163
541.934	-83.18313
542.406	-74.16965
542.877	-34.07566
543.348	-60.13833
543.82	-63.1492
544.291	-51.11525
544.762	-105.24077
545.233	-61.14786
545.703	-75.16069
546.174	-52.1172
546.645	-26.06085
547.115	5.01163
547.585	-11.02433
548.056	-42.09883
548.526	5.01136
548.996	-31.07146
549.466	-20.04728
549.935	-34.0786
550.405	-31.06579
550.875	-44.10059
551.344	-39.09047
551.814	-6.01318
552.283	29.0599
552.752	-26.0587
553.221	37.07807
553.69	77.16355
554.159	27.06394
554.628	16.03447
555.096	49.11891
555.565	21.04421
556.033	73.16147
556.502	51.11648
556.97	63.1306
557.438	30.06701
557.906	52.11423
558.374	84.18328
558.842	55.12394
559.31	79.16318
559.777	129.29627
560.245	96.20715
560.712	137.29327
561.18	109.22323
561.647	183.38038
562.114	163.34651
562.581	169.38581
563.048	169.35378
563.514	163.36866
563.981	205.42534
564.448	349.71117
564.914	238.49944
565.381	267.54358
565.847	297.61787
566.313	300.61869
566.779	365.72347
567.245	350.72829
567.711	377.81012
568.176	345.67711
568.642	369.82531
569.108	433.93204
569.573	413.83469
570.038	427.76142
570.504	467.90099
570.969	494.07346
571.434	475.89268
571.899	463.94088
572.363	528.02603
572.828	541.02861
573.293	559.07374
573.757	561.0693
574.222	533.99974
574.686	557.06423
575.15	565.13124
575.614	572.09427
576.078	627.23416
576.542	590.10808
577.006	610.14515
577.469	557.15019
577.933	549.0175
578.396	512.03653
578.86	517.01632
579.323	542.09638
579.786	528.94963
580.249	437.85242
580.712	553.15469
581.175	453.96419
581.637	439.85103
582.1	394.7315
582.563	419.74908
583.025	465.9738
583.487	419.72128
583.95	424.78878
584.412	447.80163
584.874	327.68755
585.336	434.89583
585.797	373.69993
586.259	330.67322
586.721	312.64633
587.182	243.49179
587.643	253.50476
588.105	312.65269
588.566	234.43269
589.027	284.6141
589.488	192.3908
589.949	271.58437
590.41	238.41634
590.87	205.41945
591.331	173.33295
591.791	155.32491
592.252	156.32505
592.712	168.36826
593.172	138.28012
593.632	171.3345
594.092	168.34055
594.552	89.17401
595.011	67.14113
595.471	78.15724
595.931	159.32164
596.39	99.21806
596.849	72.15389
597.308	93.18399
597.768	117.27452
598.227	163.35978
598.685	105.22098
599.144	118.25637
599.603	27.05837
600.062	109.2114
600.52	102.20979
600.978	58.12676
601.437	78.16086
601.895	130.25182
602.353	33.06669
602.811	102.20317
603.269	95.20662
603.727	143.31194
604.184	101.21162
604.642	43.09618
605.099	96.20341
605.557	72.16055
606.014	132.2579
606.471	89.20531
606.928	120.23824
607.385	146.33364
607.842	128.26445
608.299	154.32103
608.755	148.32606
609.212	129.26203
609.668	157.31527
610.125	180.39223
610.581	179.37886
611.037	157.31847
611.493	164.34856
611.949	169.37287
612.405	183.32747
612.861	212.44095
613.316	145.31268
613.772	233.47501
614.227	198.42119
614.683	200.37982
615.138	195.41255
615.593	205.4375
616.048	232.47157
616.503	228.50377
616.958	246.55965
617.412	241.51834
617.867	165.32995
618.321	174.3182
618.776	140.27847
619.23	193.4101
619.684	164.32666
620.138	183.3741
620.592	196.42909
621.046	130.27738
621.5	160.35693
621.954	142.28324
622.407	164.3259
622.861	205.4557
623.314	96.19407
623.768	131.27812
624.221	205.36816
624.674	130.27076
625.127	105.22487
625.58	72.14862
626.033	163.31945
626.485	128.2833
626.938	159.34625
627.39	80.1707
627.843	79.16692
628.295	68.14597
628.747	107.23153
629.199	23.0487
629.651	116.24493
630.103	97.2063
630.555	87.16905
631.006	77.16761
631.458	120.26315
631.909	23.04781
632.361	61.13154
632.812	85.18408
633.263	81.1601
633.714	111.21651
634.165	47.10578
634.616	25.05604
635.067	59.12143
635.518	70.15351
635.968	31.05751
636.419	49.09812
636.869	52.11528
637.319	45.09733
637.769	15.03172
638.219	47.10361
638.669	29.06583
639.119	64.14649
639.569	57.13091
640.019	-17.03693
640.468	64.13484
640.918	44.10002
641.367	18.03761
641.816	22.04613
642.265	24.05268
642.714	-12.02622
643.163	24.05232
643.612	39.09101
644.061	54.11011
644.51	11.02419
644.958	7.01465
645.406	1.00228
645.855	-7.01626
646.303	8.01763
646.751	-18.03907
647.199	-27.05895
647.647	72.15723
648.095	15.03303
648.543	-3.00576
648.99	9.02074
649.438	1.00222
649.885	30.07112
650.333	51.09159
650.78	14.03248
651.227	15.03467
651.674	21.04571
652.121	18.04194
652.568	4.00934
653.015	2.00477
653.461	57.13039
653.908	22.04853
654.354	-17.0384
654.801	18.0411
655.247	33.06868
655.693	26.06558
656.139	25.05818
656.585	31.07009
657.031	10.02252
657.477	45.09291
657.922	37.08157
658.368	-11.0259
658.813	47.10361
659.259	3.00693
659.704	50.11223
660.149	48.10686
660.594	26.05863
661.039	37.08099
661.484	36.08078
661.929	15.03397
662.373	32.07828
662.818	-33.07837
663.262	76.17619
663.707	47.11551
664.151	16.03727
664.595	30.07024
665.039	-28.06668
665.483	24.05895
665.927	48.10836
666.371	54.12221
666.814	32.0728
667.258	66.15107
667.701	83.16667
668.145	37.0878
668.588	55.1297
669.031	35.08045
669.474	42.09729
669.917	83.17391
670.36	52.12413
670.803	80.18201
671.245	20.0395
671.688	105.24472
672.13	42.09117
672.573	38.09227
673.015	61.13999
673.457	92.19195
673.899	48.11053
674.341	53.12343
674.783	69.16031
675.225	53.12479
675.666	47.10911
676.108	105.21952
676.549	107.2424
676.991	92.19366
677.432	104.19885
677.873	123.26967
678.314	86.19692
678.755	75.17487
679.196	94.20735
679.637	112.25996
680.078	43.09487
680.518	93.2051
680.959	118.2677
681.399	79.18955
681.839	101.23466
682.28	117.27891
682.72	88.19274
683.16	140.33277
683.6	111.23885
684.039	137.26481
684.479	93.21914
684.919	117.2616
685.358	73.17495
685.798	141.35685
686.237	104.23709
686.676	22.04768
687.115	143.32
687.554	99.2251
687.993	158.32687
688.432	130.27919
688.871	127.27374
689.309	163.36911
689.748	111.21383
690.186	156.34901
690.625	150.33517
691.063	95.21521
691.501	109.25365
691.939	135.32058
692.377	114.26659
692.815	124.28587
693.253	120.27035
693.69	162.33034
694.128	73.169
694.565	199.44897
695.003	128.31056
695.44	162.36124
695.877	154.34013
696.314	126.25156
696.751	209.44604
697.188	164.35691
697.625	130.27558
698.061	150.34264
698.498	210.47466
698.934	158.35713
699.371	102.22943
699.807	145.32099
700.243	167.37986
700.679	175.36764
701.115	154.33486
701.551	199.43556
701.987	106.22146
702.422	199.44842
702.858	110.24843
703.294	194.40962
703.729	175.40256
704.164	172.39067
704.599	152.31587
705.035	173.36568
705.47	175.40256
705.904	158.3475
706.339	178.38276
706.774	160.3522
707.209	182.39473
707.643	183.41574
708.078	197.45787
708.512	157.37941
708.946	169.38145
709.38	153.34054
709.814	163.34364
710.248	227.51945
710.682	185.41141
711.116	226.51706
711.549	152.37128
711.983	151.32785
712.416	179.39361
712.85	107.25096
713.283	124.27742
713.716	176.41173
714.149	173.38137
714.582	95.1994
715.015	207.48718
715.448	159.37364
715.881	151.30336
716.313	150.32797
716.746	161.35641
717.178	178.4002
717.61	166.39442
718.043	165.38622
718.475	155.35684
718.907	152.36004
719.339	174.37304
719.77	160.35708
720.202	169.40672
720.634	82.19266
721.065	112.25037
721.497	160.3646
721.928	177.4122
722.359	92.21379
722.79	178.40463
723.221	141.33831
723.652	177.42613
724.083	146.31193
724.514	134.29323
724.945	135.30359
725.375	163.36354
725.806	135.31675
726.236	149.36361
726.666	151.33678
727.096	112.25986
727.526	92.22447
727.956	111.23648
728.386	125.29065
728.816	123.30072
729.246	96.22256
729.675	122.28653
730.105	63.14776
730.534	95.20793
730.964	139.3311
731.393	162.37839
731.822	87.21057
732.251	150.36175
732.68	156.34282
733.109	82.19364
733.537	140.32224
733.966	117.2758
734.395	106.22922
734.823	106.22224
735.251	132.3025
735.68	86.20253
736.108	137.33096
736.536	90.19903
736.964	111.2446
737.392	98.23509
737.82	127.28946
738.247	86.19296
738.675	80.1778
739.102	54.12939
739.53	73.17888
739.957	40.09847
740.384	90.20857
740.811	58.13956
741.238	58.135
741.665	114.25263
742.092	67.14925
742.519	90.21376
742.945	108.2468
743.372	115.26909
743.798	85.20944
744.225	82.18852
744.651	60.14284
745.077	84.2012
745.503	55.12718
745.929	36.0827
746.355	37.08644
746.781	74.17502
747.207	68.15383
747.632	50.11757
748.058	74.17366
748.483	67.14467
748.908	64.15417
749.334	56.13137
749.759	56.12503
750.184	72.1648
750.609	93.2171
751.033	56.12451
751.458	110.2289
751.883	116.27467
752.307	40.09038
752.732	89.21647
753.156	97.22928
753.58	16.03586
754.005	13.03161
754.429	13.02925
754.853	53.12552
755.277	60.13529
755.7	47.11101
756.124	93.22178
756.548	70.15874
756.971	22.05112
757.394	84.20953
757.818	99.24815
758.241	60.14563
758.664	84.20511
759.087	44.0949
759.51	20.04738
759.933	24.05608
760.356	42.1048
760.778	62.14624
761.201	83.192
761.623	84.1952
762.046	48.10739
762.468	37.08314
762.89	44.10463
763.312	7.0162
763.734	39.0905
764.156	57.13562
764.578	90.19653
765	27.06278
765.421	35.08688
765.843	32.08083
766.264	66.15028
766.686	67.16155
767.107	-13.03034
767.528	-19.04702
767.949	61.14942
768.37	23.05456
768.791	8.01869
769.212	49.11909
769.632	25.05622
770.053	45.11474
770.473	-7.01638
770.894	98.23447
771.314	3.00671
771.734	23.05121
772.154	51.12567
772.575	73.15924
772.994	37.0814
773.414	51.11695
773.834	17.04079
774.254	9.02094
774.673	37.08664
775.093	49.11846
775.512	-40.09512
775.931	-8.01949
776.351	11.02635
776.77	64.15201
777.189	43.09844
777.607	-5.01237
778.026	24.05797
778.445	-5.01224
778.864	21.05176
779.282	60.13838
779.701	-1.00244
780.119	-12.02925
780.537	26.0632
780.955	46.11182
781.373	-1.00238
781.791	-4.00864
782.209	15.0324
782.627	7.01792
783.045	-1.00222
783.462	-20.04949
783.88	12.03017
784.297	-9.02204
784.715	49.12216
785.132	22.05141
785.549	36.08708
785.966	25.06051
786.383	38.09029
786.8	52.11384
787.217	25.05654
787.633	-11.02695
788.05	-52.11548
788.466	53.11787
788.883	56.13923
789.299	50.11582
789.715	24.05604
790.131	31.07359
790.547	-9.02166
790.963	59.14119
791.379	63.15415
791.795	11.02369
792.21	32.07124
792.626	14.0318
793.041	48.11449
793.457	32.07571
793.872	84.18886
794.287	77.17777
794.702	8.01891
795.117	34.08194
795.532	44.10656
795.947	-39.08824
796.362	-3.0068
796.776	32.06976
797.191	0
797.605	-4.00917
798.02	11.02568
798.434	5.0104
798.848	11.02634
799.262	29.06993
799.676	-40.09229
800.09	16.03765
800.504	-2.00465
800.918	-16.03562
801.331	11.02767
801.745	29.06305
802.158	-30.07268
802.572	25.05749
802.985	-15.03435
803.398	33.07506
803.811	37.0908
804.224	44.10326
804.637	-3.00696
805.05	-49.10865
805.462	24.05654
805.875	20.05052
806.288	9.02087
806.7	-8.01937
807.112	37.08153
807.525	-20.04684
807.937	12.02915
808.349	30.07186
808.761	20.04745
809.173	24.05553
809.584	-24.05676
809.996	29.06903
810.408	-9.02273
810.819	-9.02042
811.231	20.05126
811.642	66.15634
812.053	78.18097
812.464	134.30696
812.875	-25.06144
813.286	24.05971
813.697	25.0541
814.108	24.05612
814.519	3.00629
814.929	34.08382
815.34	-6.01399
815.75	50.12254
816.16	6.01427
816.571	32.07994
816.981	48.10726
817.391	21.04885
817.801	7.01685
818.211	8.01808
818.62	-27.06219
819.03	-10.02362
819.44	18.04492
819.849	29.07067
820.259	7.01716
820.668	-28.06589
821.077	0
821.486	11.02518
821.895	30.07082
822.304	4.01023
822.713	-5.01132
823.122	21.05031
823.531	-22.04975
823.939	3.00698
824.348	51.1191
824.756	-5.01199
825.164	26.06237
825.573	7.01695
825.981	76.17975
826.389	27.06399
826.797	-33.07981
827.205	-1.00222
827.612	27.0635
828.02	7.01591
828.428	19.04654
828.835	-31.07938
829.243	13.02937
829.65	-16.03867
830.057	41.09503
830.464	38.08949
830.871	-9.02027
831.278	-7.01621
831.685	-2.00423
832.092	68.15877
832.499	-22.04537
832.905	-14.03378
833.312	-4.00856
833.718	30.07186
834.124	31.06771
834.531	19.04569
834.937	5.01222
835.343	-20.04565
835.749	-35.07719
836.155	5.01257
836.561	8.01903
836.966	-48.1119
837.372	28.06814
837.777	12.02898
838.183	21.04361
838.588	63.15099
838.993	20.04642
839.399	27.063
839.804	26.06116
840.209	-57.13988
840.613	-8.01674
841.018	-17.04124
841.423	-15.03681
841.828	59.14334
842.232	49.11506
842.637	17.03842
843.041	19.04701
843.445	18.04394
843.849	5.01197
844.253	75.16804
844.657	0
845.061	3.00642
845.465	-18.04153
845.869	19.04199
846.272	48.11238
846.676	20.04609
847.079	-8.0197
847.483	0
847.886	-15.03427
848.289	-9.02337
848.692	16.03908
849.095	2.00463
849.498	5.0119
849.901	48.1042
850.304	23.05191
850.707	13.03163
851.109	39.09333
851.512	-9.02113
851.914	33.08116
852.316	-1.00242
852.718	-17.04296
853.121	-6.01409
853.523	-22.0489
853.925	57.14503
854.326	-14.03387
854.728	32.07956
855.13	33.08287
855.531	17.03917
855.933	7.01608
856.334	12.02861
856.736	17.03649
857.137	13.02903
857.538	25.06092
857.939	-28.06691
858.34	32.07401
858.741	-20.0505
859.142	7.01604
859.542	7.01793
859.943	46.1093
860.343	-19.04536
860.744	61.14178
861.144	47.11015
861.544	22.05163
861.945	27.06626
862.345	-19.04463
862.745	8.01916
863.145	-22.0491
863.544	-12.02917
863.944	25.05592
864.344	67.15825
864.743	48.11221
865.143	-1.00247
865.542	19.04182
865.941	18.04232
866.34	69.15402
866.74	16.04106
867.139	21.04895
867.537	19.04614
867.936	7.01597
868.335	15.03674
868.734	2.00494
869.132	-59.13039
869.531	65.14821
869.929	23.05011
870.327	45.1031
870.726	-19.04481
871.124	-10.02189
871.522	20.04913
871.92	-15.03488
872.318	18.04178
872.715	7.01648
873.113	0
873.511	56.13332
873.908	-37.09184
874.306	19.04535
874.703	-35.08391
875.1	29.07038
875.497	-10.02293
875.894	-18.04262
876.291	-39.09179
876.688	25.0626
877.085	-38.08652
877.482	-2.00478
877.878	14.03238
878.275	9.02191
878.671	-8.0167
879.068	6.01381
879.464	-3.00689
879.86	20.04593
880.256	39.09011
880.652	-31.07678
881.048	35.08228
881.444	8.01797
881.84	32.07805
882.236	8.01926
882.631	-49.11488
883.027	-31.07117
883.422	15.03716
883.817	10.02427
884.213	-8.01973
884.608	26.06128
885.003	-7.0161
885.398	-14.03379
885.793	18.04353
886.188	-4.00964
886.582	8.01943
886.977	10.02239
887.371	17.04115
887.766	-6.01448
888.16	9.0214
888.554	28.06489
888.949	-18.04293
889.343	16.03684
889.737	-18.04719
890.131	0
890.525	4.0098
890.918	7.01692
891.312	34.07701
891.706	1.00253
892.099	8.01931
892.492	24.04805
892.886	72.16758
893.279	3.00735
893.672	-25.0611
894.065	10.02352
894.458	14.03379
894.851	-32.07369
895.244	-5.0123
895.637	25.0573
896.029	68.15846
896.422	8.0185
896.814	11.02637
897.206	1.00228
897.599	6.01396
897.991	-28.06471
898.383	-8.01799
898.775	32.0684
899.167	25.05611
899.559	39.0939
899.951	27.05997
900.342	31.07517
900.734	-12.02882
901.125	-16.04004
901.517	-9.02113
901.908	47.10543
902.299	0
902.69	28.06249
903.082	-2.00456
903.473	24.05515
903.863	7.0171
904.254	10.02203
904.645	-33.07749
905.036	28.0654
905.426	29.06192
905.817	17.03951
906.207	31.07126
906.597	-60.13562
906.987	52.12867
907.378	-43.10459
907.768	-24.06121
908.158	-9.02085
908.547	-79.19609
908.937	18.04416
909.327	-3.00687
909.717	-35.08379
910.106	-51.1161
910.495	16.03793
910.885	24.05784
911.274	-22.05272
911.663	24.05795
912.052	-42.09783
912.441	-41.10043
912.83	43.0946
913.219	-16.0401
913.608	-11.02553
913.997	5.0121
914.385	0
914.774	23.05363
915.162	12.0273
915.55	-47.10686
915.939	-2.00489
916.327	29.06921
916.715	53.13146
917.103	-11.02532
917.491	-15.03496
917.878	24.05606
918.266	12.02965
918.654	37.09053
919.041	-26.06603
919.429	-8.01805
919.816	14.03403
920.203	-39.09047
920.591	53.12654
920.978	17.03967
921.365	-21.05266
921.752	-10.02248
922.139	28.0565
922.525	19.04409
922.912	42.09745
923.299	31.0737
923.685	-11.02774
924.072	-43.09316
924.458	35.08231
924.844	-19.04514
925.231	10.02214
925.617	17.0419
926.003	0
926.389	-20.04843
926.774	8.01935
927.16	13.03068
927.546	6.01493
927.931	-31.07325
928.317	-1.00215
928.702	3.00667
929.088	-39.08835
929.473	17.04158
929.858	-19.04482
930.243	22.05025
930.628	-9.02099
931.013	74.1761
931.398	30.06421
931.783	16.04029
932.167	23.0527
932.552	39.09286
932.937	-18.04214
933.321	11.02637
933.705	20.04862
934.09	63.14874
934.474	31.06883
934.858	10.02515
935.242	42.09342
935.626	-20.04929
936.009	23.05939
936.393	6.01463
936.777	5.01242
937.16	-24.06028
937.544	-6.01322
937.927	-20.04885
938.311	-31.07071
938.694	35.08839
939.077	-39.08972
939.46	0
939.843	-7.01351
940.226	-2.00493
940.609	-38.08266
940.991	-5.0123
941.374	66.15362
941.757	-40.09376
942.139	38.08059
942.522	-9.02011
942.904	85.19506
943.286	-39.09411
943.668	32.07939
944.05	28.06584
944.432	-4.00945
944.814	18.04252
945.196	17.04025
945.578	-6.01371
945.959	-1.00225
946.341	-34.07864
946.722	3.00664
947.104	37.08399
947.485	32.07083
947.866	14.0336
948.247	-24.05821
948.628	16.03699
949.009	20.04945
949.39	13.03081
949.771	9.01946
950.152	-8.0188
950.532	33.07903
950.913	16.03674
951.293	2.00524
951.674	-31.07131
952.054	17.04056
952.434	11.02594
952.814	47.10513
953.194	-22.05478
953.574	-13.03005
953.954	49.10997
954.334	-22.05221
954.714	-18.04229
955.093	41.09496
955.473	23.05502
955.853	-5.01255
956.232	66.17398
956.611	-19.04331
956.99	61.14731
957.37	53.12915
957.749	-4.00898
958.128	2.0049
958.506	-15.03744
958.885	40.09731
959.264	51.11901
959.643	-54.11472
960.021	-42.10045
960.4	72.15469
960.778	-11.02557
961.156	-26.06282
961.535	34.07572
961.913	8.01767
962.291	11.02728
962.669	4.00971
963.047	10.02451
963.424	14.03422
963.802	9.02115
964.18	14.03335
964.557	-49.10448
964.935	28.06226
965.312	11.02755
965.69	23.05447
966.067	-7.01615
966.444	3.00705
966.821	16.03949
967.198	12.02741
967.575	26.06028
967.952	7.01556
968.329	35.08158
968.705	41.08191
969.082	12.02989
969.458	-9.02088
969.835	35.08039
970.211	81.20003
970.587	18.0429
970.963	15.03693
971.339	5.01258
971.715	28.06612
972.091	31.07296
972.467	12.02839
972.843	4.00956
973.219	-33.07382
973.594	3.00755
973.97	27.05975
974.345	-8.01834
974.721	-9.02037
975.096	29.06628
975.471	29.06487
975.846	-7.01606
976.221	-21.05129
976.596	-69.15904
976.971	34.07939
977.346	0
977.72	75.18241
978.095	-8.02001
978.469	22.04993
978.844	-11.02604
979.218	23.05287
979.593	35.07916
979.967	11.02541
980.341	39.08482
980.715	18.04293
981.089	16.03812
981.463	31.06777
981.837	37.08634
982.21	1.00215
982.584	14.03234
982.957	-9.02167
983.331	5.01109
983.704	52.12246
984.078	16.03793
984.451	12.02806
984.824	-1.00233
985.197	-3.00689
985.57	40.09581
985.943	55.1288
986.316	22.0508
986.688	-1.00231
987.061	-14.03109
987.434	28.07012
987.806	2.00459
988.179	70.15603
988.551	-22.05346
988.923	40.09457
989.295	40.09468
989.667	3.00692
990.039	51.12064
990.411	75.16222
990.783	67.14299
991.155	28.06484
991.527	4.00914
991.898	-18.04315
992.27	24.05681
992.641	44.10394
993.012	36.07925
993.384	-18.041
993.755	0
994.126	32.07336
994.497	7.01648
994.868	-5.01083
995.239	-29.06655
995.61	-6.01444
995.98	36.08422
996.351	4.00962
996.722	12.02638
997.092	20.04545
997.462	73.16531
997.833	6.0134
998.203	53.11997
998.573	39.09347
998.943	18.04011
999.313	19.04331
999.683	31.07177
1000.053	-18.03937
1000.423	28.06499
1000.792	-2.00496
1001.162	17.04037
1001.531	-12.02802
1001.901	18.04285
1002.27	-14.02937
1002.639	8.01954
1003.009	55.12424
1003.378	16.03913
1003.747	58.13067
1004.116	-8.01832
1004.485	62.14054
1004.853	-13.03145
1005.222	-18.04338
1005.591	-25.05599
1005.959	76.16547
1006.328	89.19101
1006.696	53.12353
1007.064	18.04308
1007.433	-57.13635
1007.801	50.1161
1008.169	58.14009
1008.537	14.02867
1008.905	56.1241
1009.273	3.00703
1009.64	3.00683
1010.008	54.12246
1010.375	-82.18444
1010.743	13.02761
1011.11	47.10634
1011.478	2.00472
1011.845	16.03559
1012.212	23.04887
1012.579	2.00469
1012.946	4.00895
1013.313	52.11591
1013.68	-31.06458
1014.047	0
1014.414	25.05675
1014.78	21.04975
1015.147	36.082
1015.513	64.14643
1015.88	12.02912
1016.246	31.07245
1016.612	15.03215
1016.978	36.08313
1017.344	-8.01875
1017.71	-62.141
1018.076	-3.00666
1018.442	23.05657
1018.808	54.12954
1019.174	14.03373
1019.539	40.08498
1019.905	77.17529
1020.27	8.0191
1020.636	-1.00225
1021.001	53.12104
1021.366	-54.12449
1021.731	26.06349
1022.096	0
1022.461	42.09385
1022.826	6.01364
1023.191	26.0653
1023.556	18.04007
1023.92	-17.03983
1024.285	38.08834
1024.649	-23.05365
1025.014	14.03278
1025.378	-6.01452
1025.742	54.12826
1026.107	-30.06379
1026.471	15.0325
1026.835	80.19162
1027.199	-2.00462
1027.562	49.10834
1027.926	24.05531
1028.29	-25.06051
1028.654	-2.00434
1029.017	25.05808
1029.381	87.19829
1029.744	36.08784
1030.107	-8.01773
1030.471	27.06174
1030.834	11.02372
1031.197	-49.11078
1031.56	4.00895
1031.923	4.00995
1032.286	1.00219
1032.648	48.10828
1033.011	30.06598
1033.374	-9.01958
1033.736	-11.02799
1034.099	-25.0582
1034.461	39.09542
1034.823	-10.02387
1035.185	31.07444
1035.548	-18.04194
1035.91	3.0068
1036.272	24.05125
1036.634	31.07086
1036.995	34.07506
1037.357	-53.12372
1037.719	0
1038.08	-9.02015
1038.442	28.06404
1038.803	-3.00687
1039.165	4.00968
1039.526	-25.05737
1039.887	37.08464
1040.248	3.00714
1040.609	12.02817
1040.97	59.13789
1041.331	27.06542
1041.692	36.07991
1042.053	9.01929
1042.413	25.05521
1042.774	10.023
1043.134	-18.04029
1043.495	24.05707
1043.855	15.0342
1044.215	63.14874
1044.576	17.03898
1044.936	23.04917
1045.296	-7.01653
1045.656	-24.05573
1046.016	18.04098
1046.375	19.04399
1046.735	25.05454
1047.095	34.07519
1047.454	-29.05659
1047.814	39.09
1048.173	5.01113
1048.533	53.11444
1048.892	-19.04472
1049.251	11.02631
1049.61	11.02561
1049.969	-19.04268
1050.328	64.1276
1050.687	0
1051.046	8.01868
1051.405	-20.04749
1051.763	-8.01756
1052.122	41.09763
1052.48	30.0706
1052.839	4.0089
1053.197	-7.01565
1053.555	66.1382
1053.914	55.12627
1054.272	9.02075
1054.63	-21.04966
1054.988	15.03423
1055.345	-5.01013
1055.703	55.12485
1056.061	-4.00989
1056.419	36.08967
1056.776	6.01389
1057.134	20.04393
1057.491	20.048
1057.848	-92.2191
1058.206	-77.17131
1058.563	-3.00623
1058.92	39.08378
1059.277	19.04434
1059.634	4.00892
1059.991	-58.12917
1060.348	-13.02832
1060.704	46.10529
1061.061	45.09721
1061.418	36.08409
1061.774	3.00707
1062.131	33.08483
1062.487	-21.04736
1062.843	23.05493
1063.199	3.00709
1063.555	29.06385
1063.911	19.04606
1064.267	49.0933
1064.623	-38.08855
1064.979	-69.15249
1065.335	-1.00222
1065.691	-54.12171
1066.046	41.08442
1066.402	39.08468
1066.757	28.06714
1067.112	37.08546
1067.468	-1.00227
1067.823	39.08914
1068.178	11.0251
1068.533	38.08722
1068.888	-6.01352
1069.243	10.02339
1069.598	53.12187
1069.952	-3.00646
1070.307	12.0287
1070.662	6.01345
1071.016	25.05366
1071.371	36.07668
1071.725	-11.0245
1072.079	49.1129
1072.434	7.01619
1072.788	-26.05906
1073.142	-65.15096
1073.496	-6.01348
1073.85	-13.02853
1074.203	18.04103
1074.557	25.06377
1074.911	1.00223
1075.265	21.04639
1075.618	40.09222
1075.971	60.13595
1076.325	24.05812
1076.678	-3.00655
1077.031	13.02789
1077.385	46.09363
1077.738	31.0665
1078.091	16.03481
1078.444	23.05041
1078.796	-1.00237
1079.149	42.09991
1079.502	12.02698
1079.855	35.07677
1080.207	35.08122
1080.56	20.04974
1080.912	18.04135
1081.264	-16.03662
1081.617	15.03474
1081.969	-11.02684
1082.321	0
1082.673	-16.03472
1083.025	-24.0537
1083.377	-306.64439
1083.728	101.21995
1084.08	-27.06431
1084.432	37.08491
1084.783	30.06559
1085.135	-1.00242
1085.486	11.02409
1085.838	12.02818
1086.189	41.09451
1086.54	13.02917
1086.891	-13.03161
1087.242	4.00921
1087.593	-17.03883
1087.944	35.07518
1088.295	61.12849
1088.646	-34.07795
1088.996	-5.0116
1089.347	-2.00466
1089.698	-6.0136
1090.048	50.12413
1090.398	19.04125
1090.749	42.09524
1091.099	80.19403
1091.449	23.05493
1091.799	32.0758
1092.149	0
1092.499	0
1092.849	30.07298
1093.199	15.03551
1093.548	-11.02532
1093.898	-7.01692
1094.248	14.03426
1094.597	14.03512
1094.947	24.06179
1095.296	32.07601
1095.645	-13.03223
1095.994	-6.01351
1096.343	-78.18704
1096.692	-14.03552
1097.041	41.10912
1097.39	31.07418
1097.739	6.01495
1098.088	-20.05104
1098.437	22.05638
1098.785	63.16459
1099.134	-15.03796
1099.482	-4.01055
1099.83	67.16933
1100.179	29.0734
1100.527	19.04908
1100.875	56.14277
1101.223	-3.00769
1101.571	20.05391
1101.919	16.04086
1102.267	28.07716
1102.615	2.00643
1102.962	3.00961
1103.31	9.02888
1103.658	-3.00963
