Data from N3 R9 sample 9_Subt2__0__15-11-05-041.txt Node

Date: Mon Sep 22 15:11:05 PDT 2025
User: uwsun
Spectrometer: HDX01956
Trigger mode: 0
Integration Time (sec): 5.000000E-1
Scans to average: 1
Nonlinearity correction enabled: true
Boxcar width: 0
Storing dark spectrum: false
XAxis mode: Wavelengths
Number of Pixels in Spectrum: 2068
>>>>>Begin Spectral Data<<<<<
194.03	-2.00583
194.578	-6.0195
195.127	-6.01926
195.676	2.00643
196.225	4.01055
196.773	-5.01394
197.321	-3.00842
197.87	-23.05992
198.418	66.17204
198.966	47.12442
199.513	-27.06906
200.061	10.02586
200.609	27.07169
201.156	-6.01336
201.704	23.059
202.251	56.15044
202.798	21.05531
203.345	30.07445
203.892	0
204.438	65.15643
204.985	37.08986
205.532	19.05095
206.078	34.08506
206.624	67.16776
207.17	38.08883
207.716	19.04682
208.262	13.02609
208.808	-2.00506
209.354	11.02684
209.899	52.13252
210.445	50.12711
210.99	31.07627
211.535	65.15554
212.08	19.04484
212.625	39.09821
213.17	30.07616
213.715	10.02307
214.259	32.07524
214.804	24.05943
215.348	27.06286
215.892	30.07249
216.436	53.12217
216.98	56.12446
217.524	3.00717
218.068	66.16642
218.612	11.02781
219.155	44.10427
219.698	31.07444
220.242	20.04974
220.785	53.12358
221.328	-1.00252
221.871	12.03006
222.414	44.10975
222.956	-15.03692
223.499	59.13252
224.041	23.05287
224.583	25.05356
225.126	82.18164
225.668	4.00979
226.21	23.05821
226.751	7.01557
227.293	16.03652
227.835	30.07312
228.376	41.09318
228.918	32.08092
229.459	12.03015
230	36.0861
230.541	-15.03433
231.082	100.24563
231.622	11.02546
232.163	40.09771
232.704	36.08957
233.244	78.19385
233.784	0
234.324	33.07369
234.864	-7.01584
235.404	75.17735
235.944	8.01896
236.484	33.08248
237.023	28.06625
237.563	5.01163
238.102	-10.02353
238.641	-16.04053
239.18	-17.04006
239.719	12.03006
240.258	27.06087
240.797	70.16741
241.335	10.02418
241.874	7.01349
242.412	-24.05764
242.95	19.04578
243.488	24.05465
244.026	-6.01369
244.564	-25.05138
245.102	21.04707
245.64	19.04545
246.177	-1.00221
246.715	-7.01671
247.252	53.12202
247.789	31.05774
248.326	51.12423
248.863	32.07115
249.4	-19.04306
249.936	94.19377
250.473	-18.04204
251.009	18.04186
251.546	22.04829
252.082	-14.03043
252.618	25.05592
253.154	-5.01201
253.69	16.03558
254.226	23.05485
254.761	50.11182
255.297	68.1483
255.832	36.0861
256.367	59.13865
256.903	42.09261
257.438	27.063
257.972	62.13843
258.507	-48.11159
259.042	72.15749
259.576	35.07609
260.111	-30.07018
260.645	87.18584
261.179	11.02566
261.713	21.04647
262.247	28.06491
262.781	2.00417
263.315	0
263.849	21.05268
264.382	37.08494
264.915	79.18637
265.449	1.00248
265.982	84.19142
266.515	-15.03628
267.048	30.06518
267.58	64.13668
268.113	-8.01754
268.646	75.18555
269.178	9.02021
269.71	-6.0129
270.243	44.0995
270.775	-12.03047
271.307	25.05989
271.838	60.14086
272.37	-5.01228
272.902	16.03611
273.433	61.1329
273.965	-13.03138
274.496	24.05989
275.027	40.09956
275.558	27.06555
276.089	47.11717
276.62	-9.02291
277.15	40.09803
277.681	72.15469
278.211	45.11064
278.741	77.17124
279.272	-10.02257
279.802	28.06997
280.332	33.07858
280.861	62.1476
281.391	30.0682
281.921	33.07797
282.45	44.11003
282.98	-8.02085
283.509	89.19998
284.038	23.05234
284.567	25.05813
285.096	42.10106
285.625	24.05478
286.153	32.07595
286.682	65.14911
287.21	55.13312
287.739	88.20692
288.267	31.07534
288.795	20.05263
289.323	28.06656
289.851	44.10229
290.378	51.11413
290.906	38.09272
291.433	88.21863
291.961	51.11695
292.488	37.09207
293.015	-12.02833
293.542	35.08808
294.069	78.19074
294.596	48.1176
295.122	67.16045
295.649	33.07229
296.175	49.11873
296.702	35.08465
297.228	12.02882
297.754	59.13409
298.28	1.00227
298.806	60.14645
299.332	81.18014
299.857	46.10614
300.383	9.02255
300.908	23.05615
301.433	54.13156
301.958	92.21185
302.483	74.18619
303.008	89.21816
303.533	11.02855
304.058	42.09903
304.582	72.17121
305.107	63.16582
305.631	35.07923
306.155	-8.01871
306.679	35.08225
307.203	46.10761
307.727	63.14932
308.251	45.11068
308.775	35.08462
309.298	9.02183
309.822	37.09358
310.345	9.02121
310.868	89.21314
311.391	38.09355
311.914	87.22011
312.437	-8.0183
312.96	91.2151
313.482	22.05266
314.005	86.21754
314.527	70.18384
315.049	0
315.571	99.22336
316.093	63.15472
316.615	86.21101
317.137	51.11149
317.659	83.20059
318.18	15.03616
318.702	52.12141
319.223	52.10768
319.744	42.09548
320.265	103.25155
320.786	82.2029
321.307	60.14966
321.828	60.13529
322.348	64.15019
322.869	68.16033
323.389	11.0189
323.909	99.22747
324.43	9.02155
324.95	89.20318
325.47	136.33356
325.989	104.24587
326.509	52.11677
327.029	27.06057
327.548	68.15665
328.067	112.27215
328.587	66.16379
329.106	63.14423
329.625	87.22597
330.144	88.20385
330.662	106.24623
331.181	108.25167
331.7	119.27812
332.218	171.37254
332.736	104.24292
333.255	63.14811
333.773	123.28871
334.291	97.24138
334.808	129.28891
335.326	106.23666
335.844	118.27443
336.361	118.29817
336.879	83.19413
337.396	88.21006
337.913	104.23623
338.43	144.32177
338.947	127.30182
339.464	90.19403
339.981	126.29961
340.497	96.23432
341.014	87.21065
341.53	110.24894
342.046	115.28315
342.562	103.2537
343.078	123.28769
343.594	102.2418
344.11	77.18074
344.626	159.39666
345.141	122.27688
345.657	165.36953
346.172	103.24535
346.687	70.15868
347.202	149.33411
347.717	157.37138
348.232	146.35795
348.747	84.19064
349.261	179.38947
349.776	169.3928
350.29	145.3549
350.805	176.42573
351.319	177.40472
351.833	224.50795
352.347	154.35036
352.861	112.25636
353.374	201.45478
353.888	232.55207
354.401	170.38644
354.915	184.41335
355.428	140.34235
355.941	204.4733
356.454	137.30138
356.967	192.45144
357.48	209.47172
357.993	180.4359
358.505	186.45533
359.018	158.37945
359.53	192.4625
360.042	161.3512
360.554	213.50696
361.066	200.48141
361.578	198.4276
362.09	148.3427
362.602	189.41263
363.113	179.40847
363.625	241.53283
364.136	171.36558
364.647	183.42348
365.158	170.38613
365.669	176.41237
366.18	203.46622
366.691	221.47533
367.201	188.43997
367.712	180.39838
368.222	222.49543
368.733	190.40523
369.243	213.46423
369.753	211.48051
370.263	229.53518
370.773	214.5151
371.282	195.44982
371.792	243.54129
372.301	224.52668
372.811	215.55319
373.32	205.43009
373.829	312.71838
374.338	276.59655
374.847	249.55235
375.356	248.574
375.865	266.55104
376.373	284.62566
376.882	313.75691
377.39	359.8241
377.898	314.74715
378.407	366.7897
378.915	372.76303
379.423	372.82704
379.93	377.79372
380.438	418.95508
380.946	397.8663
381.453	455.02059
381.96	426.94707
382.468	490.06881
382.975	545.22133
383.482	528.09972
383.989	542.26203
384.495	577.18943
385.002	620.16396
385.509	621.30779
386.015	623.0787
386.521	678.34003
387.028	764.47784
387.534	753.40479
388.04	782.59353
388.546	874.63862
389.051	840.52374
389.557	948.80118
390.063	984.81359
390.568	943.84594
391.073	993.8179
391.578	1071.10029
392.084	1084.89898
392.589	1131.88615
393.093	1284.34204
393.598	1383.27627
394.103	1424.45843
394.607	1727.80082
395.112	1722.85685
395.616	1818.84351
396.12	2005.73001
396.624	2277.11252
397.128	2426.17207
397.632	2729.12623
398.136	2975.03666
398.639	3116.15014
399.143	3416.63196
399.646	3909.91266
400.15	4315.72078
400.653	4845.42545
401.156	5453.91339
401.659	6227.90671
402.162	7684.90309
402.664	10145.22141
403.167	14324.59944
403.67	27069.88169
404.172	59070.07105
404.674	62421.90989
405.176	60252.21675
405.678	57642.47783
406.18	55467.82182
406.682	56151.3881
407.184	60564.14267
407.686	63049.78229
408.187	44961.97132
408.688	26246.08159
409.19	18213.84998
409.691	14462.03124
410.192	12335.16974
410.693	10788.98275
411.194	9694.97852
411.694	9174.78604
412.195	8439.82759
412.696	7592.85634
413.196	7077.21417
413.696	6886.77563
414.196	6943.31383
414.696	6887.91913
415.196	6513.64547
415.696	5964.53686
416.196	4866.4106
416.695	3684.15753
417.195	3179.26271
417.694	2998.42072
418.194	2848.60201
418.693	2586.02861
419.192	2583.1817
419.691	2496.15059
420.19	2418.16328
420.688	2413.26923
421.187	2261.45553
421.685	2172.95126
422.184	1909.79065
422.682	1708.43726
423.18	1453.4028
423.678	1242.13142
424.176	1224.13385
424.674	1122.91351
425.172	1085.02718
425.669	1016.02444
426.167	954.80118
426.664	839.57636
427.161	832.60345
427.659	692.45463
428.156	664.18738
428.652	631.4195
429.149	585.24645
429.646	604.19411
430.143	573.22349
430.639	499.04636
431.135	513.15611
431.632	465.96218
432.128	419.91662
432.624	440.03103
433.12	414.86452
433.616	329.65882
434.111	348.76566
434.607	303.67296
435.103	340.66304
435.598	290.55451
436.093	230.50521
436.588	282.58889
437.083	264.55717
437.578	268.57529
438.073	274.64548
438.568	289.66822
439.062	218.43624
439.557	226.50436
440.051	171.37048
440.546	204.4466
441.04	242.55478
441.534	198.47569
442.028	162.3705
442.522	197.45425
443.015	144.30098
443.509	210.48606
444.002	111.25942
444.496	101.21022
444.989	164.382
445.482	170.40641
445.975	128.28176
446.468	173.35831
446.961	110.22145
447.454	118.25637
447.947	147.33883
448.439	103.2412
448.931	145.31536
449.424	125.30106
449.916	57.1317
450.408	107.23479
450.9	105.24713
451.392	61.14753
451.884	62.13728
452.375	100.24053
452.867	48.10389
453.358	63.13731
453.849	109.21999
454.341	81.17459
454.832	75.15464
455.323	58.13654
455.814	65.14353
456.304	65.14443
456.795	86.18812
457.285	98.2092
457.776	115.24926
458.266	76.17214
458.756	73.169
459.247	41.09368
459.737	82.1889
460.226	31.06714
460.716	66.15137
461.206	61.14195
461.695	70.16575
462.185	90.2036
462.674	47.1037
463.163	102.2166
463.653	78.15696
464.142	28.06553
464.63	86.20159
465.119	45.10078
465.608	11.02447
466.096	46.09794
466.585	54.11897
467.073	63.14678
467.561	21.04887
468.05	50.11043
468.538	56.13214
469.026	25.05797
469.513	63.12896
470.001	24.05296
470.489	52.1207
470.976	70.15674
471.463	50.12004
471.951	29.06953
472.438	-3.0069
472.925	48.10867
473.412	68.16076
473.899	38.084
474.385	30.0718
474.872	30.06778
475.359	27.0652
475.845	40.08004
476.331	24.05032
476.817	20.04734
477.303	63.14133
477.789	-28.06579
478.275	-10.02406
478.761	18.04188
479.247	49.10684
479.732	29.07011
480.218	58.1475
480.703	29.07006
481.188	27.05637
481.673	-32.07148
482.158	39.08244
482.643	34.08373
483.128	39.0876
483.612	35.07923
484.097	-19.04488
484.581	-20.04484
485.066	48.11331
485.55	75.15979
486.034	17.03631
486.518	-7.016
487.002	53.12818
487.486	54.12944
487.969	9.02181
488.453	5.01228
488.936	-7.01563
489.42	-33.07076
489.903	54.13107
490.386	-10.02229
490.869	38.07995
491.352	-4.00951
491.835	-25.05018
492.318	-28.0622
492.8	19.03789
493.283	-7.01744
493.765	-10.02414
494.247	34.07666
494.73	51.11002
495.212	9.02109
495.694	-28.06427
496.175	16.0377
496.657	-44.10087
497.139	11.01847
497.62	-51.12064
498.102	-23.05651
498.583	-5.01217
499.064	-11.02413
499.545	9.02007
500.026	-46.101
500.507	-49.11313
500.988	-3.00718
501.469	-42.10309
501.949	-68.16474
502.43	-23.0539
502.91	-38.07728
503.39	-24.0591
503.87	-34.0787
504.35	12.02761
504.83	3.0064
505.31	-17.04054
505.79	-38.08897
506.269	-22.0504
506.749	-30.06767
507.228	-33.07631
507.707	-66.14095
508.187	-67.1561
508.666	-66.16001
509.145	-30.06886
509.623	-65.15144
510.102	-59.14049
510.581	-34.07967
511.059	-9.02227
511.538	-17.0427
512.016	-18.04219
512.494	-51.12218
512.972	-7.01624
513.45	-31.07134
513.928	-26.06244
514.406	-36.08705
514.884	-70.17631
515.361	-37.08705
515.839	-67.15067
516.316	-21.04937
516.793	-14.0352
517.27	-55.13011
517.747	-13.03311
518.224	-50.11403
518.701	16.03467
519.178	-26.06398
519.654	-20.04686
520.131	-51.12516
520.607	-51.12414
521.083	-47.106
521.56	-44.10294
522.036	-53.11316
522.512	-44.10495
522.987	-57.1328
523.463	-28.06561
523.939	-22.05264
524.414	-46.1033
524.89	-36.08472
525.365	-118.26269
525.84	-43.10235
526.315	-26.06213
526.79	-14.03084
527.265	-43.09654
527.74	-73.17649
528.215	-36.08366
528.689	-73.15978
529.164	-38.08098
529.638	-80.20229
530.112	-74.17325
530.587	-57.12001
531.061	-48.1148
531.534	-54.12767
532.008	-74.17454
532.482	-80.17869
532.956	-50.12558
533.429	-19.0451
533.903	-91.19564
534.376	-109.23707
534.849	-114.26125
535.322	-94.21809
535.795	-60.1447
536.268	-50.11729
536.741	-4.00931
537.213	-61.13813
537.686	-61.14836
538.158	-96.21274
538.631	-60.14196
539.103	-119.26409
539.575	-27.05502
540.047	-77.16476
540.519	-61.14285
540.991	-60.1447
541.463	-75.1781
541.934	-66.149
542.406	-111.26196
542.877	-90.19737
543.348	-62.14749
543.82	-32.07639
544.291	-32.07245
544.762	-75.17535
545.233	-41.10121
545.703	-41.08993
546.174	-81.18596
546.645	-101.24067
547.115	-78.18583
547.585	-20.04517
548.056	-100.23925
548.526	-54.12569
548.996	-64.15019
549.466	-45.10818
549.935	-93.21923
550.405	-68.14767
550.875	-55.1294
551.344	-89.21192
551.814	-16.03621
552.283	-38.0814
552.752	-43.09824
553.221	-65.14203
553.69	-88.19363
554.159	-87.21303
554.628	-37.08273
555.096	-33.08224
555.565	-22.0482
556.033	-1.00229
556.502	-7.01656
556.97	-38.08298
557.438	-32.07316
557.906	-39.09015
558.374	-31.06974
558.842	-34.07926
559.31	-46.09968
559.777	-26.06154
560.245	-74.16645
560.712	-18.04085
561.18	-15.03242
561.647	-12.02602
562.114	-14.03106
562.581	-2.00473
563.048	-61.13577
563.514	16.03811
563.981	7.01521
564.448	23.04975
564.914	36.08008
565.381	49.10766
565.847	91.20523
566.313	70.15661
566.779	67.14504
567.245	116.26145
567.711	55.12703
568.176	119.25606
568.642	117.28254
569.108	103.2445
569.573	124.27571
570.038	161.31374
570.504	159.33757
570.969	147.34961
571.434	209.4319
571.899	199.44732
572.363	191.40338
572.828	242.51299
573.293	218.46777
573.757	218.46373
574.222	207.4316
574.686	253.53408
575.15	180.39522
575.614	253.53267
576.078	234.514
576.542	228.47634
577.006	261.53572
577.469	332.74976
577.933	243.49945
578.396	244.53596
578.86	276.60089
579.323	310.67863
579.786	253.50264
580.249	271.56906
580.712	246.55693
581.175	264.60642
581.637	191.40674
582.1	215.43253
582.563	202.39654
583.025	259.5848
583.487	207.3888
583.95	166.3368
584.412	221.42452
584.874	146.33256
585.336	198.44224
585.797	130.2634
586.259	149.32585
586.721	139.31271
587.182	172.36859
587.643	120.25727
588.105	204.46147
588.566	90.17885
589.027	151.34597
589.488	140.30494
589.949	118.27378
590.41	135.25069
590.87	71.15403
591.331	32.06635
591.791	89.19587
592.252	82.18331
592.712	76.17577
593.172	33.0715
593.632	81.16904
594.092	83.17675
594.552	125.25565
595.011	76.16723
595.471	53.11287
595.931	34.07267
596.39	28.06466
596.849	44.09942
597.308	38.07876
597.768	53.13175
598.227	13.03039
598.685	6.01331
599.144	56.12704
599.603	64.14714
600.062	6.0124
600.52	0
600.978	21.04858
601.437	7.01555
601.895	0
602.353	28.06031
602.811	35.0758
603.269	-8.01884
603.727	14.03273
604.184	-8.01769
604.642	-3.0072
605.099	-18.04032
605.557	24.05707
606.014	-3.00629
606.471	-27.06606
606.928	-36.07625
607.385	47.11367
607.842	-15.03406
608.299	-17.03879
608.755	-52.12299
609.212	-1.00217
609.668	26.05704
610.125	9.02103
610.581	-39.08954
611.037	-10.02225
611.493	-23.05276
611.949	5.01182
612.405	2.00393
612.861	-15.03412
613.316	14.03293
613.772	-22.04877
614.227	14.03244
614.683	10.0204
615.138	-55.12667
615.593	24.05469
616.048	11.0244
616.503	-42.1011
616.958	27.06658
617.412	13.02992
617.867	18.03917
618.321	-68.1362
618.776	41.0883
619.23	-9.02053
619.684	-30.06498
620.138	34.07541
620.592	-20.04765
621.046	32.07215
621.5	25.05864
621.954	-52.11365
622.407	-1.00214
622.861	9.02138
623.314	-49.10802
623.768	-11.02503
624.221	-30.05767
624.674	60.13568
625.127	4.00899
625.58	-8.01773
626.033	1.00212
626.485	38.08886
626.938	66.15101
627.39	-52.11692
627.843	-17.03817
628.295	-70.15732
628.747	-13.02968
629.199	20.04401
629.651	12.027
630.103	-14.03149
630.555	-9.01857
631.006	-21.04773
631.458	-1.00231
631.909	-35.0768
632.361	-45.1029
632.812	32.07215
633.263	-2.00419
633.714	-2.00416
634.165	-27.06402
634.616	-60.13971
635.067	-2.0043
635.518	-28.06509
635.968	21.0404
636.419	6.01264
636.869	7.01626
637.319	-41.09182
637.769	-84.1839
638.219	12.02728
638.669	-59.13659
639.119	3.00713
639.569	2.00471
640.019	-58.13057
640.468	-17.03688
640.918	-27.06313
641.367	-59.12887
641.816	-1.00217
642.265	0
642.714	-2.00447
643.163	-64.14336
643.612	-83.1971
644.061	-84.17394
644.51	-60.13451
644.958	5.01081
645.406	-25.05834
645.855	-6.01428
646.303	-11.02481
646.751	-39.08716
647.199	-3.00657
647.647	-50.11408
648.095	-38.08523
648.543	-48.09463
648.99	-77.18067
649.438	-15.03429
649.885	0
650.333	-28.05255
650.78	-27.06422
651.227	16.03835
651.674	-9.01995
652.121	-40.09457
652.568	-43.10302
653.015	-25.06185
653.461	-28.06576
653.908	-10.02258
654.354	1.00233
654.801	-25.05788
655.247	-48.10215
655.693	-25.0644
656.139	-34.0792
656.585	-5.01177
657.031	32.07454
657.477	-56.11866
657.922	3.00683
658.368	-39.09351
658.813	6.01346
659.259	-26.06159
659.704	14.03221
660.149	-27.06151
660.594	-34.07898
661.039	-15.03333
661.484	5.01148
661.929	-43.09864
662.373	4.01
662.818	-57.13957
663.262	-21.04977
663.707	-32.08005
664.151	7.01671
664.595	-14.0331
665.039	-40.09702
665.483	-9.02275
665.927	-16.03633
666.371	-6.01386
666.814	-8.01855
667.258	-38.0889
667.701	-57.1179
668.145	-38.09185
668.588	-2.00484
669.031	-29.0669
669.474	-23.05483
669.917	35.07489
670.36	-23.05573
670.803	-29.06804
671.245	-28.05782
671.688	-12.02863
672.13	-55.12115
672.573	9.02231
673.015	-7.01657
673.457	12.02554
673.899	-15.03524
674.341	-29.06929
674.783	-33.07837
675.225	-34.08166
675.666	32.07647
676.108	21.0441
676.549	-13.02997
676.991	-42.09032
677.432	18.03492
677.873	9.0205
678.314	3.00697
678.755	34.08032
679.196	-2.00445
679.637	28.06625
680.078	4.00902
680.518	2.00452
680.959	9.02104
681.399	-54.13195
681.839	28.06648
682.28	-18.04353
682.72	-31.06948
683.16	33.07975
683.6	-2.00439
684.039	-16.03217
684.479	10.02416
684.919	9.02051
685.358	3.0074
685.798	13.03336
686.237	-10.02329
686.676	6.01352
687.115	-28.06414
687.554	-48.11022
687.993	-23.04913
688.432	41.09137
688.871	23.05079
689.309	-3.00697
689.748	32.06424
690.186	-8.01828
690.625	-19.0436
691.063	-24.05628
691.501	24.05694
691.939	27.06518
692.377	7.01651
692.815	-16.03748
693.253	55.12784
693.69	48.10269
694.128	13.03112
694.565	-2.00464
695.003	5.01225
695.44	-22.05036
695.877	41.09281
696.314	16.0328
696.751	-10.02172
697.188	12.02648
697.625	16.03457
698.061	15.03537
698.498	9.02063
698.934	80.18576
699.371	-16.03683
699.807	24.0546
700.243	-47.10998
700.679	-6.01296
701.115	0
701.551	20.04526
701.987	79.16765
702.422	70.16112
702.858	62.14339
703.294	2.00435
703.729	23.05426
704.164	60.13811
704.599	13.02797
705.035	40.08635
705.47	-16.03828
705.904	60.13584
706.339	37.08088
706.774	10.02253
707.209	-33.07394
707.643	12.0279
708.078	-3.00707
708.512	-32.07892
708.946	3.00689
709.38	18.04113
709.814	-23.05036
710.248	-35.08219
710.682	68.1569
711.116	40.09387
711.549	72.17972
711.983	8.01789
712.416	23.05174
712.85	18.04349
713.283	62.13991
713.716	89.21363
714.149	23.05236
714.582	-8.01722
715.015	12.02866
715.448	30.07197
715.881	26.05345
716.313	39.08842
716.746	14.03177
717.178	59.13713
717.61	9.02205
718.043	37.0883
718.475	36.08382
718.907	57.13739
719.339	7.01563
719.77	39.09
720.202	-3.00732
720.634	-14.03323
721.065	5.01136
721.497	-15.03532
721.928	7.01681
722.359	38.09012
722.79	52.12046
723.221	17.04146
723.652	39.09659
724.083	31.06742
724.514	30.06551
724.945	23.05282
725.375	3.00679
725.806	41.09763
726.236	-19.04682
726.666	38.08677
727.096	9.02117
727.526	22.05458
727.956	14.03071
728.386	1.00237
728.816	12.02956
729.246	4.00942
729.675	-16.03816
730.105	26.06178
730.534	1.00223
730.964	16.03905
731.393	38.0904
731.822	-6.01488
732.251	36.08915
732.68	20.04486
733.109	12.02861
733.537	20.04692
733.966	8.01913
734.395	1.00223
734.823	42.08969
735.251	-3.00701
735.68	15.03561
736.108	33.08092
736.536	-7.01584
736.964	53.11982
737.392	-7.01704
737.82	81.18641
738.247	15.03426
738.675	-9.0203
739.102	10.02441
739.53	7.01741
739.957	-18.04501
740.384	19.04407
740.811	26.06327
741.238	-19.04446
741.665	4.00902
742.092	-52.11783
742.519	27.06555
742.945	6.01385
743.372	-28.06763
743.798	-46.11524
744.225	-20.04615
744.651	28.0686
745.077	-23.05502
745.503	20.04697
745.929	9.02079
746.355	17.04003
746.781	56.13439
747.207	4.00925
747.632	-45.10703
748.058	14.03341
748.483	15.03305
748.908	3.0072
749.334	6.01419
749.759	34.07792
750.184	42.09718
750.609	7.01652
751.033	-15.03377
751.458	36.07581
751.883	26.06154
752.307	11.02515
752.732	-41.10009
753.156	54.13097
753.58	-63.14324
754.005	-13.03171
754.429	-26.05879
754.853	15.0365
755.277	37.08413
755.7	27.06385
756.124	31.07458
756.548	37.0846
756.971	-22.05119
757.394	21.05247
757.818	-1.00252
758.241	-26.06393
758.664	-45.1106
759.087	-43.09308
759.51	20.04794
759.933	18.04218
760.356	11.02712
760.778	24.05718
761.201	43.09971
761.623	23.05312
762.046	23.05191
762.468	41.09307
762.89	14.03294
763.312	-12.02805
763.734	19.04418
764.156	50.11812
764.578	-34.07412
765	54.12454
765.421	47.11704
765.843	31.07893
766.264	-3.00692
766.686	40.09669
767.107	19.04462
767.528	-21.05195
767.949	83.20331
768.37	-4.00953
768.791	-12.0278
769.212	43.1056
769.632	1.00228
770.053	-3.00772
770.473	4.00935
770.894	11.02629
771.314	-6.01363
771.734	12.02709
772.154	9.02227
772.575	-11.0241
772.994	9.01968
773.414	-9.0206
773.834	-31.07478
774.254	11.0257
774.673	24.05604
775.093	3.00722
775.512	5.01191
775.931	12.02938
776.351	70.16684
776.77	8.01907
777.189	11.02509
777.607	-22.05498
778.026	-39.09372
778.445	22.05418
778.864	71.17546
779.282	5.0116
779.701	-18.04364
780.119	18.04446
780.537	27.06547
780.955	-7.01716
781.373	29.06897
781.791	17.03675
782.209	-4.00875
782.627	-45.11575
783.045	-43.09499
783.462	31.07686
783.88	21.05268
784.297	19.04561
784.715	24.06002
785.132	10.02329
785.549	-1.00244
785.966	-11.02664
786.383	0
786.8	-28.06145
787.217	-34.07776
787.633	5.01216
788.05	25.05534
788.466	-3.00665
788.883	42.10438
789.299	71.16463
789.715	-33.07716
790.131	-17.04088
790.547	-5.01197
790.963	13.03101
791.379	-7.01718
791.795	16.03485
792.21	24.05352
792.626	12.02759
793.041	8.01893
793.457	-12.02868
793.872	25.05617
794.287	-3.00697
794.702	-36.08491
795.117	19.04547
795.532	8.01953
795.947	-106.23969
796.362	-11.02494
796.776	-58.12639
797.191	-30.07051
797.605	15.03442
798.02	43.10101
798.434	4.00839
798.848	-8.0189
799.262	-42.10244
799.676	18.04191
800.09	-81.19154
800.504	-27.06253
800.918	80.17529
801.331	-16.04031
801.745	-45.09787
802.158	-24.05779
802.572	32.0736
802.985	-25.05746
803.398	-40.09089
803.811	16.03913
804.224	-17.04067
804.637	-19.04357
805.05	-55.1214
805.462	14.03255
805.875	27.06863
806.288	-12.02789
806.7	17.04102
807.112	29.06396
807.525	-52.12222
807.937	-23.05495
808.349	2.00481
808.761	45.10472
809.173	4.00927
809.584	-5.01165
809.996	-10.02385
810.408	-23.05803
810.819	9.02041
811.231	-16.04102
811.642	-8.01885
812.053	-12.02799
812.464	11.02502
812.875	-7.01718
813.286	-14.03506
813.697	3.00657
814.108	-29.06759
814.519	-6.01255
814.929	-19.04607
815.34	18.04191
815.75	29.07093
816.16	-12.02834
816.571	22.05521
816.981	8.01791
817.391	13.02995
817.801	8.01924
818.211	17.03836
818.62	17.03939
819.03	-36.08366
819.44	4.00997
819.849	-35.08497
820.259	7.01706
820.668	14.03318
821.077	31.07517
821.486	-11.025
821.895	-28.06574
822.304	2.00513
822.713	10.0224
823.122	15.03566
823.531	16.03603
823.939	13.03023
824.348	20.04618
824.756	18.04267
825.164	-63.15145
825.573	4.00962
825.981	-15.03554
826.389	-4.00941
826.797	-26.06263
827.205	42.09207
827.612	-11.02579
828.02	-12.02732
828.428	-15.037
828.835	0
829.243	54.12271
829.65	17.04102
830.057	13.03008
830.464	-1.00234
830.871	-2.00457
831.278	28.06499
831.685	-47.09874
832.092	-14.03237
832.499	34.07018
832.905	17.04118
833.312	81.17317
833.718	31.07311
834.124	7.01489
834.531	33.0793
834.937	9.02201
835.343	-31.07185
835.749	-10.022
836.155	11.02782
836.561	-37.08705
836.966	17.03984
837.372	15.03654
837.777	-38.09137
838.183	-12.02526
838.588	6.01433
838.993	35.07958
839.399	-4.00934
839.804	34.08079
840.209	9.02207
840.613	20.04184
841.018	-1.0024
841.423	10.02462
841.828	46.11236
842.232	-22.05114
842.637	7.01574
843.041	-1.0025
843.445	12.0287
843.849	24.05795
844.253	12.0269
844.657	4.00968
845.061	68.14654
845.465	67.15591
845.869	-33.07211
846.272	-26.06147
846.676	-22.05044
847.079	-20.04927
847.483	0
847.886	12.02732
848.289	-1.00261
848.692	-5.01208
849.095	-55.12632
849.498	86.20489
849.901	-10.02182
850.304	-4.00901
850.707	9.02191
851.109	33.07954
851.512	-2.00471
851.914	3.00741
852.316	24.0581
852.718	-14.03552
853.121	-47.10963
853.523	-5.01106
853.925	-11.02802
854.326	9.02156
854.728	27.06736
855.13	32.08046
855.531	-48.11035
855.933	-18.04087
856.334	7.01694
856.736	59.12548
857.137	-20.04469
857.538	41.09924
857.939	21.04991
858.34	0
858.741	1.00251
859.142	8.01813
859.542	4.0102
859.943	20.04706
860.343	26.06209
860.744	-19.0435
861.144	29.06722
861.544	25.05877
861.945	32.07883
862.345	-51.11999
862.745	43.10203
863.145	37.08228
863.544	5.01213
863.944	17.03778
864.344	33.07697
864.743	-40.09354
865.143	-2.00492
865.542	67.14758
865.941	95.22481
866.34	7.01577
866.74	34.08851
867.139	44.10031
867.537	43.10505
867.936	-27.06164
868.335	31.07568
868.734	48.11782
869.132	40.08824
869.531	31.07029
869.929	-12.02627
870.327	39.08878
870.726	28.06627
871.124	31.06817
871.522	33.08038
871.92	75.1737
872.318	22.05179
872.715	51.11891
873.113	23.05323
873.511	22.05252
873.908	-40.09916
874.306	1.00239
874.703	28.06586
875.1	-11.02666
875.497	-52.11792
875.894	44.10499
876.291	3.007
876.688	-39.09659
877.085	-13.02941
877.482	10.0239
877.878	13.02974
878.275	9.02193
878.671	-39.08088
879.068	32.07269
879.464	-52.11955
879.86	12.0271
880.256	-28.06473
880.652	56.1373
881.048	0
881.444	64.14289
881.84	45.10965
882.236	39.09368
882.631	36.08442
883.027	9.02042
883.422	-51.12553
883.817	32.07744
884.213	13.03186
884.608	-2.00473
885.003	51.11723
885.398	33.0796
885.793	2.0048
886.188	39.09397
886.582	-33.0799
886.977	7.01548
887.371	-14.03364
887.766	63.15271
888.16	-11.02602
888.554	-40.0924
888.949	-55.1289
889.343	18.04145
889.737	33.08615
890.131	83.20028
890.525	-18.04374
890.918	0
891.312	41.09349
891.706	8.02009
892.099	10.02402
892.492	39.07777
892.886	6.01393
893.279	-11.02713
893.672	7.01715
894.065	-14.03316
894.458	-27.06439
894.851	-17.03925
895.244	-6.01485
895.637	-12.027
896.029	18.04185
896.422	12.02783
896.814	15.03554
897.206	0
897.599	18.0414
897.991	9.02072
898.383	17.03781
898.775	31.06559
899.167	33.0733
899.559	21.05037
899.951	24.05325
900.342	-16.03857
900.734	-26.06285
901.125	-24.05971
901.517	-25.05861
901.908	-8.01802
902.299	14.03311
902.69	-4.00888
903.082	-7.01597
903.473	2.00456
903.863	-4.00971
904.254	5.01099
904.645	-57.13452
905.036	23.0534
905.426	30.06362
905.817	29.06751
906.207	23.0531
906.597	38.08365
906.987	11.02688
907.378	20.0486
907.768	6.01517
908.158	-40.09248
908.547	-35.08792
908.937	-5.01225
909.327	-16.03677
909.717	-1.00239
910.106	12.02725
910.495	-17.04004
910.885	9.02174
911.274	10.02392
911.663	-19.04583
912.052	38.08834
912.441	36.08715
912.83	7.01508
913.219	-40.10003
913.608	43.10026
913.997	11.02657
914.385	-52.11629
914.774	47.10829
915.162	-17.0385
915.55	40.09012
915.939	-44.10636
916.327	13.03091
916.715	-41.10091
917.103	-19.04409
917.491	25.05811
917.878	29.06844
918.266	1.00247
918.654	0
919.041	-16.04079
919.429	5.01122
919.816	-47.11281
920.203	-8.01844
920.591	-35.08257
920.978	-8.01833
921.365	-12.03021
921.752	-8.01819
922.139	70.14008
922.525	-26.06001
922.912	-22.051
923.299	-1.00238
923.685	-11.02783
924.072	46.09947
924.458	-16.03802
924.844	-4.00954
925.231	7.01546
925.617	-60.147
926.003	29.07043
926.389	-3.00728
926.774	-4.00972
927.16	-19.0447
927.546	31.07742
927.931	-36.08485
928.317	-2.00427
928.702	-41.09099
929.088	-65.14545
929.473	-9.02179
929.858	-8.01902
930.243	-24.05515
930.628	-31.07117
931.013	-40.09523
931.398	3.00649
931.783	23.05719
932.167	-28.06517
932.552	24.05746
932.937	4.00935
933.321	-38.09119
933.705	7.01687
934.09	-39.09247
934.474	-5.01112
934.858	-35.0882
935.242	9.02002
935.626	7.01725
936.009	6.01527
936.393	3.00734
936.777	22.05392
937.16	14.03485
937.544	1.00222
937.927	4.00981
938.311	-37.08505
938.694	20.05047
939.077	-39.08889
939.46	27.06181
939.843	22.04231
940.226	11.02683
940.609	22.04792
940.991	-20.04878
941.374	-46.10715
941.757	7.01632
942.139	-35.07421
942.522	-33.07281
942.904	44.10063
943.286	-51.12293
943.668	-7.01731
944.05	6.01403
944.432	1.00235
944.814	-23.05356
945.196	15.03555
945.578	-11.02524
945.959	33.07351
946.341	-46.10635
946.722	31.06759
947.104	-7.01595
947.485	-51.11177
947.866	54.13166
948.247	-38.09178
948.628	-6.01374
949.009	35.08548
949.39	-26.06123
949.771	3.00651
950.152	-2.00466
950.532	-9.02149
950.913	21.04786
951.293	43.11207
951.674	-7.01611
952.054	15.03559
952.434	-15.03533
952.814	-2.00449
953.194	-24.06019
953.574	6.01381
953.954	-38.08512
954.334	-13.03072
954.714	5.01172
955.093	-62.14254
955.473	10.02417
955.853	-19.04728
956.232	14.03696
956.611	-3.00674
956.99	33.0799
957.37	24.05865
957.749	-26.05879
958.128	-4.0097
958.506	19.04716
958.885	20.04818
959.264	41.0965
959.643	-13.02738
960.021	-39.09244
960.4	-14.02994
960.778	-44.10128
961.156	-22.05258
961.535	-6.0132
961.913	-31.06834
962.291	-3.00745
962.669	-16.03894
963.047	64.15633
963.424	29.07053
963.802	-56.13193
964.18	16.0383
964.557	23.0497
964.935	19.04224
965.312	40.1005
965.69	21.04972
966.067	-36.0826
966.444	18.04201
966.821	48.11764
967.198	12.02714
967.575	10.02316
967.952	-30.06643
968.329	24.05496
968.705	-36.07131
969.082	-39.09631
969.458	25.05797
969.835	66.15343
970.211	29.07125
970.587	-40.09427
970.963	32.07849
971.339	-16.0403
971.715	6.01427
972.091	6.01416
972.467	-7.01632
972.843	36.08557
973.219	22.04855
973.594	-35.08748
973.97	11.0244
974.345	4.0091
974.721	35.08006
975.096	21.04835
975.471	-4.00893
975.846	-11.0248
976.221	-39.09528
976.596	10.02263
976.971	-12.0279
977.346	45.09775
977.72	19.04621
978.095	35.08592
978.469	-1.00225
978.844	5.01188
979.218	-23.0528
979.593	-5.01117
979.967	16.03658
980.341	11.0238
980.715	3.00724
981.089	36.08521
981.463	1.00214
981.837	-17.03958
982.21	-28.06
982.584	29.06623
982.957	39.09322
983.331	-33.07299
983.704	89.20735
984.078	-15.03561
984.451	-12.02815
984.824	-2.00465
985.197	0
985.57	0
985.943	-7.01602
986.316	-13.02988
986.688	-20.0458
987.061	41.08966
987.434	13.03241
987.806	4.00907
988.179	6.01341
988.551	-29.06995
988.923	22.05114
989.295	39.09147
989.667	-44.10197
990.039	23.05451
990.411	39.08464
990.783	21.04492
991.155	-35.08135
991.527	-47.10777
991.898	-22.05252
992.27	6.01414
992.641	40.09446
993.012	-12.02634
993.384	2.00454
993.755	11.02673
994.126	15.03424
994.497	-6.014
994.868	32.06887
995.239	-14.03217
995.61	14.03375
995.98	-2.00457
996.351	6.01435
996.722	12.02668
997.092	-43.0969
997.462	55.12323
997.833	-17.03776
998.203	16.03631
998.573	57.13583
998.943	2.00442
999.313	17.03864
999.683	47.10639
1000.053	-32.06923
1000.423	1.0023
1000.792	-11.02706
1001.162	-14.03293
1001.531	66.15501
1001.901	-9.02145
1002.27	-30.06259
1002.639	6.01477
1003.009	0
1003.378	38.09324
1003.747	19.0422
1004.116	-4.00921
1004.485	18.04044
1004.853	-24.05784
1005.222	21.05096
1005.591	19.04257
1005.959	3.00637
1006.328	-13.02772
1006.696	-18.04137
1007.064	36.086
1007.433	-16.03784
1007.801	9.0207
1008.169	-13.03114
1008.537	42.08592
1008.905	13.02907
1009.273	11.02558
1009.64	8.0185
1010.008	32.07156
1010.375	-13.02943
1010.743	36.07685
1011.11	-26.058
1011.478	-19.04467
1011.845	52.11408
1012.212	8.01713
1012.579	10.02316
1012.946	8.01786
1013.313	-13.02871
1013.68	-18.03787
1014.047	20.04594
1014.414	4.00902
1014.78	29.06847
1015.147	9.02022
1015.513	-7.01597
1015.88	-30.07235
1016.246	15.03497
1016.612	-40.08587
1016.978	16.03724
1017.344	21.0495
1017.71	-41.09296
1018.076	-3.00661
1018.442	-24.05858
1018.808	9.02141
1019.174	-54.13092
1019.539	-2.00419
1019.905	-38.08516
1020.27	-15.03555
1020.636	-43.09674
1021.001	22.04896
1021.366	25.057
1021.731	-2.0049
1022.096	-29.07046
1022.461	0
1022.826	38.08603
1023.191	-3.00754
1023.556	22.04829
1023.92	11.02553
1024.285	38.08806
1024.649	-14.03221
1025.014	-15.03513
1025.378	-22.05296
1025.742	-5.01181
1026.107	6.01267
1026.471	54.11702
1026.835	10.02344
1027.199	67.15351
1027.562	-37.08119
1027.926	28.0644
1028.29	27.06496
1028.654	-4.00865
1029.017	2.00466
1029.381	27.06139
1029.744	-6.01472
1030.107	28.06169
1030.471	-45.10132
1030.834	8.017
1031.197	-11.02466
1031.56	5.01122
1031.923	75.18636
1032.286	7.01508
1032.648	31.06991
1033.011	12.02594
1033.374	38.08411
1033.736	2.00511
1034.099	25.05765
1034.461	27.06572
1034.823	-29.06937
1035.185	20.0477
1035.548	-28.06463
1035.91	36.08177
1036.272	-23.04951
1036.634	-23.05287
1036.995	2.00445
1037.357	0
1037.719	17.03939
1038.08	25.05567
1038.442	-18.04059
1038.803	16.0365
1039.165	-26.06332
1039.526	-40.09189
1039.887	21.04773
1040.248	-1.00234
1040.609	-8.01865
1040.97	-34.07851
1041.331	-20.04825
1041.692	20.04467
1042.053	-38.08161
1042.413	10.02174
1042.774	-25.05712
1043.134	0
1043.495	48.11554
1043.855	12.02744
1044.215	18.04213
1044.576	-18.04118
1044.936	-29.06138
1045.296	45.10591
1045.656	-15.03528
1046.016	35.07974
1046.375	26.05939
1046.735	38.08147
1047.095	91.20137
1047.454	-39.07607
1047.814	2.00456
1048.173	43.0967
1048.533	5.01087
1048.892	30.06966
1049.251	17.04018
1049.61	34.0796
1049.969	43.09634
1050.328	-34.06832
1050.687	-8.01847
1051.046	25.05735
1051.405	-11.0261
1051.763	2.00437
1052.122	34.08156
1052.48	-61.14234
1052.839	-15.03364
1053.197	9.02014
1053.555	-23.04828
1053.914	26.05968
1054.272	36.08134
1054.63	-3.00704
1054.988	-15.0342
1055.345	-20.04024
1055.703	-74.16931
1056.061	50.12177
1056.419	37.09248
1056.776	-25.05703
1057.134	37.0815
1057.491	-68.16207
1057.848	0
1058.206	-4.00898
1058.563	-12.02492
1058.92	25.05363
1059.277	-2.00468
1059.634	-19.04153
1059.991	27.06069
1060.348	-21.04486
1060.704	53.11982
1061.061	-22.04757
1061.418	58.13468
1061.774	37.08681
1062.131	-7.01792
1062.487	12.02661
1062.843	12.02836
1063.199	10.0236
1063.555	-2.00431
1063.911	22.05243
1064.267	40.07611
1064.623	23.05405
1064.979	0
1065.335	45.10074
1065.691	38.08551
1066.046	13.02697
1066.402	14.03027
1066.757	38.09067
1067.112	-2.00462
1067.468	29.06575
1067.823	41.09273
1068.178	9.0204
1068.533	-35.07971
1068.888	-27.06047
1069.243	-24.0563
1069.598	-5.01158
1069.952	16.03442
1070.307	-11.02618
1070.662	-35.079
1071.016	-5.01072
1071.371	-52.11177
1071.725	-15.03388
1072.079	-19.04311
1072.434	-5.01161
1072.788	-6.01353
1073.142	30.06892
1073.496	20.04517
1073.85	-1.00218
1074.203	26.05932
1074.557	28.07141
1074.911	22.04926
1075.265	3.0066
1075.618	18.04095
1075.971	22.04967
1076.325	42.10198
1076.678	63.13615
1077.031	12.02576
1077.385	31.06271
1077.738	-34.07195
1078.091	-7.01502
1078.444	31.06754
1078.796	33.07761
1079.149	4.00938
1079.502	-11.0248
1079.855	5.01099
1080.207	-5.01166
1080.56	-28.06936
1080.912	40.09163
1081.264	17.03873
1081.617	17.03928
1081.969	15.03661
1082.321	11.02546
1082.673	19.0416
1083.025	18.04054
1083.377	334.70552
1083.728	32.06997
1084.08	7.0168
1084.432	-43.09809
1084.783	36.07891
1085.135	1.00239
1085.486	33.07235
1085.838	-33.07707
1086.189	14.03271
1086.54	11.02474
1086.891	1.00242
1087.242	-91.21134
1087.593	29.06599
1087.944	-26.05531
1088.295	14.02943
1088.646	-3.00686
1088.996	-45.10344
1089.347	36.08405
1089.698	15.03397
1090.048	-25.06137
1090.398	-4.00869
1090.749	-55.12434
1091.099	-8.01937
1091.449	38.09022
1091.799	6.01425
1092.149	8.01896
1092.499	7.01608
1092.849	16.03898
1093.199	62.14584
1093.548	-32.07325
1093.898	-21.04985
1094.248	-17.04132
1094.597	25.06226
1094.947	52.13224
1095.296	-11.02567
1095.645	-1.00246
1095.994	-1.00227
1096.343	-18.04279
1096.692	-8.0204
1097.041	-13.03461
1097.39	-75.17673
1097.739	-27.06714
1098.088	-34.08692
1098.437	27.06911
1098.785	-12.03109
1099.134	22.05553
1099.482	43.11368
1099.83	1.0025
1100.179	41.1034
1100.527	39.09951
1100.875	-44.11355
1101.223	-3.00763
1101.571	15.04009
1101.919	38.09735
1102.267	6.01646
1102.615	16.05136
1102.962	2.00642
1103.31	12.03854
1103.658	-8.0257
