Data from N3 R9 sample 4_Subt2__2__15-37-41-505.txt Node

Date: Mon Sep 22 15:37:41 PDT 2025
User: uwsun
Spectrometer: HDX01956
Trigger mode: 0
Integration Time (sec): 5.000000E-1
Scans to average: 1
Nonlinearity correction enabled: true
Boxcar width: 0
Storing dark spectrum: false
XAxis mode: Wavelengths
Number of Pixels in Spectrum: 2068
>>>>>Begin Spectral Data<<<<<
194.03	12.03491
194.578	9.0292
195.127	5.01603
195.676	6.01928
196.225	-4.01057
196.773	19.05278
197.321	46.12816
197.87	19.04915
198.418	56.14623
198.966	66.17416
199.513	2.00509
200.061	58.14875
200.609	37.09808
201.156	38.08386
201.704	14.03597
202.251	63.16906
202.798	78.20346
203.345	70.17245
203.892	28.07161
204.438	51.12307
204.985	71.17133
205.532	49.13075
206.078	78.19357
206.624	53.13304
207.17	78.1809
207.716	17.0419
208.262	64.12694
208.808	37.09294
209.354	-31.07624
209.899	98.24772
210.445	68.17232
210.99	49.12016
211.535	85.20263
212.08	102.23684
212.625	25.06312
213.17	37.09381
213.715	64.14608
214.259	94.21835
214.804	16.03968
215.348	56.12962
215.892	55.13227
216.436	18.04178
216.98	74.16385
217.524	41.09729
218.068	40.10133
218.612	58.14541
219.155	47.11131
219.698	81.19265
220.242	-1.0025
220.785	18.04226
221.328	43.10763
221.871	27.06746
222.414	93.22991
222.956	61.14803
223.499	60.13474
224.041	15.03453
224.583	55.11707
225.126	15.03369
225.668	36.08761
226.21	19.04812
226.751	63.13848
227.293	38.08635
227.835	37.09006
228.376	62.14031
228.918	42.10602
229.459	36.09006
230	53.12634
230.541	-23.05272
231.082	98.2408
231.622	15.03469
232.163	73.17722
232.704	42.10438
233.244	57.14221
233.784	36.08738
234.324	59.13105
234.864	33.07406
235.404	48.1141
235.944	41.09654
236.484	59.14677
237.023	36.08504
237.563	78.17875
238.102	25.05843
238.641	9.0227
239.18	13.03045
239.719	-9.02263
240.258	59.13214
240.797	64.15324
241.335	-23.05596
241.874	43.08216
242.412	-13.03116
242.95	16.03857
243.488	28.0637
244.026	-23.05266
244.564	32.06493
245.102	22.0493
245.64	-8.01924
246.177	-17.03771
246.715	-8.0191
247.252	72.16513
247.789	107.19552
248.326	72.17469
248.863	65.14353
249.4	33.074
249.936	52.10821
250.473	34.0786
251.009	57.13154
251.546	-9.01988
252.082	-26.05666
252.618	63.13982
253.154	7.01678
253.69	2.00446
254.226	72.17009
254.761	52.11624
255.297	70.1526
255.832	48.11453
256.367	30.0709
256.903	49.10789
257.438	47.10924
257.972	52.11634
258.507	8.01839
259.042	42.09245
259.576	18.03927
260.111	30.06936
260.645	-3.00653
261.179	43.09967
261.713	41.09035
262.247	52.11998
262.781	39.08074
263.315	39.09603
263.849	58.14452
264.382	3.00693
264.915	89.20956
265.449	38.09375
265.982	129.29129
266.515	22.05284
267.048	105.22448
267.58	25.05384
268.113	80.17218
268.646	72.17823
269.178	55.12237
269.71	-37.0801
270.243	21.04771
270.775	19.04799
271.307	31.07418
271.838	95.2215
272.37	46.1119
272.902	68.15182
273.433	48.10486
273.965	18.0432
274.496	66.16343
275.027	71.17572
275.558	45.10888
276.089	65.16152
276.62	23.05821
277.15	28.06878
277.681	73.15681
278.211	104.2529
278.741	80.1778
279.272	-5.01127
279.802	44.10963
280.332	61.14447
280.861	34.08138
281.391	18.04102
281.921	22.05209
282.45	108.26694
282.98	13.03377
283.509	81.1823
284.038	56.12658
284.567	87.19981
285.096	72.17226
285.625	51.11577
286.153	90.21121
286.682	54.12415
287.21	66.15941
287.739	52.12313
288.267	29.07051
288.795	74.19296
289.323	95.2229
289.851	62.14362
290.378	45.10082
290.906	63.153
291.433	82.20394
291.961	114.2581
292.488	46.11428
293.015	32.07489
293.542	33.08308
294.069	81.19797
294.596	61.14909
295.122	107.25429
295.649	72.15643
296.175	72.17371
296.702	37.08945
297.228	33.07894
297.754	84.18995
298.28	49.11024
298.806	73.17775
299.332	60.13402
299.857	137.31036
300.383	18.04503
300.908	35.08525
301.433	86.20827
301.958	120.27478
302.483	108.27007
303.008	62.15274
303.533	41.10587
304.058	98.22854
304.582	126.2965
305.107	73.19182
305.631	55.12399
306.155	66.1521
306.679	67.15647
307.203	98.22692
307.727	92.21683
308.251	63.15443
308.775	60.14437
309.298	62.1489
309.822	74.18592
310.345	74.17217
310.868	71.17062
311.391	60.14711
311.914	94.23753
312.437	59.13317
312.96	77.1825
313.482	60.14256
314.005	88.22252
314.527	109.28437
315.049	49.12327
315.571	136.30452
316.093	92.22472
316.615	161.38952
317.137	114.24588
317.659	108.25977
318.18	94.22318
318.702	66.15368
319.223	128.26054
319.744	106.23784
320.265	94.22995
320.786	131.32123
321.307	77.19147
321.828	94.21048
322.348	80.18715
322.869	87.20437
323.389	130.21628
323.909	137.31238
324.43	83.19588
324.95	86.19645
325.47	142.34788
325.989	165.38547
326.509	133.29369
327.029	20.04493
327.548	99.22665
328.067	137.33133
328.587	112.27561
329.106	159.35697
329.625	146.37534
330.144	132.3031
330.662	107.2485
331.181	145.33542
331.7	154.35744
332.218	159.34728
332.736	117.27258
333.255	127.29483
333.773	109.25655
334.291	127.31431
334.808	154.34312
335.326	132.29313
335.844	127.29483
336.361	161.40369
336.879	178.40856
337.396	142.33545
337.913	106.24067
338.43	190.42052
338.947	161.38011
339.464	150.31922
339.981	165.3894
340.497	128.31056
341.014	115.27698
341.53	168.3757
342.046	190.46132
342.562	181.43939
343.078	184.42521
343.594	131.3088
344.11	155.35827
344.626	169.42085
345.141	148.33412
345.657	217.48077
346.172	160.37694
346.687	152.3388
347.202	218.48188
347.717	192.45109
348.232	153.37462
348.747	176.39197
349.261	192.4166
349.776	153.35673
350.29	154.3763
350.805	233.55753
351.319	205.4661
351.833	235.5317
352.347	156.35476
352.861	190.42805
353.374	245.54936
353.888	236.56115
354.401	281.62437
354.915	275.60621
355.428	207.49986
355.941	268.61388
356.454	197.4279
356.967	266.61639
357.48	231.51903
357.993	278.66075
358.505	247.59779
359.018	242.57188
359.53	290.68555
360.042	245.5249
360.554	298.69764
361.066	278.65922
361.578	303.63962
362.09	211.48246
362.602	247.53262
363.113	212.48055
363.625	289.63253
364.136	245.51537
364.647	295.66744
365.158	227.50963
365.669	252.58164
366.18	300.67557
366.691	278.59058
367.201	295.67585
367.712	278.60267
368.222	285.62773
368.733	299.62259
369.243	282.60561
369.753	320.71263
370.263	320.73444
370.773	291.69018
371.282	318.71551
371.792	302.66447
372.301	280.65114
372.811	343.8627
373.32	340.69204
373.829	413.93169
374.338	386.81463
374.847	387.83375
375.356	423.94489
375.865	413.82742
376.373	425.90853
376.882	439.03409
377.39	432.97712
377.898	449.03841
378.407	474.99901
378.915	510.01173
379.423	529.13574
379.93	533.08183
380.438	512.14562
380.946	554.16676
381.453	640.38179
381.96	589.26313
382.468	665.39751
382.975	726.56699
383.482	778.53152
383.989	732.64118
384.495	760.50306
385.002	784.4133
385.509	878.74566
386.015	863.40085
386.521	1016.85124
387.028	1021.85522
387.534	1041.80581
388.04	1069.03645
388.546	1122.97705
389.051	1125.89557
389.557	1289.24828
390.063	1357.27131
390.568	1451.50464
391.073	1465.36987
391.578	1535.68809
392.084	1581.41872
392.589	1623.35371
393.093	1848.90751
393.598	1950.7292
394.103	2083.99704
394.607	2385.19925
395.112	2511.32306
395.616	2764.24331
396.12	2844.9281
396.624	3187.23144
397.128	3419.19372
397.632	3846.91704
398.136	4108.68651
398.639	4396.6867
399.143	4914.00829
399.646	5597.01739
400.15	6176.7826
400.653	6889.67206
401.156	7833.90322
401.659	8938.36483
402.162	11091.79205
402.664	14369.8734
403.167	20198.12983
403.67	37320.38922
404.172	60171.55812
404.674	62421.90989
405.176	60252.21675
405.678	57642.47783
406.18	55467.82182
406.682	56151.3881
407.184	60564.14267
407.686	63049.78229
408.187	63707.07985
408.688	38444.93889
409.19	26418.1588
409.691	21027.36565
410.192	17814.55438
410.693	15356.6342
411.194	13939.02003
411.694	13011.48702
412.195	12070.10843
412.696	10850.77728
413.196	10024.08962
413.696	9752.1019
414.196	9844.46348
414.696	9673.89809
415.196	9288.00097
415.696	8471.51214
416.196	6903.67028
416.695	5257.36134
417.195	4409.8196
417.694	4245.89935
418.194	4010.20988
418.693	3671.88753
419.192	3719.06301
419.691	3569.09961
420.19	3505.16373
420.688	3382.3309
421.187	3238.38706
421.685	3042.09876
422.184	2773.08205
422.682	2383.73807
423.18	2029.84842
423.678	1779.63223
424.176	1699.60442
424.674	1601.38968
425.172	1548.57016
425.669	1417.56555
426.167	1329.2821
426.664	1196.05211
427.161	1198.108
427.659	1034.00999
428.156	938.56106
428.652	953.00165
429.149	832.67865
429.646	849.58346
430.143	799.62342
430.639	691.38842
431.135	718.55103
431.632	707.3821
432.128	610.27868
432.624	565.29212
433.12	624.24064
433.616	525.002
434.111	527.11394
434.607	493.04968
435.103	473.8933
435.598	457.83856
436.093	488.01175
436.588	472.94409
437.083	416.84865
437.578	404.84177
438.073	378.87239
438.568	376.85429
439.062	316.61799
439.557	306.67157
440.051	337.70421
440.546	355.75234
441.04	322.72629
441.534	258.61275
442.028	312.69194
442.522	293.66264
443.015	287.58084
443.509	267.61098
444.002	247.56181
444.496	171.35036
444.989	254.58112
445.482	265.62197
445.975	225.48518
446.468	274.55466
446.961	166.32987
447.454	200.42692
447.947	233.52782
448.439	168.38839
448.931	196.42165
449.424	188.44737
449.916	157.35552
450.408	139.30295
450.9	180.41745
451.392	105.25184
451.884	168.36375
452.375	190.44918
452.867	146.30936
453.358	144.30845
453.849	131.26306
454.341	155.32879
454.832	114.23299
455.323	132.30626
455.814	164.35463
456.304	107.23568
456.795	161.34658
457.285	177.37135
457.776	185.39499
458.266	91.20548
458.756	123.28193
459.247	76.17242
459.737	137.31213
460.226	103.21963
460.716	109.24783
461.206	127.29168
461.695	96.22617
462.185	124.27857
462.674	97.21177
463.163	51.1095
463.653	119.23719
464.142	62.14413
464.63	119.27713
465.119	72.16035
465.608	109.23757
466.096	112.23503
466.585	109.23737
467.073	102.23581
467.561	101.23132
468.05	51.11262
468.538	79.18558
469.026	120.27301
469.513	84.17113
470.001	81.17662
470.489	125.28594
470.976	131.28964
471.463	53.12717
471.951	102.24114
472.438	120.26914
472.925	68.15333
473.412	94.22111
473.899	48.10588
474.385	95.22455
474.872	42.09466
475.359	124.29395
475.845	93.18382
476.331	74.15344
476.817	59.13859
477.303	71.15901
477.789	96.22009
478.275	4.0096
478.761	70.16119
479.247	108.23254
479.732	34.08212
480.218	75.19016
480.703	29.07006
481.188	36.07501
481.673	35.07709
482.158	30.06354
482.643	43.10572
483.128	23.05183
483.612	38.08596
484.097	33.07716
484.581	22.0489
485.066	35.08283
485.55	41.088
486.034	79.16648
486.518	49.11073
487.002	73.17589
487.486	58.13893
487.969	72.17239
488.453	33.08065
488.936	66.14516
489.42	-22.04706
489.903	14.03424
490.386	15.03326
490.869	61.1277
491.352	-2.00475
491.835	0
492.318	49.10712
492.8	-7.01404
493.283	19.04711
493.765	-17.04108
494.247	7.01587
494.73	51.11002
495.212	0
495.694	2.00456
496.175	1.00236
496.657	-27.06169
497.139	10.01679
497.62	-9.02112
498.102	30.07298
498.583	-14.03413
499.064	-6.01315
499.545	-11.02463
500.026	-52.11432
500.507	22.05007
500.988	-34.08191
501.469	-27.06609
501.949	-11.02636
502.43	-53.12494
502.91	6.01208
503.39	-6.01473
503.87	-11.02534
504.35	-13.03006
504.83	-25.05368
505.31	-29.06932
505.79	-36.08425
506.269	-2.00456
506.749	-50.11325
507.228	-47.10898
507.707	-54.11502
508.187	-43.09971
508.666	-39.09407
509.145	-21.04812
509.623	19.04353
510.102	-2.00471
510.581	-25.05847
511.059	10.02465
511.538	-12.03012
512.016	-3.00701
512.494	-24.0572
512.972	-41.09575
513.45	-23.05285
513.928	-8.01915
514.406	4.0096
514.884	-59.14831
515.361	-4.00935
515.839	-30.06695
516.316	-50.11821
516.793	19.04749
517.27	-39.09197
517.747	31.07835
518.224	-9.02036
518.701	12.02603
519.178	-12.02945
519.654	-9.02104
520.131	-28.06842
520.607	-10.02415
521.083	-67.15172
521.56	-26.06061
522.036	-75.1609
522.512	-82.19701
522.987	-36.08353
523.463	10.02326
523.939	-61.14703
524.414	-5.01113
524.89	19.04423
525.365	-71.15652
525.84	-69.16505
526.315	-9.02144
526.79	-42.09307
527.265	-32.07168
527.74	-41.09852
528.215	-42.09772
528.689	-9.01943
529.164	-39.08312
529.638	-62.15628
530.112	-42.09772
530.587	-47.09874
531.061	-69.16568
531.534	-92.2191
532.008	-82.19371
532.482	-51.11323
532.956	-85.21482
533.429	5.01181
533.903	-118.25517
534.376	-53.1139
534.849	-84.19134
535.322	-71.16398
535.795	-66.15935
536.268	-80.18877
536.741	-63.14834
537.213	-34.07657
537.686	23.05506
538.158	-84.18568
538.631	-125.29946
539.103	-98.21654
539.575	-45.09207
540.047	-81.17347
540.519	-35.08154
540.991	-38.09126
541.463	-63.14926
541.934	-41.09209
542.406	-67.15677
542.877	-124.27387
543.348	-71.16919
543.82	-43.10286
544.291	-72.16434
544.762	-114.26857
545.233	-31.07638
545.703	-66.14553
546.174	-81.18596
546.645	-48.11322
547.115	-41.09699
547.585	-54.12281
548.056	-88.21006
548.526	-27.06251
548.996	-91.21468
549.466	-21.05025
549.935	-67.15714
550.405	-101.22088
550.875	-17.0397
551.344	-105.25078
551.814	11.02476
552.283	-16.03411
552.752	-57.1306
553.221	-79.17313
553.69	-73.16012
554.159	-40.09709
554.628	-45.10078
555.096	-34.08475
555.565	-32.07026
556.033	-1.00229
556.502	-8.01893
556.97	-35.07638
557.438	-76.17528
557.906	-96.22441
558.374	-35.07881
558.842	-56.13111
559.31	-18.03877
559.777	-62.14777
560.245	-77.1733
560.712	0
561.18	1.00215
561.647	-40.08724
562.114	-13.02884
562.581	-15.03558
563.048	-62.13803
563.514	-19.04555
563.981	-43.0944
564.448	-5.01088
564.914	-69.15682
565.381	64.14017
565.847	77.17415
566.313	48.10788
566.779	34.07412
567.245	56.12777
567.711	52.12017
568.176	11.02422
568.642	84.20411
569.108	127.30007
569.573	80.1795
570.038	124.24377
570.504	106.22765
570.969	103.24704
571.434	132.27749
571.899	105.24057
572.363	109.23434
572.828	181.3888
573.293	179.38732
573.757	122.26494
574.222	180.37756
574.686	215.45765
575.15	142.31428
575.614	167.35826
576.078	200.44246
576.542	199.41843
577.006	177.3702
577.469	249.57185
577.933	176.36721
578.396	198.43913
578.86	237.52026
579.323	247.54792
579.786	263.52129
580.249	176.37732
580.712	238.53969
581.175	195.45412
581.637	178.38013
582.1	181.36699
582.563	159.3153
583.025	196.44825
583.487	187.35297
583.95	169.34266
584.412	180.34918
584.874	133.30375
585.336	167.37539
585.797	146.29474
586.259	140.30675
586.721	138.31053
587.182	124.26848
587.643	118.25309
588.105	183.41574
588.566	125.24637
589.027	111.25636
589.488	125.27314
589.949	125.28962
590.41	90.169
590.87	83.1796
591.331	93.1902
591.791	66.14596
592.252	105.23361
592.712	135.30856
593.172	66.14199
593.632	94.1956
594.092	36.07745
594.552	121.24769
595.011	49.10843
595.471	41.08754
595.931	6.0129
596.39	29.06695
596.849	52.1173
597.308	5.01044
597.768	62.15387
598.227	47.10916
598.685	32.07059
599.144	11.02518
599.603	76.17431
600.062	23.04734
600.52	22.04743
600.978	34.07845
601.437	42.09261
601.895	82.16713
602.353	40.08594
602.811	85.18211
603.269	82.18973
603.727	57.13212
604.184	20.04397
604.642	72.17022
605.099	4.00892
605.557	66.15567
606.014	72.14836
606.471	40.09665
606.928	24.05016
607.385	139.33033
607.842	68.15182
608.299	125.27706
608.755	40.09292
609.212	77.16462
609.668	114.24546
610.125	94.21593
610.581	122.27103
611.037	139.29974
611.493	104.23249
611.949	158.36237
612.405	144.27334
612.861	114.25252
613.316	166.37888
613.772	83.17998
614.227	119.27002
614.683	156.30769
615.138	113.25151
615.593	133.29639
616.048	125.27071
616.503	125.29134
616.958	177.42435
617.412	117.26365
617.867	102.21802
618.321	63.12236
618.776	154.3236
619.23	59.13274
619.684	87.18374
620.138	116.25288
620.592	96.22362
621.046	152.33431
621.5	103.23789
621.954	125.26295
622.407	71.14969
622.861	128.29709
623.314	82.1758
623.768	98.21808
624.221	59.11098
624.674	122.27238
625.127	58.12896
625.58	138.2965
626.033	108.22363
626.485	51.11896
626.938	93.21163
627.39	39.08605
627.843	108.23624
628.295	19.04192
628.747	37.08362
629.199	71.15455
629.651	83.18405
630.103	61.1351
630.555	62.12585
631.006	56.12529
631.458	26.05963
631.909	45.09708
632.361	26.0586
632.812	59.1323
633.263	22.04586
633.714	63.12902
634.165	35.08199
634.616	1.0023
635.067	36.07681
635.518	33.07579
635.968	73.13867
636.419	43.08982
636.869	11.02553
637.319	-1.00222
637.769	22.04708
638.219	8.0182
638.669	-37.08529
639.119	8.01899
639.569	10.0235
640.019	25.05532
640.468	1.00216
640.918	-3.00698
641.367	-20.04332
641.816	47.10087
642.265	1.00227
642.714	46.10185
643.163	-27.06002
643.612	-29.06815
644.061	-40.08201
644.51	0
644.958	3.00649
645.406	-29.06772
645.855	17.04029
646.303	16.03589
646.751	-19.04229
647.199	18.03927
647.647	44.09848
648.095	23.05094
648.543	17.033
648.99	-2.00462
649.438	51.11502
649.885	-11.0265
650.333	25.04631
650.78	37.08692
651.227	25.05983
651.674	0
652.121	-14.03293
652.568	-5.01189
653.015	49.11958
653.461	14.03261
653.908	21.04711
654.354	47.10868
654.801	-20.04626
655.247	41.08556
655.693	21.05366
656.139	-38.08859
656.585	49.11416
657.031	69.15955
657.477	-13.02729
657.922	43.09714
658.368	-26.06218
658.813	18.04029
659.259	8.01883
659.704	44.10063
660.149	8.0181
660.594	49.11195
661.039	-78.17559
661.484	35.07987
661.929	29.06556
662.373	66.16319
662.818	-24.05841
663.262	15.0353
663.707	4.00994
664.151	28.06658
664.595	8.01883
665.039	-11.02653
665.483	49.1226
665.927	-24.05458
666.371	2.00461
666.814	-38.08865
667.258	-31.07242
667.701	0
668.145	-13.03128
668.588	20.04818
669.031	0
669.474	16.03786
669.917	37.07914
670.36	-17.04115
670.803	2.00466
671.245	1.00205
671.688	54.12722
672.13	-25.05472
672.573	0
673.015	20.04708
673.457	45.09508
673.899	4.00936
674.341	42.09899
674.783	-7.01654
675.225	-1.00239
675.666	36.08597
676.108	8.01685
676.549	21.04808
676.991	-5.01067
677.432	35.06762
677.873	42.09505
678.314	36.08306
678.755	35.08267
679.196	13.02881
679.637	31.0733
680.078	-28.06357
680.518	16.03606
680.959	8.01871
681.399	-6.01453
681.839	50.11821
682.28	-12.02898
682.72	-6.01338
683.16	54.12999
683.6	-5.01098
684.039	16.03193
684.479	23.05544
684.919	7.01596
685.358	19.04673
685.798	4.01028
686.237	29.06703
686.676	56.12488
687.115	4.0091
687.554	5.01136
687.993	0
688.432	66.14632
688.871	16.03538
689.309	-11.02559
689.748	20.04026
690.186	13.02958
690.625	12.02737
691.063	30.06961
691.501	16.03802
691.939	-1.00243
692.377	-9.02129
692.815	0
693.253	57.13243
693.69	81.17204
694.128	54.12826
694.565	23.05312
695.003	-9.0221
695.44	60.13507
695.877	7.01595
696.314	19.03893
696.751	7.01515
697.188	3.00663
697.625	14.03026
698.061	51.11943
698.498	-10.02301
698.934	38.08897
699.371	0
699.807	6.0137
700.243	10.02314
700.679	49.10462
701.115	-20.04464
701.551	42.09463
701.987	27.05795
702.422	9.02097
702.858	35.08138
703.294	48.10331
703.729	-15.03565
704.164	56.129
704.599	33.0707
705.035	12.02606
705.47	16.03805
705.904	93.20914
706.339	18.03951
706.774	23.05168
707.209	3.00667
707.643	20.04642
708.078	32.07489
708.512	22.05372
708.946	-8.01841
709.38	-19.04374
709.814	-3.00654
710.248	39.09025
710.682	26.06049
711.116	37.08688
711.549	58.14515
711.983	-10.02245
712.416	-8.01811
712.85	53.12722
713.283	2.00457
713.716	16.03894
714.149	54.12216
714.582	28.0598
715.015	5.01196
715.448	24.05764
715.881	-20.04154
716.313	29.06588
716.746	29.06562
717.178	35.08174
717.61	-1.00245
718.043	-6.01444
718.475	-11.02585
718.907	38.09192
719.339	47.10405
719.77	3.00697
720.202	-2.00488
720.634	-6.01422
721.065	-12.02737
721.497	9.02109
721.928	16.03837
722.359	-24.0576
722.79	10.02336
723.221	53.12838
723.652	25.06208
724.083	25.05444
724.514	10.02193
724.945	27.06196
725.375	29.06532
725.806	11.02634
726.236	7.01717
726.666	41.09356
727.096	5.01177
727.526	44.10872
727.956	-13.02868
728.386	20.04725
728.816	9.02218
729.246	-8.01888
729.675	-46.11035
730.105	36.08537
730.534	-3.0067
730.964	25.06092
731.393	28.06674
731.822	46.11303
732.251	58.14304
732.68	25.05601
733.109	-23.05521
733.537	28.06558
733.966	-16.03843
734.395	-5.01114
734.823	-4.00863
735.251	-7.01637
735.68	29.06865
736.108	50.12222
736.536	27.06067
736.964	18.04098
737.392	-13.03168
737.82	26.06049
738.247	-22.05062
738.675	-28.06339
739.102	33.0802
739.53	24.0595
739.957	18.04472
740.384	-33.07734
740.811	-29.0713
741.238	-52.12246
741.665	33.07397
742.092	-89.20318
742.519	52.12565
742.945	-25.05808
743.372	2.0048
743.798	17.0421
744.225	18.04122
744.651	32.07834
745.077	-49.11779
745.503	29.06799
745.929	9.02079
746.355	3.00708
746.781	34.08194
747.207	19.04383
747.632	-51.12144
748.058	-36.08672
748.483	18.03964
748.908	-19.0458
749.334	-25.05948
749.759	72.16374
750.184	1.00233
750.609	27.06347
751.033	-1.00225
751.458	3.00636
751.883	-12.02861
752.307	7.01602
752.732	-21.05108
753.156	66.15971
753.58	-23.05187
754.005	-5.01218
754.429	-36.08157
754.853	12.02921
755.277	0
755.7	19.045
756.124	23.05542
756.548	27.06186
756.971	-47.10989
757.394	21.05247
757.818	20.05012
758.241	10.02443
758.664	-12.02931
759.087	-46.09964
759.51	39.09315
759.933	50.11642
760.356	11.02712
760.778	6.01434
761.201	21.04891
761.623	14.03239
762.046	31.06986
762.468	-43.09927
762.89	1.00236
763.312	-31.07274
763.734	-8.0187
764.156	13.03093
764.578	13.02806
765	-3.007
765.421	30.07494
765.843	65.16451
766.264	62.14117
766.686	-17.04153
767.107	-28.06635
767.528	-11.02716
767.949	40.09876
768.37	30.07101
768.791	-16.03709
769.212	42.10316
769.632	-19.04343
770.053	19.04869
770.473	-3.00702
770.894	-5.01199
771.314	13.02943
771.734	22.04957
772.154	6.01486
772.575	-42.09261
772.994	-24.05285
773.414	11.02507
773.834	-22.05298
774.254	13.03036
774.673	10.02341
775.093	4.00962
775.512	-11.02628
775.931	13.03182
776.351	35.08398
776.77	13.03097
777.189	25.05687
777.607	10.02484
778.026	-14.03348
778.445	55.13462
778.864	58.14368
779.282	-13.03026
779.701	-34.08268
780.119	34.08373
780.537	13.03161
780.955	28.06819
781.373	-4.00957
781.791	5.01084
782.209	45.09746
782.627	-30.07697
783.045	20.0436
783.462	43.10638
783.88	-10.02522
784.297	-38.0922
784.715	33.08239
785.132	-3.00701
785.549	37.08952
785.966	-14.03393
786.383	7.01666
786.8	-54.11917
787.217	11.02493
787.633	17.04124
788.05	-14.03124
788.466	17.03752
788.883	53.13146
789.299	41.09564
789.715	-12.02794
790.131	2.00479
790.547	-38.09154
790.963	-8.01916
791.379	7.01714
791.795	33.07162
792.21	4.00896
792.626	32.07327
793.041	-44.10515
793.457	38.08994
793.872	40.0896
794.287	-22.05131
794.702	-44.10394
795.117	-21.05064
795.532	-11.02694
795.947	-50.11177
796.362	-15.03404
796.776	-30.06498
797.191	-9.02107
797.605	37.08454
798.02	13.03072
798.434	8.01676
798.848	-33.07834
799.262	41.09845
799.676	7.01633
800.09	-22.05143
800.504	5.01151
800.918	4.0089
801.331	15.03759
801.745	-67.1464
802.158	-21.05054
802.572	-8.01855
802.985	18.04102
803.398	-51.11615
803.811	13.03181
804.224	43.10168
804.637	-23.05278
805.05	6.01307
805.462	-5.01167
805.875	28.07116
806.288	-29.06762
806.7	-12.02912
807.112	32.07053
807.525	-45.10563
807.937	14.03321
808.349	-1.00241
808.761	-7.01646
809.173	-19.04421
809.584	-2.00466
809.996	34.08041
810.408	9.02258
810.819	16.03624
811.231	-1.00256
811.642	32.0748
812.053	0
812.464	30.06798
812.875	-14.03441
813.286	6.01497
813.697	-8.01756
814.108	-15.03486
814.519	-1.00209
814.929	15.03614
815.34	10.02332
815.75	-2.00492
816.16	-20.0473
816.571	60.14955
816.981	-25.05634
817.391	15.03455
817.801	63.14989
818.211	-15.03406
818.62	60.13783
819.03	-25.05797
819.44	13.03236
819.849	-3.00724
820.259	-13.0318
820.668	-6.01427
821.077	52.1256
821.486	-34.07764
821.895	6.01399
822.304	-13.0334
822.713	-23.05187
823.122	4.00953
823.531	-6.01357
823.939	-20.04681
824.348	12.02775
824.756	29.0686
825.164	-28.06686
825.573	-9.0217
825.981	-21.04981
826.389	-59.14032
826.797	-30.07232
827.205	57.12455
827.612	6.01402
828.02	15.03397
828.428	22.0539
828.835	11.02798
829.243	31.07077
829.65	21.05064
830.057	29.0669
830.464	17.03961
830.871	34.0771
831.278	-4.00934
831.685	-29.06068
832.092	-12.02773
832.499	60.12313
832.905	3.00729
833.312	50.10761
833.718	-14.0333
834.124	-45.09683
834.531	35.08407
834.937	-22.05412
835.343	28.06414
835.749	-14.03083
836.155	44.11063
836.561	-23.05397
836.966	22.05151
837.372	21.0511
837.777	-6.01434
838.183	17.03556
838.588	24.05714
838.993	0
839.399	-49.11542
839.804	32.07606
840.209	-14.03448
840.613	58.12032
841.018	-42.1016
841.423	19.0467
841.828	4.00985
842.232	-9.02087
842.637	8.01799
843.041	16.03991
843.445	2.00479
843.849	8.01937
844.253	13.02914
844.657	-37.09019
845.061	45.09746
845.465	28.06566
845.869	-59.12963
846.272	30.07016
846.676	-19.04353
847.079	-14.03445
847.483	30.07068
847.886	-21.04813
848.289	-1.00261
848.692	-42.10217
849.095	7.01588
849.498	77.18377
849.901	12.02606
850.304	-4.00901
850.707	-12.02932
851.109	53.12726
851.512	-15.0354
851.914	17.04189
852.316	-8.01948
852.718	57.14277
853.121	-46.10728
853.523	-13.02881
853.925	-2.00509
854.326	10.02395
854.728	76.18792
855.13	6.01516
855.531	29.06564
855.933	37.08307
856.334	26.06268
856.736	30.06421
857.137	30.06634
857.538	24.05827
857.939	23.05464
858.34	-34.0787
858.741	-2.00502
859.142	-13.02958
859.542	14.03563
859.943	-22.05219
860.343	2.0048
860.744	-25.0573
861.144	36.08333
861.544	52.1216
861.945	-2.00496
862.345	35.08096
862.745	32.07609
863.145	54.11967
863.544	12.02907
863.944	-43.09674
864.344	-9.02117
864.743	-23.05361
865.143	26.06363
865.542	3.0067
865.941	81.1922
866.34	22.0494
866.74	15.03917
867.139	22.05038
867.537	50.122
867.936	2.00454
868.335	22.0538
868.734	29.07143
869.132	3.00667
869.531	23.05223
869.929	36.07801
870.327	30.06842
870.726	50.11784
871.124	15.0331
871.522	17.04153
871.92	18.04216
872.318	63.14712
872.715	46.10736
873.113	12.02783
873.511	-11.02642
873.908	8.01966
874.306	28.06668
874.703	-20.04749
875.1	7.01691
875.497	-74.16856
875.894	29.0694
876.291	39.0904
876.688	-11.0271
877.085	-49.11168
877.482	8.01913
877.878	-25.05763
878.275	-13.03181
878.671	7.01437
879.068	-5.01144
879.464	-14.03194
879.86	4.00905
880.256	-73.17028
880.652	40.09836
881.048	16.03771
881.444	-9.0204
881.84	56.13618
882.236	31.07458
882.631	48.11229
883.027	-7.01594
883.422	-6.01465
883.817	-26.0636
884.213	4.00982
884.608	25.05886
885.003	57.13086
885.398	6.01455
885.793	-11.02644
886.188	43.10353
886.582	2.00481
886.977	-23.05117
887.371	-10.02401
887.766	66.15989
888.16	-9.02128
888.554	-37.08542
888.949	-43.10054
889.343	8.01846
889.737	5.01312
890.131	58.14062
890.525	-44.10744
890.918	-28.06842
891.312	32.0731
891.706	-6.01511
892.099	-2.00481
892.492	48.09552
892.886	0
893.279	43.10502
893.672	-9.02212
894.065	9.02122
894.458	-30.07158
894.851	-2.0046
895.244	16.03945
895.637	-49.1111
896.029	-10.02338
896.422	40.09226
896.814	30.07087
897.206	-10.02282
897.599	-41.09541
897.991	31.07106
898.383	7.0156
898.775	-7.01493
899.167	-2.00447
899.559	24.05753
899.951	2.00446
900.342	7.0168
900.734	-32.07744
901.125	-9.02233
901.517	3.00699
901.908	-5.01125
902.299	69.16145
902.69	13.02875
903.082	-10.02282
903.473	-5.01142
903.863	-12.02917
904.254	-2.0044
904.645	-2.00467
905.036	4.00932
905.426	19.04039
905.817	-14.03287
906.207	44.10116
906.597	-7.01555
906.987	-9.02208
907.378	2.00488
907.768	8.02022
908.158	-21.04837
908.547	7.01745
908.937	-15.03681
909.327	-24.05524
909.717	3.00718
910.106	33.07461
910.495	-16.03768
910.885	0
911.274	12.02869
911.663	34.08119
912.052	35.08141
912.441	-17.04156
912.83	13.02797
913.219	-10.02487
913.608	7.01644
913.997	-15.03641
914.385	-29.06455
914.774	24.05555
915.162	-44.10019
915.55	-13.02961
915.939	-66.16019
916.327	44.10398
916.715	-32.07863
917.103	17.03917
917.491	-5.01169
917.878	35.08251
918.266	-33.08203
918.654	-57.13967
919.041	50.12598
919.429	4.00898
919.816	-6.01429
920.203	-1.0023
920.591	-9.02113
920.978	-27.06209
921.365	-37.09358
921.752	23.05198
922.139	28.05658
922.525	8.01834
922.912	-26.06032
923.299	-35.08395
923.685	40.10028
924.072	69.14847
924.458	1.00237
924.844	3.00715
925.231	-38.0847
925.617	-26.0633
926.003	-10.02446
926.389	26.06273
926.774	-17.04141
927.16	26.06063
927.546	77.19071
927.931	3.00702
928.317	-38.08179
928.702	-39.08652
929.088	-60.13413
929.473	-2.00484
929.858	28.06609
930.243	-24.05515
930.628	-29.06655
931.013	-35.08324
931.398	76.16188
931.783	-3.0075
932.167	22.0507
932.552	51.12148
932.937	-4.00937
933.321	-8.01909
933.705	4.00964
934.09	-11.02594
934.474	22.04865
934.858	12.02999
935.242	26.05764
935.626	-1.00247
936.009	-15.03833
936.393	38.09241
936.777	-15.03701
937.16	2.00499
937.544	59.12958
937.927	19.04647
938.311	5.0114
938.694	32.08057
939.077	14.03157
939.46	-1.0023
939.843	45.08606
940.226	-10.02449
940.609	50.10826
940.991	-13.03167
941.374	-20.04635
941.757	-4.00934
942.139	-5.01053
942.522	-8.01756
942.904	40.09156
943.286	-3.00717
943.668	-1.00247
944.05	-22.05173
944.432	29.0678
944.814	-26.06059
945.196	25.05914
945.578	0
945.959	45.09999
946.341	-3.00688
946.722	8.01753
947.104	7.0159
947.485	-10.02173
947.866	79.19171
948.247	-8.01921
948.628	-43.09923
949.009	13.03188
949.39	-10.02348
949.771	2.00434
950.152	-38.08918
950.532	5.01191
950.913	15.03423
951.293	-12.03157
951.674	5.01148
952.054	11.02612
952.434	-9.02117
952.814	13.02909
953.194	14.03487
953.574	-5.01153
953.954	-38.08512
954.334	-19.04495
954.714	39.09083
955.093	-77.17756
955.473	24.05786
955.853	-14.03481
956.232	34.08945
956.611	-10.02251
956.99	47.1135
957.37	23.05621
957.749	-17.03837
958.128	4.00969
958.506	15.03726
958.885	32.07691
959.264	5.01185
959.643	-27.05705
960.021	-30.07098
960.4	-4.00853
960.778	-1.00228
961.156	10.02375
961.535	17.03723
961.913	38.08256
962.291	25.06174
962.669	-17.04138
963.047	9.02221
963.424	-5.01224
963.802	-20.04679
964.18	32.07636
964.557	42.09039
964.935	15.03337
965.312	7.01769
965.69	3.00713
966.067	-6.01368
966.444	20.04666
966.821	1.00247
967.198	-13.02955
967.575	9.02084
967.952	-4.00881
968.329	-17.03925
968.705	-28.05536
969.082	26.06344
969.458	-34.07976
969.835	64.14884
970.211	51.12479
970.587	15.03497
970.963	52.12707
971.339	6.01505
971.715	-18.04302
972.091	21.04941
972.467	-18.04204
972.843	-6.01438
973.219	6.01329
973.594	-38.09503
973.97	22.04869
974.345	31.07017
974.721	40.09141
975.096	-15.03478
975.471	45.09945
975.846	-9.02028
976.221	-10.0243
976.596	-30.06845
976.971	5.01158
977.346	21.04585
977.72	52.12569
978.095	-22.05458
978.469	2.0045
978.844	54.12707
979.218	-46.10609
979.593	-31.06966
979.967	1.00229
980.341	-7.01521
980.715	-17.04118
981.089	-22.05266
981.463	-47.10174
981.837	-22.05127
982.21	-22.04708
982.584	-17.03919
982.957	8.01924
983.331	-13.02863
983.704	20.04723
984.078	22.05185
984.451	8.01869
984.824	3.00697
985.197	-22.05064
985.57	-22.05225
985.943	-38.0875
986.316	27.06156
986.688	20.04543
987.061	25.05486
987.434	12.02992
987.806	0
988.179	11.02456
988.551	-8.01922
988.923	1.00233
989.295	49.1147
989.667	9.02064
990.039	5.01189
990.411	24.05225
990.783	-32.06923
991.155	-3.00693
991.527	-1.00227
991.898	9.02136
992.27	-25.05928
992.641	41.0968
993.012	21.04577
993.384	10.02265
993.755	-26.06363
994.126	40.09086
994.497	17.0395
994.868	18.03886
995.239	4.00916
995.61	22.05296
995.98	-21.04815
996.351	-3.00719
996.722	31.06866
997.092	-39.08781
997.462	14.03163
997.833	-5.01108
998.203	-41.09413
998.573	48.11458
998.943	-12.02661
999.313	16.03637
999.683	-16.03668
1000.053	-16.0345
1000.423	21.04819
1000.792	-7.01721
1001.162	3.00703
1001.531	39.09208
1001.901	55.12945
1002.27	12.0248
1002.639	-4.00987
1003.009	25.05638
1003.378	73.17795
1003.747	12.02669
1004.116	14.03211
1004.485	-33.07491
1004.853	3.00719
1005.222	31.07509
1005.591	24.05372
1005.959	-28.05987
1006.328	10.02122
1006.696	-28.06448
1007.064	24.05746
1007.433	1.00236
1007.801	-4.00923
1008.169	20.04761
1008.537	24.0493
1008.905	37.08232
1009.273	14.03253
1009.64	27.06219
1010.008	39.08709
1010.375	9.02028
1010.743	58.12322
1011.11	-59.13252
1011.478	-13.03053
1011.845	2.00443
1012.212	-10.02149
1012.579	-35.08177
1012.946	49.10847
1013.313	-25.05534
1013.68	-22.04633
1014.047	35.08016
1014.414	14.03149
1014.78	6.01423
1015.147	0
1015.513	-24.05493
1015.88	-17.0409
1016.246	30.06974
1016.612	5.01063
1016.978	-10.02339
1017.344	40.09394
1017.71	6.01347
1018.076	-18.03977
1018.442	10.02425
1018.808	-10.02387
1019.174	-2.0048
1019.539	-10.02098
1019.905	-16.03569
1020.27	-32.07609
1020.636	-2.00446
1021.001	-34.07654
1021.366	15.03427
1021.731	7.01711
1022.096	-20.04851
1022.461	15.03343
1022.826	43.09725
1023.191	2.00502
1023.556	16.03516
1023.92	-2.00465
1024.285	30.06963
1024.649	-27.06228
1025.014	-21.04923
1025.378	-4.0096
1025.742	-21.04975
1026.107	-42.08966
1026.471	2.00438
1026.835	-39.09229
1027.199	27.06236
1027.562	-21.04593
1027.926	-12.02782
1028.29	4.00967
1028.654	49.1048
1029.017	28.06486
1029.381	26.05913
1029.744	4.0098
1030.107	24.05292
1030.471	-24.05381
1030.834	-30.06426
1031.197	-19.04266
1031.56	34.07582
1031.923	33.08263
1032.286	-15.03246
1032.648	34.07663
1033.011	-27.05885
1033.374	51.11257
1033.736	37.09404
1034.099	-10.02322
1034.461	60.14514
1034.823	-14.03339
1035.185	6.01435
1035.548	-10.023
1035.91	50.11325
1036.272	35.0744
1036.634	20.04558
1036.995	26.0575
1037.357	28.06517
1037.719	13.03014
1038.08	-4.00896
1038.442	14.03136
1038.803	15.03423
1039.165	-14.03402
1039.526	-17.03887
1039.887	36.08157
1040.248	-31.07285
1040.609	18.04175
1040.97	-22.05068
1041.331	-26.0628
1041.692	19.04245
1042.053	26.05507
1042.413	-20.04377
1042.774	-15.0342
1043.134	24.05325
1043.495	49.11793
1043.855	-7.01607
1044.215	11.02578
1044.576	-11.02513
1044.936	-11.02319
1045.296	39.0919
1045.656	64.1482
1046.016	39.08878
1046.375	33.07528
1046.735	-2.00432
1047.095	56.12482
1047.454	-7.01355
1047.814	39.08817
1048.173	86.19169
1048.533	0
1048.892	18.0419
1049.251	-16.03806
1049.61	11.02587
1049.969	34.07632
1050.328	-17.03403
1050.687	-20.04627
1051.046	5.01152
1051.405	41.09631
1051.763	10.0218
1052.122	21.0505
1052.48	-19.04397
1052.839	11.02453
1053.197	6.01343
1053.555	-38.08003
1053.914	0
1054.272	16.0363
1054.63	30.06994
1054.988	5.01135
1055.345	31.06165
1055.703	-24.05436
1056.061	-20.04934
1056.419	33.08254
1056.776	7.01586
1057.134	27.0596
1057.491	-52.12356
1057.848	0
1058.206	44.09779
1058.563	7.01447
1058.92	-3.00647
1059.277	21.04889
1059.634	-30.06573
1059.991	33.07409
1060.348	22.04655
1060.704	-13.02979
1061.061	-1.00215
1061.418	51.11859
1061.774	22.05177
1062.131	-9.02305
1062.487	-28.06262
1062.843	8.01892
1063.199	-26.06178
1063.555	-4.00863
1063.911	-57.13791
1064.267	40.07611
1064.623	78.18133
1064.979	-28.06218
1065.335	47.10517
1065.691	-6.01362
1066.046	29.05996
1066.402	38.08175
1066.757	-7.01685
1067.112	-3.00693
1067.468	28.0635
1067.823	25.05673
1068.178	-17.03873
1068.533	-29.06596
1068.888	35.07738
1069.243	-20.04688
1069.598	2.00462
1069.952	22.04727
1070.307	33.07788
1070.662	-19.04275
1071.016	-10.02147
1071.371	-41.08792
1071.725	9.02023
1072.079	-51.11648
1072.434	-13.03024
1072.788	21.04711
1073.142	25.05749
1073.496	13.0294
1073.85	34.07355
1074.203	12.02746
1074.557	-15.03854
1074.911	41.09145
1075.265	65.14113
1075.618	-37.08512
1075.971	0
1076.325	16.03904
1076.678	12.02622
1077.031	-7.01509
1077.385	-44.09054
1077.738	-52.11047
1078.091	-51.1105
1078.444	25.05454
1078.796	63.1473
1079.149	10.02341
1079.502	11.02469
1079.855	-25.0553
1080.207	-27.06323
1080.56	-17.04203
1080.912	16.03683
1081.264	8.01826
1081.617	-15.03488
1081.969	5.01222
1082.321	-5.01161
1082.673	57.12381
1083.025	17.03829
1083.377	309.65629
1083.728	33.07214
1084.08	37.08827
1084.432	-34.07742
1084.783	41.08978
1085.135	21.0501
1085.486	33.07235
1085.838	-27.06298
1086.189	36.08376
1086.54	-4.00902
1086.891	-25.06076
1087.242	-20.0458
1087.593	-6.01375
1087.944	8.01689
1088.295	-8.0169
1088.646	-16.0367
1088.996	-19.04345
1089.347	36.08405
1089.698	30.06773
1090.048	-59.14575
1090.398	4.00868
1090.749	30.06665
1091.099	5.01208
1091.449	29.06897
1091.799	-5.0119
1092.149	4.00949
1092.499	4.00919
1092.849	18.04384
1093.199	35.08276
1093.548	16.03627
1093.898	-38.0905
1094.248	-16.03888
1094.597	26.06474
1094.947	-19.04892
1095.296	-10.02333
1095.645	-6.01476
1095.994	39.08763
1096.343	-59.14135
1096.692	13.03302
1097.041	14.0371
1097.39	-57.13384
1097.739	-48.11982
1098.088	-13.03311
1098.437	11.02824
1098.785	-8.02071
1099.134	-9.02284
1099.482	3.00798
1099.83	9.02245
1100.179	55.13836
1100.527	25.06395
1100.875	31.07896
1101.223	-8.02035
1101.571	9.02408
1101.919	-3.00774
1102.267	0
1102.615	8.0257
1102.962	0
1103.31	4.01286
1103.658	-2.00642
