Data from N3 R9 sample 9_Subt2__1__15-11-06-041.txt Node

Date: Mon Sep 22 15:11:06 PDT 2025
User: uwsun
Spectrometer: HDX01956
Trigger mode: 0
Integration Time (sec): 5.000000E-1
Scans to average: 1
Nonlinearity correction enabled: true
Boxcar width: 0
Storing dark spectrum: false
XAxis mode: Wavelengths
Number of Pixels in Spectrum: 2068
>>>>>Begin Spectral Data<<<<<
194.03	8.02329
194.578	3.00974
195.127	0
195.676	5.01607
196.225	-5.01321
196.773	-4.01115
197.321	20.05595
197.87	27.06974
198.418	85.22085
198.966	26.06907
199.513	4.01018
200.061	19.04906
200.609	24.06376
201.156	40.08824
201.704	46.11752
202.251	31.08362
202.798	-25.06636
203.345	22.05468
203.892	52.13243
204.438	52.12546
204.985	28.06811
205.532	30.0803
206.078	70.17397
206.624	74.18505
207.17	30.07024
207.716	-5.01237
208.262	17.03409
208.808	3.00758
209.354	-18.04416
209.899	70.17783
210.445	60.15226
210.99	27.06648
211.535	100.2377
212.08	-5.01186
212.625	38.09571
213.17	18.04579
213.715	0
214.259	27.06355
214.804	32.07912
215.348	31.07211
215.892	22.05324
216.436	0
216.98	20.04478
217.524	27.06424
218.068	104.26045
218.612	39.09811
219.155	41.09721
219.698	63.15036
220.242	38.0942
220.785	43.10046
221.328	36.09022
221.871	27.06746
222.414	46.1147
222.956	64.15522
223.499	34.07676
224.041	36.08253
224.583	-4.00862
225.126	58.12912
225.668	36.08761
226.21	16.04055
226.751	52.11456
227.293	-12.02754
227.835	17.04153
228.376	18.0411
228.918	51.12853
229.459	44.10991
230	34.08135
230.541	1.00228
231.082	104.25526
231.622	-15.03489
232.163	54.13156
232.704	60.14863
233.244	36.09016
233.784	5.01221
234.324	72.15949
234.864	14.03154
235.404	68.16101
235.944	6.01422
236.484	29.07253
237.023	26.06154
237.563	19.04406
238.102	-7.01646
238.641	21.05285
239.18	18.04213
239.719	8.02006
240.258	49.10997
240.797	55.13192
241.335	-2.00485
241.874	69.131
242.412	-15.03596
242.95	-13.03151
243.488	9.02055
244.026	-42.09652
244.564	-9.01843
245.102	50.1114
245.64	24.05736
246.177	-10.02215
246.715	24.05694
247.252	76.17417
247.789	28.05219
248.326	74.17948
248.863	92.20201
249.4	28.06285
249.936	85.17557
250.473	17.03944
251.009	43.09951
251.546	-16.0354
252.082	26.05603
252.618	32.07148
253.154	-11.02645
253.69	-6.0134
254.226	25.0596
254.761	34.07629
255.297	36.07905
255.832	23.05514
256.367	26.06149
256.903	39.08605
257.438	38.08848
257.972	38.08526
258.507	-13.03001
259.042	51.11205
259.576	6.01312
260.111	69.15828
260.645	36.07775
261.179	18.04193
261.713	54.11867
262.247	62.14277
262.781	1.00209
263.315	25.06171
263.849	-7.01765
264.382	63.14388
264.915	97.22804
265.449	0
265.982	71.16222
266.515	-20.04842
267.048	17.03704
267.58	12.02592
268.113	24.05228
268.646	44.10947
269.178	20.04482
269.71	-22.04747
270.243	1.00228
270.775	-11.02793
271.307	9.02163
271.838	64.15013
272.37	5.01226
272.902	-27.06146
273.433	10.02202
273.965	-15.03622
274.496	17.04247
275.027	94.23166
275.558	64.15429
276.089	12.03011
276.62	0
277.15	57.13926
277.681	57.12286
278.211	64.1568
278.741	57.12729
279.272	-63.14371
279.802	57.14169
280.332	49.11632
280.861	32.07662
281.391	57.12887
281.921	16.03793
282.45	75.1865
282.98	48.12392
283.509	50.11325
284.038	49.11092
284.567	36.08353
285.096	49.11775
285.625	33.07518
286.153	37.08773
286.682	19.04399
287.21	78.18797
287.739	59.13951
288.267	19.04628
288.795	28.07359
289.323	99.2321
289.851	-7.01644
290.378	45.10082
290.906	10.02453
291.433	50.12508
291.961	64.14637
292.488	55.13642
293.015	8.01881
293.542	15.03788
294.069	7.01734
294.596	30.07374
295.122	85.20286
295.649	-20.0443
296.175	57.13791
296.702	42.10145
297.228	8.01923
297.754	105.23642
298.28	27.06102
298.806	76.18495
299.332	57.12739
299.857	80.18333
300.383	7.01755
300.908	46.11182
301.433	65.15803
301.958	82.1892
302.483	65.16381
303.008	73.17948
303.533	38.09817
304.058	101.2354
304.582	49.11703
305.107	75.19701
305.631	22.04993
306.155	19.0442
306.679	59.138
307.203	91.21101
307.727	99.23301
308.251	70.17137
308.775	75.17995
309.298	34.08209
309.822	30.07597
310.345	34.07973
310.868	73.17535
311.391	38.09355
311.914	103.25985
312.437	55.12424
312.96	96.2267
313.482	47.11196
314.005	64.16253
314.527	43.11345
315.049	57.14318
315.571	96.21673
316.093	48.11821
316.615	119.29019
317.137	88.19086
317.659	84.20297
318.18	21.05056
318.702	36.08432
319.223	56.11585
319.744	101.22685
320.265	67.16472
320.786	66.16379
321.307	58.14473
321.828	75.16859
322.348	30.07087
322.869	54.12767
323.389	8.01376
323.909	144.32787
324.43	40.09519
324.95	57.13097
325.47	119.29278
325.989	122.28742
326.509	73.16322
327.029	49.10942
327.548	101.23113
328.067	116.28166
328.587	82.2029
329.106	77.17578
329.625	71.18492
330.144	83.19246
330.662	115.26666
331.181	81.18975
331.7	94.22077
332.218	121.26641
332.736	61.14368
333.255	99.2311
333.773	95.2242
334.291	85.21198
334.808	114.2561
335.326	100.22354
335.844	115.26761
336.361	114.28827
336.879	93.2171
337.396	110.26147
337.913	70.16009
338.43	103.2321
338.947	121.28789
339.464	94.20248
339.981	131.3112
340.497	81.19826
341.014	46.11224
341.53	142.31926
342.046	166.40487
342.562	129.31621
343.078	79.18637
343.594	148.34772
344.11	118.27475
344.626	132.33092
345.141	138.31218
345.657	164.36736
346.172	112.26632
346.687	80.18098
347.202	157.35147
347.717	171.4034
348.232	127.31246
348.747	81.18395
349.261	168.36639
349.776	185.42862
350.29	116.28545
350.805	134.3267
351.319	154.35376
351.833	182.41623
352.347	78.18018
352.861	100.22944
353.374	180.40901
353.888	197.47194
354.401	186.42144
354.915	179.40253
355.428	182.44157
355.941	185.43083
356.454	175.3819
356.967	179.42195
357.48	174.39554
357.993	147.35819
358.505	198.48363
359.018	152.36546
359.53	186.44856
360.042	188.40775
360.554	183.43807
361.066	172.41621
361.578	217.46673
362.09	166.383
362.602	214.46473
363.113	167.38201
363.625	187.41811
364.136	173.36969
364.647	142.33128
365.158	147.33545
365.669	172.40332
366.18	186.42863
366.691	257.54847
367.201	222.51607
367.712	131.2929
368.222	161.36384
368.733	205.43579
369.243	242.52419
369.753	217.49358
370.263	229.53518
370.773	225.54045
371.282	227.52029
371.792	251.55818
372.301	178.42228
372.811	273.69529
373.32	259.5369
373.829	250.58276
374.338	276.59655
374.847	226.50373
375.356	286.65695
375.865	290.59753
376.373	326.71185
376.882	294.71352
377.39	346.79633
377.898	323.76724
378.407	337.73166
378.915	317.6583
379.423	356.7941
379.93	361.76271
380.438	389.89402
380.946	399.8703
381.453	469.04904
381.96	557.20263
382.468	473.03537
382.975	539.20935
383.482	560.15821
383.989	550.27867
384.495	544.12959
385.002	578.09617
385.509	621.30779
386.015	631.09026
386.521	738.43837
387.028	769.48575
387.534	786.45453
388.04	799.62195
388.546	862.62085
389.051	837.51944
389.557	904.73576
390.063	924.72829
390.568	1005.93879
391.073	1121.98708
391.578	1112.15993
392.084	1103.92279
392.589	1095.84383
393.093	1274.32956
393.598	1387.28039
394.103	1490.52845
394.607	1643.72544
395.112	1734.86758
395.616	1878.88845
396.12	2005.73001
396.624	2311.12653
397.128	2433.17431
397.632	2709.12421
398.136	2866.0407
398.639	3139.14742
399.143	3506.61558
399.646	3905.91438
400.15	4406.67268
400.653	4805.44816
401.156	5457.91136
401.659	6263.89566
402.162	7886.03681
402.664	10170.34398
403.167	14527.38508
403.67	27369.65788
404.172	59053.86217
404.674	62421.90989
405.176	60252.21675
405.678	57642.47783
406.18	55467.82182
406.682	56151.3881
407.184	60564.14267
407.686	63049.78229
408.187	45424.07596
408.688	26410.25153
409.19	18259.44433
409.691	14646.69661
410.192	12481.06239
410.693	10835.18152
411.194	9850.40487
411.694	9288.01485
412.195	8569.97428
412.696	7649.88672
413.196	7153.23946
413.696	6974.77851
414.196	7059.33801
414.696	6931.91855
415.196	6637.62992
415.696	6067.50297
416.196	4854.41742
416.695	3788.12051
417.195	3189.26149
417.694	2962.42789
418.194	2928.59229
418.693	2670.03993
419.192	2568.17851
419.691	2567.16748
420.19	2459.17604
420.688	2401.26481
421.187	2364.47324
421.685	2183.95623
422.184	1967.8268
422.682	1680.41748
423.18	1481.4307
423.678	1270.16354
424.176	1197.10132
424.674	1177.97819
425.172	1148.11209
425.669	958.93578
426.167	950.79537
426.664	814.53869
427.161	850.63114
427.659	718.50074
428.156	670.19629
428.652	662.47988
429.149	588.25204
429.646	677.31586
430.143	573.22349
430.639	475.0012
431.135	484.0971
431.632	464.96032
432.128	427.93254
432.624	396.93786
433.12	391.82066
433.616	325.65142
434.111	361.79209
434.607	363.79615
435.103	331.64687
435.598	299.57047
436.093	310.66946
436.588	321.66453
437.083	258.54523
437.578	240.5183
438.073	258.60968
438.568	289.66822
439.062	240.47782
439.557	256.56776
440.051	173.37466
440.546	249.53993
441.04	239.54823
441.534	167.40358
442.028	206.46695
442.522	197.45425
443.015	188.38911
443.509	177.41236
444.002	160.37034
444.496	111.23052
444.989	173.40225
445.482	159.38091
445.975	144.31592
446.468	165.34235
446.961	136.27215
447.454	138.29854
447.947	186.42538
448.439	126.29373
448.931	162.35106
449.424	122.294
449.916	88.20207
450.408	120.2626
450.9	99.23328
451.392	88.21175
451.884	104.22826
452.375	113.27113
452.867	87.18672
453.358	43.09412
453.849	107.21605
454.341	83.17883
454.832	59.12209
455.323	76.17828
455.814	44.09759
456.304	57.12687
456.795	60.13197
457.285	128.27146
457.776	100.21745
458.266	5.01149
458.756	74.17128
459.247	25.0573
459.737	96.22053
460.226	69.14822
460.716	69.15816
461.206	60.13965
461.695	15.0359
462.185	76.17242
462.674	86.1882
463.163	75.1602
463.653	64.1292
464.142	78.18076
464.63	107.24978
465.119	70.15596
465.608	27.05987
466.096	71.15034
466.585	18.03996
467.073	85.19717
467.561	12.02797
468.05	-34.07641
468.538	28.06643
469.026	33.0764
469.513	25.05162
470.001	29.06393
470.489	92.21185
470.976	60.13463
471.463	28.0675
471.951	32.07668
472.438	80.1809
472.925	37.08396
473.412	76.1794
473.899	30.06643
474.385	60.14278
474.872	15.034
475.359	62.14873
475.845	13.02618
476.331	63.13095
476.817	55.1293
477.303	70.1568
477.789	21.04887
478.275	-59.14329
478.761	46.10643
479.247	47.10253
479.732	17.04119
480.218	48.12228
480.703	-12.02921
481.188	58.12026
481.673	-9.02001
482.158	26.05512
482.643	20.04938
483.128	24.05407
483.612	8.01821
484.097	19.04455
484.581	-34.07644
485.066	8.01903
485.55	66.14089
486.034	41.08712
486.518	0
487.002	17.04139
487.486	50.11995
487.969	14.03389
488.453	19.04656
488.936	23.05104
489.42	-15.03204
489.903	10.02447
490.386	-20.04467
490.869	19.04014
491.352	8.01898
491.835	-30.06028
492.318	19.0418
492.8	-21.04227
493.283	-7.01744
493.765	4.00963
494.247	-4.00909
494.73	32.06932
495.212	22.05143
495.694	-49.11295
496.175	7.01652
496.657	-37.08471
497.139	-9.01519
497.62	-21.04939
498.102	9.02198
498.583	-44.10788
499.064	17.03707
499.545	-15.03361
500.026	-9.01961
500.507	29.06591
500.988	-39.09404
501.469	-78.19272
501.949	-27.06491
502.43	-21.0492
502.91	-10.02021
503.39	17.04155
503.87	-18.04153
504.35	5.01152
504.83	-12.02569
505.31	-6.01428
505.79	-43.10077
506.269	-26.05961
506.749	-30.06767
507.228	-32.07398
507.707	-126.27258
508.187	-97.22732
508.666	-53.12818
509.145	-5.01142
509.623	3.0069
510.102	-28.06627
510.581	-26.06083
511.059	-37.09201
511.538	-33.08313
512.016	-30.07049
512.494	-13.03092
512.972	-53.12406
513.45	-20.04593
513.928	-24.05762
514.406	-22.05306
514.884	-71.17886
515.361	-48.11317
515.839	-40.08946
516.316	-51.1206
516.793	-8.02009
517.27	-40.09435
517.747	-3.00763
518.224	-50.11403
518.701	-18.03929
519.178	-29.0714
519.654	-11.02573
520.131	-32.07825
520.607	-69.16851
521.083	-50.11283
521.56	-63.14793
522.036	-82.17618
522.512	-97.23371
522.987	-91.21343
523.463	-61.14385
523.939	-52.12512
524.414	-63.14197
524.89	-17.03986
525.365	-94.20822
525.84	-55.13121
526.315	-9.02144
526.79	-19.0419
527.265	-21.04693
527.74	-58.13983
528.215	-53.12358
528.689	-49.10671
529.164	-70.1502
529.638	-76.19204
530.112	-72.16851
530.587	-83.17575
531.061	-58.13898
531.534	-79.18767
532.008	-55.12925
532.482	-58.12896
532.956	-94.23795
533.429	-21.04987
533.903	-96.20662
534.376	-109.23707
534.849	-68.15439
535.322	-93.21573
535.795	-85.20596
536.268	-106.25138
536.741	-101.23957
537.213	-60.13584
537.686	-37.08959
538.158	-97.215
538.631	-38.08953
539.103	-125.27776
539.575	-10.0203
540.047	-96.20626
540.519	-76.17849
540.991	-28.06712
541.463	-85.20224
541.934	-81.18342
542.406	-101.2379
542.877	-82.17952
543.348	-54.12826
543.82	-58.13914
544.291	-74.16897
544.762	-43.09991
545.233	-55.13612
545.703	-83.18366
546.174	-78.17896
546.645	-82.19469
547.115	-55.13046
547.585	-80.18289
548.056	-108.25879
548.526	-54.12569
548.996	-96.2267
549.466	-40.09607
549.935	-79.18572
550.405	-51.11035
550.875	-41.0962
551.344	-52.12294
551.814	-14.03167
552.283	-16.03411
552.752	-63.14452
553.221	-71.15534
553.69	-81.17797
554.159	-36.08731
554.628	-8.01778
555.096	-74.18579
555.565	-35.0769
556.033	-43.09919
556.502	-58.13856
556.97	0
557.438	-37.08467
557.906	-36.08316
558.374	-27.06069
558.842	-71.16672
559.31	-37.08003
559.777	-81.19376
560.245	-49.10965
560.712	-6.01358
561.18	7.01506
561.647	-22.0478
562.114	-20.04443
562.581	-21.04987
563.048	-21.04635
563.514	4.00955
563.981	12.02604
564.448	45.09687
564.914	25.05574
565.381	82.17891
565.847	111.24931
566.313	31.06991
566.779	58.1258
567.245	107.24161
567.711	102.23337
568.176	111.23926
568.642	160.38323
569.108	120.28392
569.573	106.23656
570.038	86.17058
570.504	118.25276
570.969	155.36807
571.434	134.28157
571.899	201.45163
572.363	134.28654
572.828	245.51901
573.293	224.48002
573.757	209.44546
574.222	196.40967
574.686	178.38194
575.15	148.32715
575.614	192.40967
576.078	212.46783
576.542	199.41843
577.006	212.43997
577.469	259.59363
577.933	188.3912
578.396	232.51089
578.86	242.53068
579.323	247.54792
579.786	259.51384
580.249	188.40201
580.712	203.4636
581.175	190.44291
581.637	239.50364
582.1	181.36699
582.563	206.40401
583.025	207.47236
583.487	209.39236
583.95	164.3329
584.412	140.27418
584.874	131.2993
585.336	162.36453
585.797	159.32002
586.259	103.22744
586.721	123.27762
587.182	141.30418
587.643	112.24053
588.105	145.33195
588.566	108.21371
589.027	125.28789
589.488	101.22181
589.949	118.27378
590.41	95.17817
590.87	99.21348
591.331	92.1882
591.791	81.17857
592.252	92.20524
592.712	69.15981
593.172	17.03696
593.632	135.27835
594.092	83.17675
594.552	70.14495
595.011	32.07106
595.471	31.06633
595.931	44.09384
596.39	-21.04896
596.849	49.1106
597.308	1.00209
597.768	67.16612
598.227	17.03972
598.685	26.05743
599.144	39.08878
599.603	68.15621
600.062	24.04938
600.52	-38.08298
600.978	13.03012
601.437	42.09261
601.895	31.06392
602.353	10.02162
602.811	8.01743
603.269	17.03984
603.727	-18.04234
604.184	-16.03544
604.642	-26.06263
605.099	-10.02236
605.557	-8.01914
606.014	-21.04418
606.471	-54.13279
606.928	-53.11267
607.385	8.01949
607.842	-7.01587
608.299	-35.08016
608.755	-43.10152
609.212	18.03897
609.668	1.00221
610.125	-9.0211
610.581	4.0091
611.037	7.01552
611.493	-35.08048
611.949	-9.02133
612.405	-16.03156
612.861	-2.00454
613.316	-10.02363
613.772	-27.05992
614.227	0
614.683	8.01633
615.138	-34.07798
615.593	11.02513
616.048	1.00222
616.503	30.07123
616.958	35.08618
617.412	-21.04866
617.867	41.08879
618.321	-10.01976
618.776	18.03896
619.23	-25.05721
619.684	-53.11537
620.138	-14.03136
620.592	-11.02616
621.046	-35.08
621.5	-21.0497
621.954	-22.04778
622.407	-33.07116
622.861	-1.00238
623.314	-43.09467
623.768	-64.1472
624.221	-24.04607
624.674	25.05694
625.127	-58.13206
625.58	13.02868
626.033	-20.0426
626.485	-1.00236
626.938	12.02775
627.39	0
627.843	-82.18656
628.295	-78.17559
628.747	-24.05491
629.199	18.03962
629.651	6.01352
630.103	-11.02473
630.555	-8.0165
631.006	-32.07289
631.458	-2.00461
631.909	-6.01309
632.361	-1.00227
632.812	-11.02502
633.263	-3.00629
633.714	-31.06484
634.165	-38.09029
634.616	-44.10213
635.067	21.04495
635.518	-14.03246
635.968	-45.08794
636.419	-12.02537
636.869	24.05555
637.319	-72.16228
637.769	-19.04102
638.219	0
638.669	-90.20964
639.119	-43.10306
639.569	-33.07818
640.019	-15.03347
640.468	-53.11586
640.918	-16.03733
641.367	-95.20908
641.816	-38.08305
642.265	28.06332
642.714	-61.13808
643.163	-50.11168
643.612	-32.07524
644.061	-59.12149
644.51	-42.09381
644.958	16.03451
645.406	-17.03961
645.855	-82.19806
646.303	-40.09075
646.751	-43.09618
647.199	-47.10396
647.647	2.00452
648.095	-28.06267
648.543	-22.04311
648.99	3.00693
649.438	17.03861
649.885	-26.06282
650.333	-18.0337
650.78	-48.11462
651.227	-11.0265
651.674	17.03748
652.121	-42.09933
652.568	-35.08372
653.015	21.05152
653.461	-10.0234
653.908	26.05827
654.354	2.00467
654.801	-28.06486
655.247	-73.1562
655.693	-27.06957
656.139	-33.07685
656.585	-27.06385
657.031	-5.01173
657.477	-38.0802
657.922	-14.03199
658.368	-55.13227
658.813	-31.07009
659.259	-9.02125
659.704	-14.03239
660.149	-2.00453
660.594	-18.04168
661.039	-31.06911
661.484	6.01377
661.929	-63.1451
662.373	8.01999
662.818	-21.05108
663.262	1.00236
663.707	-38.09516
664.151	16.03813
664.595	-69.16486
665.039	-36.08725
665.483	-9.02275
665.927	-39.08896
666.371	2.00461
666.814	17.03923
667.258	-49.11488
667.701	-58.11999
668.145	-14.03369
668.588	0
669.031	-41.09481
669.474	25.05905
669.917	13.02795
670.36	-35.085
670.803	29.06727
671.245	-26.05367
671.688	1.00238
672.13	-73.1614
672.573	-6.01491
673.015	1.00236
673.457	30.06359
673.899	-44.10394
674.341	42.09899
674.783	28.06571
675.225	-6.01433
675.666	57.13557
676.108	-14.02963
676.549	28.06401
676.991	-37.07948
677.432	-3.00585
677.873	17.03867
678.314	-9.02095
678.755	-14.03338
679.196	-37.08287
679.637	-10.02383
680.078	-22.04989
680.518	0
680.959	-21.04939
681.399	-29.07053
681.839	-11.02631
682.28	-10.02414
682.72	-18.04024
683.16	1.00243
683.6	-15.033
684.039	-30.06051
684.479	-5.01212
684.919	8.01824
685.358	10.02464
685.798	-50.12971
686.237	-26.06075
686.676	-1.00226
687.115	-16.03656
687.554	-37.08477
687.993	-2.00425
688.432	12.0269
688.871	7.01551
689.309	-5.01162
689.748	-7.01418
690.186	-63.14556
690.625	8.01826
691.063	-17.03981
691.501	12.02854
691.939	2.00485
692.377	-70.16754
692.815	-4.00935
693.253	32.07472
693.69	30.06443
694.128	45.10707
694.565	-13.03024
695.003	-7.01718
695.44	-3.00684
695.877	-7.016
696.314	-7.01443
696.751	-4.00868
697.188	13.02868
697.625	8.01731
698.061	11.02596
698.498	-5.01149
698.934	30.07035
699.371	18.04115
699.807	2.00457
700.243	-24.0559
700.679	-19.04117
701.115	-20.04464
701.551	11.02494
701.987	24.05154
702.422	10.02329
702.858	35.08138
703.294	12.02603
703.729	31.07302
704.164	47.10846
704.599	41.08769
705.035	12.02606
705.47	-2.00477
705.904	43.09769
706.339	0
706.774	3.00677
707.209	5.01111
707.643	-15.03506
708.078	15.03522
708.512	-2.00491
708.946	-21.04846
709.38	10.02289
709.814	-14.0306
710.248	-37.08692
710.682	26.06049
711.116	20.04712
711.549	49.12282
711.983	-36.08124
712.416	-5.01131
712.85	38.09147
713.283	-15.03438
713.716	20.04864
714.149	12.02738
714.582	-1.00215
715.015	14.03342
715.448	-14.03387
715.881	48.09819
716.313	25.05684
716.746	-27.06179
717.178	7.01644
717.61	10.0245
718.043	19.0455
718.475	-6.01409
718.907	29.07027
719.339	26.05781
719.77	36.08313
720.202	1.00244
720.634	39.09161
721.065	10.0227
721.497	-14.03296
721.928	25.05985
722.359	-6.01435
722.79	18.04198
723.221	-12.02942
723.652	30.07442
724.083	35.07606
724.514	34.07418
724.945	30.06881
725.375	10.02261
725.806	-10.02404
726.236	-9.02214
726.666	21.04812
727.096	-14.03309
727.526	16.03974
727.956	1.0022
728.386	-1.00237
728.816	10.02464
729.246	0
729.675	-32.07656
730.105	40.09479
730.534	-27.06057
730.964	29.07061
731.393	50.11867
731.822	19.04692
732.251	50.1235
732.68	34.07604
733.109	-6.01436
733.537	13.03054
733.966	11.02628
734.395	39.08612
734.823	56.11923
735.251	23.05346
735.68	2.00476
736.108	21.05161
736.536	-17.03854
736.964	68.15326
737.392	-10.02435
737.82	-5.0117
738.247	18.04108
738.675	0
739.102	18.04387
739.53	9.02237
739.957	-5.01247
740.384	-8.01866
740.811	30.07295
741.238	-51.12008
741.665	21.04719
742.092	-12.02697
742.519	-5.01221
742.945	-16.03711
743.372	11.02637
743.798	12.02975
744.225	28.06399
744.651	38.09293
745.077	-48.11537
745.503	40.09358
745.929	-13.03016
746.355	26.06111
746.781	23.05554
747.207	41.09417
747.632	-5.0118
748.058	-31.07461
748.483	55.12018
748.908	-49.11878
749.334	13.0307
749.759	29.06653
750.184	20.04648
750.609	29.06815
751.033	13.0291
751.458	42.08833
751.883	20.04739
752.307	31.0706
752.732	-48.11734
753.156	72.17404
753.58	4.00897
754.005	-41.10054
754.429	-7.01577
754.853	3.00732
755.277	-5.01147
755.7	-19.04533
756.124	19.04581
756.548	27.06186
756.971	-7.01624
757.394	51.12673
757.818	3.00754
758.241	-28.06888
758.664	11.02675
759.087	-59.12816
759.51	18.04316
759.933	-13.03065
760.356	-18.04462
760.778	15.0358
761.201	26.06049
761.623	12.02778
762.046	4.00906
762.468	22.05013
762.89	33.07737
763.312	-34.07982
763.734	14.03259
764.156	13.03093
764.578	-1.00216
765	6.01397
765.421	27.06748
765.843	65.16451
766.264	28.06419
766.686	26.06301
767.107	32.07495
767.528	-14.03459
767.949	61.15003
768.37	-4.00953
768.791	17.03915
769.212	8.01977
769.632	40.09034
770.053	4.01028
770.473	30.06977
770.894	-16.03844
771.314	18.0407
771.734	43.09646
772.154	5.01238
772.575	-39.08594
772.994	-16.03518
773.414	8.01825
773.834	1.0024
774.254	-38.08963
774.673	42.09772
775.093	14.03362
775.512	-22.05268
775.931	23.05619
776.351	9.0217
776.77	44.10419
777.189	-8.01832
777.607	54.13308
778.026	-22.0527
778.445	12.02961
778.864	29.07222
779.282	-16.03727
779.701	-28.06801
780.119	-7.01737
780.537	54.13028
780.955	12.02931
781.373	1.00239
781.791	7.01517
782.209	-1.00219
782.627	12.03056
783.045	15.03273
783.462	2.00499
783.88	15.03767
784.297	7.01684
784.715	-9.02264
785.132	18.04186
785.549	-11.02685
785.966	4.00966
786.383	25.05928
786.8	17.03696
787.217	-24.05478
787.633	37.08942
788.05	2.00445
788.466	2.00443
788.883	26.06481
789.299	74.17149
789.715	-23.05367
790.131	24.05727
790.547	-23.05525
790.963	60.14185
791.379	-1.00245
791.795	39.08453
792.21	23.0513
792.626	38.08691
793.041	-11.02612
793.457	16.03803
793.872	15.03377
794.287	36.083
794.702	-39.09204
795.117	-19.0458
795.532	52.12588
795.947	-84.18909
796.362	36.08084
796.776	-3.00646
797.191	8.01866
797.605	3.0069
798.02	36.08468
798.434	-7.01471
798.848	-30.07117
799.262	30.07219
799.676	4.00934
800.09	-24.05612
800.504	8.0184
800.918	15.03332
801.331	-16.04031
801.745	-72.15749
802.158	-12.02883
802.572	35.08045
802.985	28.06368
803.398	-13.02938
803.811	10.02448
804.224	9.02142
804.637	-32.07357
805.05	4.00872
805.462	-9.02102
805.875	26.0661
806.288	-21.04889
806.7	8.01934
807.112	-18.04009
807.525	-27.06315
807.937	6.01426
808.349	35.08372
808.761	26.06073
809.173	1.00232
809.584	-33.07734
809.996	-7.01669
810.408	-47.11908
810.819	20.04526
811.231	-7.01792
811.642	-49.11636
812.053	-8.01864
812.464	-21.04808
812.875	-33.0814
813.286	32.07947
813.697	22.04798
814.108	-27.0629
814.519	36.07461
814.929	-29.07046
815.34	9.02099
815.75	9.02209
816.16	-37.0878
816.571	23.05771
816.981	6.01343
817.391	17.03914
817.801	41.09796
818.211	4.00905
818.62	3.00697
819.03	-47.10946
819.44	-19.04757
819.849	39.09336
820.259	-27.06621
820.668	20.04734
821.077	26.06311
821.486	6.01359
821.895	16.03724
822.304	12.0307
822.713	17.03803
823.122	-26.0623
823.531	24.05396
823.939	21.04875
824.348	17.03928
824.756	24.05683
825.164	15.03552
825.573	-17.04105
825.981	-5.01182
826.389	-58.13792
826.797	-7.0168
827.205	35.07683
827.612	-40.09431
828.02	-6.01365
828.428	-4.00985
828.835	30.07605
829.243	52.11821
829.65	5.01209
830.057	-4.00929
830.464	12.02799
830.871	54.12196
831.278	51.11784
831.685	-34.07122
832.092	-32.07425
832.499	39.08041
832.905	17.04118
833.312	37.07986
833.718	4.00948
834.124	-24.05141
834.531	6.01449
834.937	-6.01472
835.343	18.04132
835.749	21.04591
836.155	-34.08668
836.561	2.00467
836.966	3.00705
837.372	8.01951
837.777	-4.00956
838.183	40.08324
838.588	17.04053
838.993	-23.05291
839.399	-4.00934
839.804	55.13016
840.209	-6.01475
840.613	5.01049
841.018	-29.06998
841.423	2.00493
841.828	45.10994
842.232	-36.08392
842.637	5.01125
843.041	51.12641
843.445	-10.02402
843.849	46.1106
844.253	5.01123
844.657	-14.03398
845.061	39.08457
845.465	-17.04021
845.869	-39.08533
846.272	9.02113
846.676	-17.03893
847.079	0
847.483	-19.04519
847.886	-6.01371
848.289	9.02342
848.692	-13.03145
849.095	-2.00454
849.498	27.06505
849.901	9.01956
850.304	-46.10448
850.707	-24.05878
851.109	6.01454
851.512	-23.05437
851.914	42.10301
852.316	6.01457
852.718	26.06549
853.121	-13.03012
853.523	-17.03771
853.925	9.02284
854.326	11.02634
854.728	30.0748
855.13	29.07295
855.531	-12.02739
855.933	26.05851
856.334	16.03865
856.736	-8.01726
857.137	33.07293
857.538	33.07999
857.939	28.06645
858.34	-39.09036
858.741	19.04752
859.142	-32.0731
859.542	17.04324
859.943	3.00708
860.343	22.05258
860.744	-46.10588
861.144	43.09939
861.544	37.08678
861.945	66.16158
862.345	-37.08681
862.745	4.00956
863.145	-9.02021
863.544	26.06282
863.944	-20.04478
864.344	-27.06372
864.743	12.02778
865.143	12.02944
865.542	74.16276
865.941	59.14059
866.34	2.00451
866.74	46.1195
867.139	3.0069
867.537	46.11232
867.936	-5.01136
868.335	23.05623
868.734	20.04934
869.132	42.09261
869.531	-2.00456
869.929	-10.02188
870.327	4.00917
870.726	4.00951
871.124	26.05723
871.522	31.07554
871.92	-12.02827
872.318	31.07285
872.715	37.08651
873.113	-1.00233
873.511	45.10694
873.908	-30.07423
874.306	31.07379
874.703	-20.04749
875.1	-14.03396
875.497	-56.1271
875.894	53.12625
876.291	-6.01403
876.688	8.01964
877.085	-19.04304
877.482	32.07615
877.878	-1.00229
878.275	-28.0687
878.671	-9.01854
879.068	-6.01373
879.464	-24.05487
879.86	-9.02041
880.256	-27.06241
880.652	29.07146
881.048	16.03771
881.444	30.06745
881.84	26.06358
882.236	19.04581
882.631	11.02592
883.027	-17.03878
883.422	-44.10816
883.817	-19.04642
884.213	-16.03942
884.608	3.00709
885.003	59.1354
885.398	28.0676
885.793	36.08577
886.188	66.15821
886.582	-4.00963
886.977	-22.04894
887.371	-12.02882
887.766	45.10945
888.16	-39.09276
888.554	-36.0831
888.949	-88.20756
889.343	5.01154
889.737	-1.00263
890.131	69.16694
890.525	-21.05106
890.918	36.08692
891.312	64.14525
891.706	7.01758
892.099	-16.03862
892.492	36.07184
892.886	-12.02796
893.279	23.05638
893.672	8.0196
894.065	-22.05219
894.458	-16.03808
894.851	36.08224
895.244	23.05663
895.637	-40.09052
896.029	10.02328
896.422	-11.02563
896.814	-10.02381
897.206	-57.13133
897.599	17.03911
897.991	8.01842
898.383	1.00223
898.775	18.03819
899.167	-5.01119
899.559	-11.02654
899.951	32.07088
900.342	-16.03857
900.734	16.03837
901.125	-19.04723
901.517	-19.04449
901.908	31.06926
902.299	58.13601
902.69	-54.12111
903.082	0
903.473	-27.06194
903.863	-16.03892
904.254	38.08298
904.645	-2.00467
905.036	-1.00233
905.426	23.04885
905.817	-17.03993
906.207	11.02546
906.597	-24.05352
906.987	-53.13107
907.378	45.10883
907.768	-23.05844
908.158	-44.1018
908.547	33.08188
908.937	5.01222
909.327	11.02514
909.717	-23.05531
910.106	-7.01595
910.495	1.00235
910.885	35.08414
911.274	10.02392
911.663	-2.00481
912.052	3.00702
912.441	27.06547
912.83	7.01508
913.219	7.01736
913.608	68.15777
913.997	18.04343
914.385	-35.078
914.774	2.00465
915.162	-14.03168
915.55	-5.01137
915.939	-65.15774
916.327	14.03328
916.715	-45.11084
917.103	6.01385
917.491	30.06966
917.878	31.07313
918.266	-8.0198
918.654	-7.01699
919.041	36.09094
919.429	1.00225
919.816	-55.13222
920.203	-12.02769
920.591	-1.00234
920.978	-44.10152
921.365	-1.00251
921.752	9.0204
922.139	26.05256
922.525	31.07074
922.912	8.01844
923.299	4.00952
923.685	12.03024
924.072	52.1123
924.458	-53.12683
924.844	27.06404
925.231	-39.08695
925.617	-5.01212
926.003	22.0535
926.389	13.03144
926.774	27.06523
927.16	8.01872
927.546	23.05753
927.931	-3.00703
928.317	-32.06878
928.702	-3.00661
929.088	-63.14092
929.473	-3.00726
929.858	17.04021
930.243	-1.00229
930.628	-44.10128
931.013	0
931.398	26.05598
931.783	-31.07784
932.167	13.03001
932.552	22.0527
932.937	17.03965
933.321	-24.05744
933.705	-4.00966
934.09	-6.01414
934.474	-21.04686
934.858	-13.03263
935.242	26.05764
935.626	6.01479
936.009	-37.09491
936.393	37.08999
936.777	34.08314
937.16	10.02491
937.544	9.01997
937.927	19.04647
938.311	-36.08273
938.694	35.08808
939.077	-1.00226
939.46	2.0046
939.843	95.17949
940.226	16.039
940.609	7.0153
940.991	-12.02922
941.374	12.02763
941.757	-15.03511
942.139	-9.01897
942.522	12.02623
942.904	12.02762
943.286	-9.02152
943.668	-6.01484
944.05	69.15936
944.432	-4.00941
944.814	-3.00696
945.196	26.06149
945.578	-3.00687
945.959	12.02685
946.341	5.01144
946.722	-52.11538
947.104	24.05434
947.485	-11.0239
947.866	71.17256
948.247	-8.01921
948.628	-4.00916
949.009	11.02698
949.39	20.04668
949.771	45.09671
950.152	1.00233
950.532	16.03802
950.913	20.04559
951.293	9.02359
951.674	9.02065
952.054	-5.01191
952.434	-19.04479
952.814	-17.03828
953.194	36.08931
953.574	1.0023
953.954	5.0111
954.334	-15.03546
954.714	24.05606
955.093	-51.11699
955.473	30.07224
955.853	-6.0149
956.232	9.02378
956.611	10.02242
956.99	70.16831
957.37	48.11677
957.749	3.00674
958.128	27.0651
958.506	-9.02245
958.885	12.02895
959.264	11.02604
959.643	-60.12769
960.021	-30.07098
960.4	-15.03208
960.778	-36.08273
961.156	-54.12984
961.535	9.01974
961.913	5.01094
962.291	23.05682
962.669	-39.09532
963.047	34.08351
963.424	22.05358
963.802	-23.05384
964.18	6.01439
964.557	28.06044
964.935	39.08634
965.312	53.13285
965.69	3.00713
966.067	-45.10344
966.444	5.0117
966.821	0
967.198	25.05638
967.575	22.05082
967.952	-7.01543
968.329	11.02525
968.705	0
969.082	0
969.458	4.00931
969.835	60.13965
970.211	24.05902
970.587	-19.0446
970.963	32.07849
971.339	8.02006
971.715	31.07339
972.091	46.1077
972.467	-45.10567
972.843	17.04056
973.219	14.03095
973.594	-79.19902
973.97	-27.06037
974.345	-7.01597
974.721	31.07097
975.096	25.05751
975.471	16.03558
975.846	-19.0429
976.221	-21.05113
976.596	29.06538
976.971	-46.10766
977.346	-18.03962
977.72	13.03165
978.095	-33.08203
978.469	16.03589
978.844	0
979.218	8.01825
979.593	-21.04709
979.967	-20.04605
980.341	-30.06548
980.715	-6.0145
981.089	-9.02149
981.463	-36.07775
981.837	-21.04893
982.21	-11.02349
982.584	17.03892
982.957	38.09085
983.331	-16.03526
983.704	51.11971
984.078	7.01655
984.451	40.09288
984.824	-1.00232
985.197	23.05246
985.57	25.05884
985.943	-38.0875
986.316	-1.00229
986.688	28.0635
987.061	21.04612
987.434	27.06714
987.806	-49.11236
988.179	-17.03818
988.551	9.02155
988.923	-15.03513
989.295	7.01652
989.667	-3.0069
990.039	-6.0143
990.411	55.11896
990.783	0
991.155	-7.01618
991.527	-8.0182
991.898	-14.03337
992.27	-22.05213
992.641	6.01426
993.012	-6.01315
993.384	2.00454
993.755	-11.02684
994.126	35.07958
994.497	-23.05386
994.868	-9.01954
995.239	35.07964
995.61	28.06732
995.98	-26.05968
996.351	52.12327
996.722	40.08842
997.092	-42.09463
997.462	7.01584
997.833	-8.01774
998.203	9.02046
998.573	51.12167
998.943	4.00884
999.313	30.068
999.683	-15.03438
1000.053	4.00859
1000.423	-12.02772
1000.792	-66.16403
1001.162	21.04906
1001.531	56.13178
1001.901	48.11313
1002.27	16.03304
1002.639	-3.0074
1003.009	35.07877
1003.378	16.03942
1003.747	-5.01116
1004.116	2.0046
1004.485	15.03372
1004.853	-3.0072
1005.222	60.14454
1005.591	34.07594
1005.959	-54.11612
1006.328	-7.01491
1006.696	13.02969
1007.064	9.02161
1007.433	-40.09504
1007.801	4.00921
1008.169	10.02385
1008.537	33.06764
1008.905	27.0602
1009.273	13.03022
1009.64	32.07363
1010.008	14.03143
1010.375	31.06954
1010.743	77.16291
1011.11	-57.12797
1011.478	17.03968
1011.845	-20.04454
1012.212	-2.00429
1012.579	-29.06767
1012.946	61.1347
1013.313	9.01978
1013.68	-27.05692
1014.047	17.03908
1014.414	12.027
1014.78	-3.00713
1015.147	-28.06339
1015.513	-34.07798
1015.88	14.03348
1016.246	21.04891
1016.612	-15.03203
1016.978	27.06271
1017.344	44.10326
1017.71	-25.0565
1018.076	-4.00881
1018.442	-29.07085
1018.808	-11.02626
1019.174	-7.01682
1019.539	14.02921
1019.905	-42.0942
1020.27	-13.0308
1020.636	7.01559
1021.001	33.07327
1021.366	-3.00688
1021.731	-18.0442
1022.096	-49.11949
1022.461	17.03787
1022.826	29.06578
1023.191	-31.07832
1023.556	-4.00883
1023.92	24.05555
1024.285	31.07194
1024.649	21.04798
1025.014	5.01166
1025.378	23.05489
1025.742	-17.04025
1026.107	19.04002
1026.471	39.08479
1026.835	-1.00235
1027.199	18.04165
1027.562	14.03039
1027.926	1.00231
1028.29	14.03376
1028.654	28.06016
1029.017	17.03947
1029.381	-3.00686
1029.744	-23.05661
1030.107	-2.00443
1030.471	-22.0493
1030.834	27.05712
1031.197	-32.07204
1031.56	55.12211
1031.923	54.1347
1032.286	-40.08702
1032.648	32.07215
1033.011	14.03025
1033.374	76.16688
1033.736	33.08394
1034.099	2.00463
1034.461	16.03902
1034.823	6.01426
1035.185	-5.01198
1035.548	6.01376
1035.91	27.06144
1036.272	-42.09078
1036.634	-11.02522
1036.995	5.01111
1037.357	28.06517
1037.719	19.044
1038.08	26.05788
1038.442	3.00674
1038.803	68.15352
1039.165	26.0627
1039.526	24.05443
1039.887	32.07257
1040.248	-14.03279
1040.609	15.03481
1040.97	-40.09248
1041.331	8.0192
1041.692	41.09118
1042.053	-45.09679
1042.413	9.01957
1042.774	-27.06171
1043.134	-2.00446
1043.495	50.12031
1043.855	5.01145
1044.215	1.00235
1044.576	15.03409
1044.936	-52.11062
1045.296	24.05672
1045.656	4.00937
1046.016	-4.00919
1046.375	7.01605
1046.735	6.01295
1047.095	72.15996
1047.454	-2.00387
1047.814	21.04765
1048.173	34.0766
1048.533	16.0347
1048.892	28.06504
1049.251	-12.02852
1049.61	18.04228
1049.969	-1.00226
1050.328	-16.03202
1050.687	25.05733
1051.046	22.0505
1051.405	37.08698
1051.763	2.00437
1052.122	49.11721
1052.48	-23.05327
1052.839	18.04009
1053.197	7.01567
1053.555	15.03122
1053.914	20.04596
1054.272	3.00682
1054.63	1.00234
1054.988	-3.00682
1055.345	-2.00401
1055.703	-5.01128
1056.061	8.01964
1056.419	18.04514
1056.776	-3.00681
1057.134	-3.00666
1057.491	-18.04249
1057.848	-6.01416
1058.206	6.01344
1058.563	18.03712
1058.92	18.03867
1059.277	-7.01639
1059.634	-58.12783
1059.991	11.02481
1060.348	14.02968
1060.704	-1.00229
1061.061	-15.03239
1061.418	43.10014
1061.774	7.01652
1062.131	-27.06938
1062.487	-18.04017
1062.843	-13.03087
1063.199	10.0236
1063.555	-33.07162
1063.911	-5.01198
1064.267	83.15628
1064.623	30.0704
1064.979	56.12218
1065.335	58.1295
1065.691	5.01133
1066.046	13.02697
1066.402	37.07962
1066.757	25.0598
1067.112	13.02995
1067.468	-25.0573
1067.823	20.04543
1068.178	-22.05017
1068.533	-39.08889
1068.888	11.02444
1069.243	-14.03278
1069.598	10.02308
1069.952	45.09621
1070.307	6.01423
1070.662	24.05352
1071.016	-14.03008
1071.371	-19.04055
1071.725	1.00225
1072.079	-24.05451
1072.434	-3.00696
1072.788	39.08716
1073.142	-22.05106
1073.496	16.03617
1073.85	-6.01309
1074.203	32.07292
1074.557	3.00768
1074.911	56.12451
1075.265	22.0482
1075.618	4.00913
1075.971	54.12111
1076.325	33.08026
1076.678	-14.03075
1077.031	10.02148
1077.385	-29.05947
1077.738	-13.02738
1078.091	2.00428
1078.444	66.14272
1078.796	17.04011
1079.149	-58.1376
1079.502	-14.03158
1079.855	0
1080.207	-2.00466
1080.56	-27.06687
1080.912	21.04829
1081.264	-22.05052
1081.617	-4.00928
1081.969	26.06332
1082.321	-19.04423
1082.673	6.01317
1083.025	-21.04767
1083.377	291.62049
1083.728	25.05474
1084.08	31.07404
1084.432	-35.07971
1084.783	34.07456
1085.135	6.01436
1085.486	43.09408
1085.838	-9.02092
1086.189	27.06293
1086.54	38.08498
1086.891	0
1087.242	-16.03661
1087.593	9.02056
1087.944	-18.03822
1088.295	9.01894
1088.646	-45.10381
1088.996	-14.03198
1089.347	21.04918
1089.698	19.04299
1090.048	-45.11088
1090.398	3.00651
1090.749	-12.02689
1091.099	-45.10974
1091.449	4.00956
1091.799	-19.04533
1092.149	-1.00237
1092.499	-27.06243
1092.849	-11.02693
1093.199	36.08511
1093.548	-14.03193
1093.898	-18.0427
1094.248	-23.05596
1094.597	18.04488
1094.947	37.09434
1095.296	-5.01165
1095.645	-34.08407
1095.994	17.03837
1096.343	-22.05233
1096.692	-5.01274
1097.041	35.09243
1097.39	-46.10778
1097.739	-43.10724
1098.088	10.02537
1098.437	-6.01545
1098.785	-10.0259
1099.134	30.07562
1099.482	11.02924
1099.83	-19.04763
1100.179	36.09087
1100.527	41.10458
1100.875	-16.04109
1101.223	3.00762
1101.571	-6.01609
1101.919	61.15565
1102.267	-6.01649
1102.615	15.04815
1102.962	-6.01926
1103.31	9.02891
1103.658	3.00962
