Data from N3 R1 sample 10_Subt2__1__15-10-37-075.txt Node

Date: Wed Sep 17 15:10:37 PDT 2025
User: uwsun
Spectrometer: HDX01956
Trigger mode: 0
Integration Time (sec): 5.000000E-1
Scans to average: 1
Nonlinearity correction enabled: true
Boxcar width: 0
Storing dark spectrum: false
XAxis mode: Wavelengths
Number of Pixels in Spectrum: 2068
>>>>>Begin Spectral Data<<<<<
194.03	40.11545
194.578	37.11978
195.127	37.1181
195.676	37.11853
196.225	67.17694
196.773	53.1469
197.321	67.18565
197.87	100.25754
198.418	117.30263
198.966	148.38934
199.513	144.36607
200.061	129.32857
200.609	132.34854
201.156	106.23412
201.704	79.20108
202.251	139.36942
202.798	138.35774
203.345	176.43357
203.892	113.28721
204.438	98.23456
204.985	177.4182
205.532	136.35777
206.078	122.29911
206.624	204.50698
207.17	156.36566
207.716	166.40607
208.262	178.35108
208.808	144.3623
209.354	166.40954
209.899	128.32297
210.445	110.27716
210.99	146.35675
211.535	191.4469
212.08	168.38854
212.625	152.379
213.17	170.43139
213.715	158.36091
214.259	185.42913
214.804	99.24456
215.348	165.38062
215.892	208.49952
216.436	130.29743
216.98	142.31179
217.524	186.44159
218.068	157.39522
218.612	162.41065
219.155	147.34733
219.698	137.32608
220.242	86.21389
220.785	146.34262
221.328	128.31626
221.871	179.45237
222.414	137.33794
222.956	91.21901
223.499	115.25692
224.041	104.23843
224.583	133.27966
225.126	123.26979
225.668	136.32935
226.21	128.32367
226.751	151.33483
227.293	106.24028
227.835	126.30846
228.376	118.26813
228.918	89.22244
229.459	152.37679
230	117.28126
230.541	155.3537
231.082	138.33482
231.622	94.21342
232.163	85.20604
232.704	144.35879
233.244	140.34565
233.784	129.3114
234.324	171.38139
234.864	124.2796
235.404	136.31853
235.944	137.32094
236.484	197.48414
237.023	125.29386
237.563	173.39796
238.102	148.34772
238.641	94.23676
239.18	105.24713
239.719	126.31451
240.258	139.31079
240.797	108.25839
241.335	115.27928
241.874	148.2871
242.412	161.3882
242.95	120.29006
243.488	136.30389
244.026	194.44493
244.564	152.31094
245.102	161.3622
245.64	106.25322
246.177	106.23588
246.715	175.41572
247.252	121.27411
247.789	211.38264
248.326	159.38033
248.863	149.32626
249.4	160.35958
249.936	217.44602
250.473	162.38017
251.009	138.31459
251.546	174.38494
252.082	105.2273
252.618	147.32718
253.154	154.36816
253.69	117.26246
254.226	158.37556
254.761	164.36479
255.297	148.32127
255.832	119.28313
256.367	159.37058
256.903	184.40435
257.438	188.43445
257.972	140.3105
258.507	117.26839
259.042	143.30982
259.576	219.47589
260.111	140.31993
260.645	165.35321
261.179	143.33368
261.713	137.30606
262.247	140.31812
262.781	140.29444
263.315	115.27876
263.849	156.38784
264.382	125.28674
264.915	180.42142
265.449	120.29279
265.982	172.38671
266.515	205.49484
267.048	176.36917
267.58	124.26722
268.113	155.33309
268.646	106.25969
269.178	90.20244
269.71	206.4485
270.243	199.45465
270.775	184.46691
271.307	121.28723
271.838	139.32677
272.37	145.35332
272.902	134.30264
273.433	192.42033
273.965	160.38557
274.496	145.35727
275.027	155.38346
275.558	196.47196
276.089	158.39224
276.62	158.39496
277.15	180.43721
277.681	159.33948
278.211	189.4545
278.741	208.45459
279.272	137.31301
279.802	164.40431
280.332	136.32053
280.861	137.32633
281.391	148.33494
281.921	142.33779
282.45	146.35994
282.98	189.4863
283.509	188.42303
284.038	168.38159
284.567	177.4083
285.096	191.45774
285.625	136.30527
286.153	185.43761
286.682	173.3943
287.21	131.3112
287.739	156.36637
288.267	185.44573
288.795	166.42973
289.323	147.34423
289.851	245.56379
290.378	148.32852
290.906	157.38227
291.433	165.4082
291.961	221.49636
292.488	195.4771
293.015	189.44153
293.542	243.61234
294.069	192.47054
294.596	177.42807
295.122	211.49872
295.649	179.38781
296.175	174.41486
296.702	227.54546
297.228	173.41271
297.754	175.39063
298.28	219.49611
298.806	176.42059
299.332	204.45093
299.857	148.33589
300.383	182.45297
300.908	189.46018
301.433	198.47984
301.958	170.38707
302.483	190.46547
303.008	256.62271
303.533	176.44978
304.058	157.36419
304.582	181.42417
305.107	181.46653
305.631	238.52872
306.155	185.42726
306.679	200.46512
307.203	218.49856
307.727	199.46617
308.251	211.51336
308.775	258.6144
309.298	206.49058
309.822	195.48417
310.345	244.57213
310.868	238.56373
311.391	206.50092
311.914	160.39923
312.437	244.547
312.96	181.42351
313.482	192.44669
314.005	191.47165
314.527	173.44622
315.049	254.62961
315.571	244.53935
316.093	280.67572
316.615	211.4995
317.137	246.52602
317.659	234.55704
318.18	208.48925
318.702	271.62038
319.223	244.48782
319.744	289.63307
320.265	245.58624
320.786	272.66434
321.307	255.61691
321.828	300.65702
322.348	299.68364
322.869	270.62913
323.389	262.50388
323.909	238.53465
324.43	271.63233
324.95	284.63378
325.47	342.81845
325.989	311.71593
326.509	313.68014
327.029	287.63955
327.548	306.67327
328.067	295.6975
328.587	329.79889
329.106	253.55935
329.625	288.7305
330.144	317.71516
330.662	306.69894
331.181	337.76865
331.7	326.73291
332.218	319.67103
332.736	335.75823
333.255	364.82436
333.773	357.81097
334.291	395.94542
334.808	358.77675
335.326	344.74542
335.844	347.78858
336.361	404.99542
336.879	396.8917
337.396	354.83227
337.913	354.78899
338.43	352.76568
338.947	348.80317
339.464	382.78956
339.981	373.84971
340.497	401.94218
341.014	412.95802
341.53	368.7981
342.046	432.02525
342.562	448.05594
343.078	413.92712
343.594	427.96522
344.11	460.03965
344.626	440.05349
345.141	529.12403
345.657	433.93044
346.172	446.01859
346.687	451.97869
347.202	494.05706
347.717	532.17968
348.232	482.12918
348.747	473.02796
349.261	483.99674
349.776	487.08758
350.29	472.11519
350.805	501.15979
351.319	540.16413
351.833	549.17115
352.347	565.23294
352.861	525.14795
353.374	525.1097
353.888	586.32113
354.401	552.16152
354.915	557.16408
355.428	547.26744
355.941	560.20524
356.454	549.12857
356.967	501.09262
357.48	560.17114
357.993	553.2611
358.505	532.20363
359.018	629.40807
359.53	618.382
360.042	622.26884
360.554	603.35645
361.066	604.34789
361.578	670.33348
362.09	578.26747
362.602	614.24966
363.113	663.41348
363.625	661.35675
364.136	623.24411
364.647	673.44289
365.158	584.25051
365.669	628.368
366.18	684.44978
366.691	633.25768
367.201	669.45032
367.712	700.43723
368.222	721.48273
368.733	695.35154
369.243	738.46494
369.753	754.53919
370.263	734.5836
370.773	717.56306
371.282	755.60217
371.792	788.60722
372.301	736.5852
372.811	816.89228
373.32	808.5236
373.829	786.63142
374.338	894.69759
374.847	870.73294
375.356	857.75087
375.865	988.76293
376.373	950.82685
376.882	1004.14993
377.39	1027.07047
377.898	991.05608
378.407	1144.09318
378.915	1158.02253
379.423	1129.1293
379.93	1295.34503
380.438	1190.29649
380.946	1339.39935
381.453	1365.52336
381.96	1512.67849
382.468	1547.66293
382.975	1599.86171
383.482	1637.58151
383.989	1679.13094
384.495	1753.82769
385.002	1874.52732
385.509	2018.11539
386.015	2116.54242
386.521	2196.00146
387.028	2330.04396
387.534	2290.76199
388.04	2366.33727
388.546	2425.93532
389.051	2613.9527
389.557	2838.22373
390.063	3058.07543
390.568	3162.429
391.073	3222.94966
391.578	3328.50377
392.084	3501.01639
392.589	3509.71367
393.093	3811.22668
393.598	4187.78891
394.103	4606.80494
394.607	5064.63429
395.112	5336.6397
395.616	5712.35656
396.12	6163.77602
396.624	6913.84791
397.128	7475.06869
397.632	8298.5295
398.136	8967.40234
398.639	9573.65733
399.143	10382.8471
399.646	11769.74566
400.15	13309.47033
400.653	14757.73998
401.156	16415.00296
401.659	19281.10456
402.162	23449.0236
402.664	30860.12964
403.167	43152.55118
403.67	61012.14613
404.172	63919.58413
404.674	63858.43483
405.176	63738.15102
405.678	63977.72923
406.18	64011.81569
406.682	63863.44694
407.184	63926.60148
407.686	63841.39382
408.187	64025.8516
408.688	63892.51763
409.19	56893.80476
409.691	45109.02077
410.192	38095.52412
410.693	32916.44343
411.194	29760.50738
411.694	28197.43224
412.195	26352.57093
412.696	23695.23865
413.196	21970.27129
413.696	21099.13916
414.196	21109.51643
414.696	20967.32175
415.196	19944.47471
415.696	18135.00594
416.196	14909.77779
416.695	11559.74363
417.195	9843.32373
417.694	9323.07982
418.194	8677.7963
418.693	8166.29776
419.192	8002.25883
419.691	7721.01019
420.19	7476.05403
420.688	7264.1077
421.187	6993.16832
421.685	6557.78223
422.184	5896.07316
422.682	5128.91697
423.18	4430.654
423.678	3928.85709
424.176	3585.9765
424.674	3410.87348
425.172	3281.22733
425.669	3019.50872
426.167	2880.18315
426.664	2639.04501
427.161	2421.06523
427.659	2213.24407
428.156	2114.62998
428.652	2015.30687
429.149	1882.03481
429.646	1869.68668
430.143	1728.85601
430.639	1617.71114
431.135	1545.83204
431.632	1494.47041
432.128	1356.47386
432.624	1315.64844
433.12	1278.23075
433.616	1278.12384
434.111	1173.20606
434.607	1117.14864
435.103	1112.82551
435.598	1106.80456
436.093	1075.01929
436.588	987.8214
437.083	910.70205
437.578	946.82176
438.073	853.83383
438.568	877.83944
439.062	825.49382
439.557	839.67151
440.051	732.43003
440.546	736.45349
441.04	730.53527
441.534	684.52973
442.028	782.63104
442.522	687.45647
443.015	579.1117
443.509	650.40819
444.002	652.42094
444.496	594.15016
444.989	610.32818
445.482	615.36709
445.975	618.27551
446.468	577.11958
446.961	611.18003
447.454	575.1582
447.947	576.24079
448.439	608.33949
448.931	631.28751
449.424	613.4037
449.916	578.27332
450.408	520.08207
450.9	518.14907
451.392	540.25045
451.884	479.01009
452.375	473.07971
452.867	540.09682
453.358	480.00844
453.849	519.00443
454.341	475.98551
454.832	399.80381
455.323	561.2665
455.814	482.00953
456.304	508.07113
456.795	493.02829
457.285	430.87642
457.776	464.97321
458.266	404.89556
458.756	403.8887
459.247	416.92714
459.737	479.06484
460.226	415.88025
460.716	410.91415
461.206	391.87558
461.695	386.89474
462.185	452.99151
462.674	333.7202
463.163	437.90627
463.653	399.79012
464.142	366.83461
464.63	342.78304
465.119	364.79548
465.608	369.81203
466.096	310.63816
466.585	380.81182
467.073	328.73226
467.561	329.74708
468.05	308.6734
468.538	320.7415
469.026	236.5395
469.513	335.66556
470.001	283.62071
470.489	318.71698
470.976	364.79884
471.463	270.64396
471.951	301.71196
472.438	269.60465
472.925	233.52911
473.412	260.60487
473.899	266.58404
474.385	248.58378
474.872	264.58964
475.359	244.57749
475.845	280.55226
476.331	199.41105
476.817	236.55338
477.303	256.57083
477.789	188.43531
478.275	269.63924
478.761	175.40497
479.247	234.50253
479.732	233.56072
480.218	233.58945
480.703	181.43411
481.188	260.53885
481.673	222.49297
482.158	191.40143
482.643	240.59078
483.128	228.51324
483.612	273.62244
484.097	160.37709
484.581	216.48324
485.066	252.5932
485.55	227.48445
486.034	177.37414
486.518	235.54251
487.002	138.32928
487.486	140.33341
487.969	128.30589
488.453	113.2772
488.936	119.26431
489.42	209.44759
489.903	161.39143
490.386	42.0872
490.869	177.37824
491.352	149.3511
491.835	153.30652
492.318	129.28533
492.8	130.26521
493.283	154.38482
493.765	111.26856
494.247	123.28204
494.73	192.41287
495.212	106.24817
495.694	163.37571
496.175	125.29592
496.657	146.33901
497.139	148.24867
497.62	156.36738
498.102	124.30401
498.583	43.10548
499.064	126.27678
499.545	140.31335
500.026	178.39264
500.507	112.2546
500.988	171.41729
501.469	84.20755
501.949	128.31091
502.43	160.37738
502.91	197.40582
503.39	78.19195
503.87	111.25932
504.35	113.26088
504.83	102.22085
505.31	65.15602
505.79	69.16234
506.269	60.13739
506.749	108.24392
507.228	98.22854
507.707	126.27713
508.187	121.28512
508.666	105.25729
509.145	33.07743
509.623	106.24545
510.102	110.26287
510.581	143.33879
511.059	124.30761
511.538	84.21483
512.016	119.28139
512.494	95.2262
512.972	110.26036
513.45	68.15815
513.928	101.24317
514.406	106.25718
514.884	149.3771
515.361	122.28798
515.839	161.36309
516.316	130.31126
516.793	112.27926
517.27	86.20536
517.747	134.33847
518.224	110.25056
518.701	105.22973
519.178	134.33011
519.654	94.22077
520.131	107.26219
520.607	55.13417
521.083	59.13355
521.56	98.2289
522.036	102.22
522.512	147.35646
522.987	117.27848
523.463	80.18862
523.939	128.31324
524.414	113.25557
524.89	111.26196
525.365	51.11535
525.84	73.17482
526.315	129.30798
526.79	104.23239
527.265	122.27835
527.74	81.19546
528.215	81.1879
528.689	41.0902
529.164	71.15186
529.638	69.17414
530.112	43.10133
530.587	52.11153
531.061	43.10427
531.534	122.2901
532.008	97.23398
532.482	92.20999
532.956	71.18034
533.429	136.32774
533.903	99.21513
534.376	113.24702
534.849	88.20102
535.322	69.16234
535.795	85.20395
536.268	91.21876
536.741	84.19821
537.213	90.2055
537.686	100.24254
538.158	159.35448
538.631	93.22357
539.103	78.17559
539.575	65.13378
540.047	65.14161
540.519	150.35187
540.991	96.23222
541.463	81.19383
541.934	67.15117
542.406	70.1678
542.877	67.15104
543.348	107.25595
543.82	127.3046
544.291	130.29935
544.762	105.2478
545.233	115.28836
545.703	81.17969
546.174	80.18488
546.645	121.28944
547.115	117.27944
547.585	100.22834
548.056	164.39581
548.526	136.31853
548.996	102.24199
549.466	134.32121
549.935	93.2211
550.405	114.24831
550.875	124.29122
551.344	110.25996
551.814	153.34477
552.283	179.38218
552.752	163.37526
553.221	166.35988
553.69	199.43869
554.159	174.42469
554.628	164.3654
555.096	165.41223
555.565	129.28211
556.033	223.51645
556.502	171.4045
556.97	148.32455
557.438	123.28577
557.906	156.36194
558.374	189.42833
558.842	117.27773
559.31	181.3965
559.777	170.40765
560.245	117.26591
560.712	142.32057
561.18	174.37738
561.647	124.27215
562.114	165.3712
562.581	166.40078
563.048	129.29212
563.514	203.49667
563.981	217.48257
564.448	213.46778
564.914	215.48487
565.381	195.43473
565.847	219.4949
566.313	198.44754
566.779	198.4342
567.245	163.37031
567.711	215.4999
568.176	175.38449
568.642	154.38119
569.108	212.50661
569.573	198.44626
570.038	233.47047
570.504	264.5733
570.969	204.49196
571.434	227.48823
571.899	244.55846
572.363	267.58833
572.828	303.66429
573.293	265.58368
573.757	302.66893
574.222	279.59903
574.686	309.67716
575.15	292.67287
575.614	317.71282
576.078	264.59597
576.542	335.72298
577.006	266.57765
577.469	302.70949
577.933	335.72329
578.396	281.63861
578.86	260.5891
579.323	304.69968
579.786	321.66066
580.249	341.76144
580.712	269.62865
581.175	281.66441
581.637	289.63039
582.1	256.53673
582.563	306.61801
583.025	278.64929
583.487	323.62944
583.95	298.60849
584.412	316.62971
584.874	297.69271
585.336	296.6712
585.797	313.6471
586.259	294.65745
586.721	319.71173
587.182	300.65979
587.643	347.7447
588.105	353.78758
588.566	340.6684
589.027	375.86529
589.488	369.79669
589.949	417.94531
590.41	396.72826
590.87	426.90614
591.331	472.94627
591.791	446.9561
592.252	409.88946
592.712	425.94818
593.172	407.86366
593.632	548.0979
594.092	479.97828
594.552	490.96874
595.011	485.0165
595.471	550.12479
595.931	571.15699
596.39	577.248
596.849	573.19969
597.308	627.1751
597.768	654.50755
598.227	662.40677
598.685	731.44191
599.144	770.56479
599.603	783.57064
600.062	765.36947
600.52	855.62223
600.978	891.76455
601.437	966.79634
601.895	984.69809
602.353	999.7675
602.811	1131.99968
603.269	1052.01993
603.727	1208.26046
604.184	1209.12027
604.642	1282.4275
605.099	1338.34207
605.557	1390.52725
606.014	1404.17123
606.471	1528.80006
606.928	1613.45382
607.385	1673.95089
607.842	1685.62032
608.299	1765.75568
608.755	1843.96292
609.212	1852.63817
609.668	1962.74978
610.125	1999.05284
610.581	2057.96425
611.037	2045.76094
611.493	2080.9553
611.949	2222.23911
612.405	2211.43344
612.861	2220.95315
613.316	2303.18898
613.772	2219.93553
614.227	2400.24585
614.683	2407.63303
615.138	2340.09361
615.593	2384.05605
616.048	2374.9824
616.503	2409.2968
616.958	2402.46664
617.412	2398.17718
617.867	2345.8679
618.321	2339.50232
618.776	2378.79878
619.23	2323.07734
619.684	2340.84667
620.138	2314.95733
620.592	2321.25285
621.046	2299.11176
621.5	2234.17127
621.954	2188.75332
622.407	2234.76947
622.861	2241.21758
623.314	2146.83884
623.768	2177.05134
624.221	2129.2647
624.674	2122.92018
625.127	2144.9587
625.58	2120.78881
626.033	2180.69638
626.485	2106.06998
626.938	2191.09436
627.39	2139.98233
627.843	2132.91208
628.295	2134.91303
628.747	2152.08016
629.199	2163.86854
629.651	2208.91957
630.103	2184.91136
630.555	2256.5579
631.006	2273.00889
631.458	2425.12209
631.909	2415.8698
632.361	2394.01031
632.812	2546.06646
633.263	2641.74826
633.714	2637.62431
634.165	2655.27729
634.616	2713.20561
635.067	2892.81568
635.518	2934.23579
635.968	3010.21928
636.419	3171.73173
636.869	3253.20136
637.319	3375.04785
637.769	3543.79801
638.219	3558.10297
638.669	3730.09751
639.119	3932.0633
639.569	3943.0785
640.019	4112.73513
640.468	4384.38818
640.918	4459.74021
641.367	4720.18884
641.816	4852.06602
642.265	5090.27223
642.714	5205.08158
643.163	5479.99614
643.612	5575.38414
644.061	5792.36053
644.51	5965.72392
644.958	6102.44431
645.406	6188.92473
645.855	6361.98127
646.303	6426.63815
646.751	6564.62827
647.199	6724.49258
647.647	6745.6324
648.095	6826.52545
648.543	6958.00621
648.99	7218.86634
649.438	7098.62951
649.885	7226.09262
650.333	7205.96174
650.78	7271.91064
651.227	7192.97078
651.674	7264.60642
652.121	7221.99146
652.568	7265.99011
653.015	7098.02419
653.461	7143.79048
653.908	6999.57514
654.354	6960.77775
654.801	6763.68667
655.247	6726.24857
655.693	6629.43302
656.139	6574.81271
656.585	6513.82861
657.031	6429.74466
657.477	6467.3079
657.922	6146.59728
658.368	6057.16926
658.813	6007.64222
659.259	6010.09103
659.704	5882.98249
660.149	5742.84254
660.594	5668.08295
661.039	5541.85853
661.484	5407.19789
661.929	5379.11424
662.373	5174.78283
662.818	5154.67142
663.262	5097.52829
663.707	5005.99674
664.151	4895.70305
664.595	4761.71865
665.039	4789.90551
665.483	4813.10221
665.927	4663.54006
666.371	4693.54954
666.814	4507.71717
667.258	4442.86687
667.701	4530.96914
668.145	4374.14981
668.588	4325.14137
669.031	4247.78166
669.474	4196.95132
669.917	4190.32616
670.36	4140.28529
670.803	4113.04624
671.245	4053.98271
671.688	3980.15412
672.13	3954.65481
672.573	3968.44547
673.015	3940.10529
673.457	3851.45167
673.899	3859.1578
674.341	3860.12643
674.783	3689.15309
675.225	3746.32821
675.666	3562.3451
676.108	3620.50725
676.549	3559.99559
676.991	3580.6132
677.432	3473.0955
677.873	3426.90493
678.314	3425.17649
678.755	3450.42076
679.196	3290.94765
679.637	3166.25668
680.078	3154.1057
680.518	3094.00558
680.959	3107.22782
681.399	3053.48404
681.839	3099.35282
682.28	2947.51092
682.72	2893.99831
683.16	2802.51955
683.6	2850.96928
684.039	2748.47281
684.479	2743.44485
684.919	2732.15812
685.358	2650.46877
685.798	2634.74633
686.237	2560.19834
686.676	2551.91435
687.115	2580.13771
687.554	2565.22113
687.993	2496.79511
688.432	2405.92826
688.871	2466.96968
689.309	2443.1983
689.748	2382.49323
690.186	2393.04461
690.625	2322.04707
691.063	2374.1422
691.501	2273.29047
691.939	2301.40435
692.377	2271.18277
692.815	2336.26134
693.253	2239.07261
693.69	2165.6578
694.128	2191.15169
694.565	2135.00029
695.003	2231.44343
695.44	2168.01859
695.877	2074.93933
696.314	2069.45847
696.751	2066.76225
697.188	2105.88612
697.625	2025.68583
698.061	1985.96156
698.498	1972.89225
698.934	2054.99319
699.371	1968.87414
699.807	1948.87188
700.243	1950.97144
700.679	1901.60351
701.115	1825.73692
701.551	1869.74934
701.987	1811.46987
702.422	1894.88482
702.858	1921.90018
703.294	1906.72324
703.729	1811.89794
704.164	1801.81097
704.599	1859.58711
705.035	1842.5929
705.47	1756.84438
705.904	1783.67461
706.339	1815.66222
706.774	1743.68825
707.209	1820.72366
707.643	1763.78875
708.078	1647.75143
708.512	1694.92152
708.946	1724.71327
709.38	1715.7212
709.814	1733.54629
710.248	1735.85599
710.682	1728.77688
711.116	1689.79935
711.549	1651.94777
711.983	1661.56626
712.416	1680.68693
712.85	1625.7966
713.283	1589.58219
713.716	1634.80702
714.149	1604.52249
714.582	1595.41331
715.015	1585.71585
715.448	1637.87814
715.881	1585.24875
716.313	1629.57607
716.746	1543.54717
717.178	1513.57253
717.61	1595.8719
718.043	1565.71963
718.475	1559.65126
718.907	1544.73827
719.339	1585.43341
719.77	1547.59294
720.202	1494.694
720.634	1570.70633
721.065	1551.5325
721.497	1522.64241
721.928	1475.5838
722.359	1529.63315
722.79	1465.50369
723.221	1515.68176
723.652	1487.73751
724.083	1477.30439
724.514	1515.41049
724.945	1494.45287
725.375	1457.41473
725.806	1503.63994
726.236	1453.71709
726.666	1488.46849
727.096	1474.58137
727.526	1566.88707
727.956	1455.33783
728.386	1468.58148
728.816	1538.82826
729.246	1448.5896
729.675	1440.532
730.105	1476.57953
730.534	1419.35647
730.964	1447.61614
731.393	1495.60409
731.822	1479.74699
732.251	1434.66641
732.68	1461.37258
733.109	1453.58735
733.537	1519.63235
733.966	1543.73438
734.395	1456.36899
734.823	1451.21661
735.251	1488.52773
735.68	1463.58927
736.108	1428.59791
736.536	1429.37706
736.964	1483.39788
737.392	1504.68475
737.82	1441.45198
738.247	1467.47257
738.675	1411.36609
739.102	1422.58436
739.53	1478.77141
739.957	1451.76101
740.384	1414.44878
740.811	1353.48751
741.238	1453.5662
741.665	1512.48128
742.092	1350.23077
742.519	1395.54083
742.945	1500.58631
743.372	1450.60772
743.798	1411.6615
744.225	1404.38038
744.651	1387.54898
745.077	1408.56395
745.503	1368.4048
745.929	1404.46711
746.355	1375.43657
746.781	1344.43349
747.207	1398.39552
747.632	1354.49369
748.058	1407.60769
748.483	1370.25535
748.908	1327.46501
749.334	1342.45068
749.759	1309.30479
750.184	1354.39364
750.609	1302.3738
751.033	1281.19694
751.458	1326.11413
751.883	1271.34672
752.307	1280.22726
752.732	1295.51442
753.156	1312.40169
753.58	1195.12398
754.005	1249.37801
754.429	1265.23622
754.853	1250.36446
755.277	1261.23372
755.7	1178.25276
756.124	1172.25093
756.548	1140.06183
756.971	1165.18457
757.394	1178.33705
757.818	1106.26201
758.241	1173.31796
758.664	1130.23439
759.087	1122.92784
759.51	1124.1544
759.933	1069.03351
760.356	1114.27737
760.778	1099.11292
761.201	1050.99532
761.623	1047.95064
762.046	1053.9135
762.468	1046.96559
762.89	1017.9704
763.312	998.95788
763.734	1047.99105
764.156	1050.05371
764.578	948.71401
765	993.93572
765.421	972.02062
765.843	901.95776
766.264	886.7036
766.686	842.73223
767.107	893.76852
767.528	916.94531
767.949	886.85792
768.37	874.79168
768.791	841.65921
769.212	830.75265
769.632	805.56507
770.053	824.8135
770.473	784.57736
770.894	770.59036
771.314	815.58379
771.734	734.43598
772.154	748.62346
772.575	793.5066
772.994	711.3499
773.414	783.5468
773.834	670.43614
774.254	699.45356
774.673	740.53516
775.093	725.54045
775.512	690.46188
775.931	665.46062
776.351	669.44108
776.77	668.41337
777.189	607.24969
777.607	629.40114
778.026	585.27826
778.445	609.35598
778.864	572.27429
779.282	549.14531
779.701	556.22991
780.119	565.26517
780.537	508.12405
780.955	588.30133
781.373	485.06883
781.791	581.144
782.209	558.08857
782.627	518.22168
783.045	482.96811
783.462	475.08951
783.88	482.12346
784.297	468.05733
784.715	479.11185
785.132	440.95097
785.549	437.98621
785.966	452.02361
786.383	460.02105
786.8	477.9817
787.217	460.9861
787.633	434.99162
788.05	386.81034
788.466	404.84551
788.883	464.07592
789.299	334.72653
789.715	392.87005
790.131	404.91269
790.547	367.83638
790.963	334.76135
791.379	366.84907
791.795	360.73508
792.21	354.74743
792.626	341.73214
793.041	288.65783
793.457	265.60567
793.872	327.69664
794.287	309.69256
794.702	263.59238
795.117	322.74229
795.532	292.68627
795.947	306.66676
796.362	275.59325
796.776	263.55762
797.191	294.66775
797.605	294.64633
798.02	296.66438
798.434	271.55549
798.848	282.65501
799.262	252.58418
799.676	271.61364
800.09	225.5186
800.504	218.49314
800.918	194.41735
801.331	145.35411
801.745	206.43973
802.158	190.44413
802.572	266.59852
802.985	230.5135
803.398	205.45684
803.811	165.39378
804.224	182.42176
804.637	179.40435
805.05	141.30705
805.462	161.37243
805.875	154.38231
806.288	173.39764
806.7	109.25964
807.112	198.4254
807.525	136.31391
807.937	168.39471
808.349	121.28745
808.761	195.45376
809.173	187.42913
809.584	157.36548
809.996	134.312
810.408	146.36417
810.819	128.28696
811.231	198.50279
811.642	156.36909
812.053	147.34153
812.464	138.31027
812.875	179.43584
813.286	183.45073
813.697	112.2424
814.108	137.31628
814.519	163.34515
814.929	144.34833
815.34	87.20013
815.75	148.36151
816.16	43.10235
816.571	98.24374
816.981	86.19185
817.391	96.21947
817.801	100.23925
818.211	124.28017
818.62	106.24535
819.03	102.23834
819.44	70.17321
819.849	41.09894
820.259	97.23539
820.668	70.16665
821.077	68.16455
821.486	77.17543
821.895	73.17061
822.304	50.12819
822.713	90.20252
823.122	58.13935
823.531	59.13241
823.939	114.26628
824.348	63.14637
824.756	85.20309
825.164	64.15435
825.573	79.19078
825.981	70.16588
826.389	105.25165
826.797	135.32797
827.205	52.11586
827.612	75.17666
828.02	-10.02276
828.428	88.21487
828.835	63.1616
829.243	49.11159
829.65	43.10435
830.057	60.13932
830.464	134.31422
830.871	84.19343
831.278	61.14195
831.685	85.17975
832.092	31.07265
832.499	127.26362
832.905	31.07551
833.312	27.0582
833.718	127.30344
834.124	105.22866
834.531	56.13465
834.937	78.19329
835.343	48.11053
835.749	61.13442
836.155	55.1393
836.561	30.07156
836.966	80.18657
837.372	40.09796
837.777	70.16837
838.183	29.0617
838.588	65.15643
838.993	59.13827
839.399	75.17687
839.804	46.10846
840.209	67.16649
840.613	50.10641
841.018	37.09013
841.423	67.16576
841.828	43.10576
842.232	23.05416
842.637	81.18492
843.041	26.06507
843.445	49.11761
843.849	37.08898
844.253	55.1251
844.657	26.06396
845.061	107.23479
845.465	48.11176
845.869	62.13803
846.272	26.06166
846.676	6.01382
847.079	62.1533
847.483	65.15537
847.886	74.17067
848.289	47.12329
848.692	4.00979
849.095	44.10128
849.498	84.20074
849.901	25.05477
850.304	55.12607
850.707	18.04438
851.109	56.13567
851.512	53.12581
851.914	-13.03226
852.316	67.16503
852.718	64.16379
853.121	52.12279
853.523	16.03589
853.925	70.17802
854.326	37.09013
854.728	42.10492
855.13	14.03552
855.531	28.06484
855.933	37.08467
856.334	47.1141
856.736	59.12783
857.137	85.19037
857.538	71.17294
857.939	70.16869
858.34	-3.00703
858.741	66.16564
859.142	22.05078
859.542	31.08002
859.943	46.11014
860.343	34.08203
860.744	46.10804
861.144	70.16536
861.544	52.12208
861.945	35.08618
862.345	74.17237
862.745	55.13267
863.145	0
863.544	34.08342
863.944	36.08187
864.344	19.04507
864.743	69.16392
865.143	85.21152
865.542	4.00886
865.941	33.07927
866.34	9.02059
866.74	18.0471
867.139	84.19505
867.537	1.00245
867.936	57.13238
868.335	-6.01484
868.734	31.07689
869.132	15.03321
869.531	22.05074
869.929	19.04203
870.327	16.03711
870.726	50.11867
871.124	53.11767
871.522	49.11994
871.92	84.19813
872.318	51.11891
872.715	42.09856
873.113	50.11642
873.511	33.07912
873.908	50.12395
874.306	36.08728
874.703	2.00481
875.1	-10.02455
875.497	57.13049
875.894	32.07726
876.291	70.16504
876.688	45.11231
877.085	22.05058
877.482	22.05328
877.878	66.15452
878.275	60.14716
878.671	29.0599
879.068	83.19109
879.464	33.07685
879.86	49.11123
880.256	7.01646
880.652	14.03454
881.048	50.1178
881.444	6.01361
881.84	64.1561
882.236	56.13526
882.631	70.16562
883.027	71.16365
883.422	-3.00742
883.817	34.0833
884.213	76.1873
884.608	58.13993
885.003	19.04387
885.398	-39.09571
885.793	9.02182
886.188	16.03846
886.582	21.05167
886.977	61.13752
887.371	46.11127
887.766	38.09182
888.16	4.00951
888.554	27.06397
888.949	45.10879
889.343	46.1074
889.737	28.07321
890.131	26.06311
890.525	92.22681
890.918	15.03655
891.312	39.08871
891.706	56.14135
892.099	26.06379
892.492	32.06561
892.886	63.14736
893.279	-8.0198
893.672	73.17974
894.065	8.01946
894.458	2.00483
894.851	29.06802
895.244	46.11324
895.637	66.15277
896.029	57.13473
896.422	45.1043
896.814	40.09548
897.206	47.10916
897.599	63.1492
897.991	25.05877
898.383	50.11362
898.775	66.14394
899.167	32.07301
899.559	-1.00244
899.951	34.07629
900.342	43.10435
900.734	54.13225
901.125	45.1132
901.517	56.13229
901.908	38.08617
902.299	42.09922
902.69	39.08936
903.082	63.14614
903.473	50.11697
903.863	0
904.254	81.18141
904.645	23.05451
905.036	82.19379
905.426	28.06057
905.817	-7.01657
906.207	-13.02973
906.597	21.0479
906.987	17.04235
907.378	62.15161
907.768	33.08486
908.158	54.12603
908.547	65.16404
908.937	2.00492
909.327	51.11859
909.717	86.20505
910.106	32.07363
910.495	67.15831
910.885	42.1029
911.274	49.11761
911.663	29.07043
912.052	45.10542
912.441	64.15773
912.83	21.04602
913.219	54.13567
913.608	39.0924
913.997	40.09774
914.385	66.15076
914.774	43.10042
915.162	69.15917
915.55	5.01161
915.939	57.13957
916.327	3.0072
916.715	41.10255
917.103	43.09987
917.491	53.12542
917.878	26.06152
918.266	32.07991
918.654	54.13401
919.041	26.06673
919.429	33.07488
919.816	5.01228
920.203	93.2171
920.591	41.09815
920.978	53.12455
921.365	51.12972
921.752	-19.04329
922.139	68.14024
922.525	56.12952
922.912	74.17169
923.299	27.06493
923.685	-20.05047
924.072	-17.03701
924.458	49.11735
924.844	10.02399
925.231	12.02667
925.617	50.12399
926.003	11.02717
926.389	31.07548
926.774	53.12867
927.16	31.0741
927.546	78.19428
927.931	27.06459
928.317	6.01323
928.702	29.06564
929.088	42.09776
929.473	38.09417
929.858	40.09493
930.243	41.09571
930.628	49.11587
931.013	29.0695
931.398	29.06283
931.783	-30.0764
932.167	84.19828
932.552	33.07948
932.937	24.05714
933.321	44.10736
933.705	-7.01695
934.09	-8.01922
934.474	23.05204
934.858	21.05294
935.242	-10.02237
935.626	44.10927
936.009	31.08082
936.393	70.17353
936.777	74.18304
937.16	66.16666
937.544	40.08879
937.927	32.07895
938.311	52.12079
938.694	43.1103
939.077	37.08515
939.46	14.03243
939.843	38.0735
940.226	9.02227
940.609	77.17046
940.991	4.00982
941.374	57.13458
941.757	49.1156
942.139	26.05634
942.522	44.09897
942.904	75.17212
943.286	61.14825
943.668	84.21097
944.05	18.0429
944.432	20.04747
944.814	30.07043
945.196	23.05462
945.578	40.0931
945.959	50.11085
946.341	40.09244
946.722	38.08502
947.104	19.04383
947.485	37.08266
947.866	52.12721
948.247	16.03952
948.628	-29.06746
949.009	42.10377
949.39	87.20509
949.771	-5.01096
950.152	32.0758
950.532	57.13874
950.913	6.01397
951.293	-6.01598
951.674	20.04668
952.054	103.24798
952.434	50.11954
952.814	41.09239
953.194	12.03005
953.574	67.15702
953.954	10.02266
954.334	88.21151
954.714	45.106
955.093	57.13426
955.473	58.14099
955.853	47.11743
956.232	26.06911
956.611	47.10647
956.99	15.03667
957.37	25.06115
957.749	-36.08224
958.128	62.15099
958.506	52.13032
958.885	8.01949
959.264	60.143
959.643	36.07911
960.021	31.07469
960.4	20.04349
960.778	22.05143
961.156	31.07464
961.535	-18.04022
961.913	102.22745
962.291	48.12038
962.669	52.12749
963.047	43.10646
963.424	53.13213
963.802	43.10196
964.18	21.05044
964.557	56.12234
964.935	75.16901
965.312	28.07106
965.69	16.03834
966.067	-10.02333
966.444	38.0882
966.821	57.14159
967.198	27.06224
967.575	23.05411
967.952	30.06767
968.329	78.1824
968.705	75.15339
969.082	41.10303
969.458	24.05637
969.835	54.12593
970.211	68.16956
970.587	31.07461
970.963	37.0907
971.339	17.0433
971.715	65.1559
972.091	55.1297
972.467	17.04032
972.843	47.11363
973.219	43.09789
973.594	-1.00255
973.97	23.05115
974.345	32.07404
974.721	13.02988
975.096	54.12638
975.471	75.16859
975.846	-14.03237
976.221	37.0908
976.596	62.14482
976.971	78.18541
977.346	37.08177
977.72	21.05146
978.095	62.15387
978.469	71.16071
978.844	32.07703
979.218	79.18362
979.593	63.14336
979.967	14.03225
980.341	28.06223
980.715	32.07802
981.089	68.16282
981.463	-6.01332
981.837	9.02156
982.21	14.03043
982.584	48.11176
982.957	44.10648
983.331	69.15281
983.704	61.14558
984.078	10.02379
984.451	28.06592
984.824	20.04736
985.197	1.00231
985.57	-18.04316
985.943	7.01639
986.316	35.08119
986.688	22.05098
987.061	72.16135
987.434	59.15012
987.806	15.03453
988.179	61.13673
988.551	52.12612
988.923	27.06365
989.295	35.08369
989.667	32.07477
990.039	58.13998
990.411	27.0586
990.783	2.00437
991.155	32.07436
991.527	36.08339
991.898	39.09407
992.27	35.0843
992.641	33.07918
993.012	-10.02212
993.384	24.05476
993.755	72.17705
994.126	46.10715
994.497	12.02848
994.868	-1.00219
995.239	10.02332
995.61	17.04143
995.98	-9.02116
996.351	26.06261
996.722	82.183
997.092	24.05502
997.462	23.0524
997.833	40.08993
998.203	13.02991
998.573	26.06275
998.943	76.1706
999.313	89.20408
999.683	36.08333
1000.053	-4.00866
1000.423	5.01164
1000.792	26.06436
1001.162	22.05181
1001.531	67.15831
1001.901	26.06213
1002.27	61.12657
1002.639	-2.00492
1003.009	47.10669
1003.378	34.08407
1003.747	82.18263
1004.116	31.07111
1004.485	61.13909
1004.853	-9.02182
1005.222	-25.06019
1005.591	36.08164
1005.959	26.05646
1006.328	38.08214
1006.696	13.0301
1007.064	35.08388
1007.433	5.01199
1007.801	-2.00466
1008.169	9.02174
1008.537	66.13838
1008.905	35.07881
1009.273	35.08241
1009.64	53.12275
1010.008	58.13169
1010.375	41.09356
1010.743	22.04706
1011.11	56.12936
1011.478	54.12915
1011.845	20.04491
1012.212	83.18029
1012.579	27.06397
1012.946	50.11228
1013.313	-9.02051
1013.68	52.11052
1014.047	17.039
1014.414	14.03177
1014.78	58.13877
1015.147	5.01152
1015.513	33.07637
1015.88	69.16757
1016.246	27.06325
1016.612	52.1123
1016.978	45.10657
1017.344	90.2122
1017.71	33.0767
1018.076	3.00674
1018.442	44.10939
1018.808	74.17867
1019.174	2.00483
1019.539	30.06301
1019.905	20.04565
1020.27	5.01191
1020.636	-29.06653
1021.001	48.1104
1021.366	38.08803
1021.731	74.18505
1022.096	52.12735
1022.461	53.12021
1022.826	69.15765
1023.191	-3.00766
1023.556	69.15281
1023.92	24.05621
1024.285	75.17225
1024.649	43.10034
1025.014	-23.05466
1025.378	67.16241
1025.742	24.05687
1026.107	54.11572
1026.471	58.128
1026.835	37.08817
1027.199	-3.007
1027.562	17.03751
1027.926	18.04211
1028.29	65.15774
1028.654	43.09396
1029.017	62.14618
1029.381	33.07597
1029.744	-2.00495
1030.107	38.08607
1030.471	64.14708
1030.834	11.0236
1031.197	60.13772
1031.56	54.12081
1031.923	6.01508
1032.286	78.17379
1032.648	15.03398
1033.011	42.09362
1033.374	59.13045
1033.736	4.01023
1034.099	32.07504
1034.461	36.08839
1034.823	34.08191
1035.185	-13.03145
1035.548	36.08458
1035.91	63.14353
1036.272	11.02421
1036.634	-7.01657
1036.995	18.04029
1037.357	35.08228
1037.719	64.1489
1038.08	117.26441
1038.442	17.03873
1038.803	-7.01596
1039.165	-7.01704
1039.526	31.07202
1039.887	25.0574
1040.248	41.09886
1040.609	-6.01419
1040.97	30.07021
1041.331	61.1492
1041.692	48.10925
1042.053	18.03901
1042.413	67.14727
1042.774	60.13976
1043.134	44.09868
1043.495	9.02187
1043.855	66.15464
1044.215	-37.08891
1044.576	26.06023
1044.936	37.08047
1045.296	61.14558
1045.656	24.05599
1046.016	36.08277
1046.375	39.09072
1046.735	41.09057
1047.095	46.10292
1047.454	15.02993
1047.814	13.03014
1048.173	53.11889
1048.533	24.05268
1048.892	23.05337
1049.251	29.0695
1049.61	13.03093
1049.969	25.05634
1050.328	29.05993
1050.687	7.01632
1051.046	13.03037
1051.405	41.09688
1051.763	56.1242
1052.122	-27.0654
1052.48	36.08508
1052.839	59.1348
1053.197	11.02488
1053.555	71.14955
1053.914	26.06092
1054.272	-5.01141
1054.63	21.0496
1054.988	30.06914
1055.345	-27.05517
1055.703	55.12672
1056.061	35.08792
1056.419	55.1393
1056.776	32.07307
1057.134	-19.04169
1057.491	14.03388
1057.848	15.03579
1058.206	11.02444
1058.563	63.13107
1058.92	27.05925
1059.277	44.10406
1059.634	-6.01341
1059.991	83.18933
1060.348	24.05219
1060.704	85.19725
1061.061	4.00875
1061.418	46.10702
1061.774	13.03098
1062.131	40.10384
1062.487	28.06231
1062.843	29.06953
1063.199	40.09563
1063.555	52.1161
1063.911	-13.03165
1064.267	40.0776
1064.623	34.08032
1064.979	-61.13549
1065.335	62.13974
1065.691	5.01136
1066.046	76.15716
1066.402	42.09028
1066.757	23.05605
1067.112	48.11221
1067.468	63.14394
1067.823	-28.06386
1068.178	22.05076
1068.533	26.06054
1068.888	29.06604
1069.243	16.03809
1069.598	18.04178
1069.952	79.17255
1070.307	33.07903
1070.662	44.1014
1071.016	70.15111
1071.371	44.09604
1071.725	49.11078
1072.079	41.09469
1072.434	3.00707
1072.788	-25.05684
1073.142	25.05925
1073.496	7.01595
1073.85	74.16228
1074.203	21.04908
1074.557	62.16078
1074.911	32.07257
1075.265	56.12379
1075.618	63.14701
1075.971	65.14695
1076.325	27.06677
1076.678	-31.06877
1077.031	-17.03627
1077.385	41.08545
1077.738	24.05165
1078.091	-10.02217
1078.444	1.0022
1078.796	32.07601
1079.149	73.17369
1079.502	0
1079.855	21.04707
1080.207	54.12673
1080.56	14.03529
1080.912	36.08386
1081.264	34.07892
1081.617	-17.04035
1081.969	33.08074
1082.321	-26.0614
1082.673	-1.00224
1083.025	5.01135
1083.377	24.05405
1083.728	23.05111
1084.08	-2.0048
1084.432	28.06453
1084.783	-1.00221
1085.135	36.08725
1085.486	27.05957
1085.838	32.07606
1086.189	13.03072
1086.54	27.06154
1086.891	68.16808
1087.242	48.1141
1087.593	4.00924
1087.944	30.06559
1088.295	65.13963
1088.646	68.16052
1088.996	28.06527
1089.347	-1.00236
1089.698	61.1392
1090.048	9.02249
1090.398	15.03312
1090.749	32.07263
1091.099	69.16832
1091.449	33.07945
1091.799	28.06748
1092.149	12.0287
1092.499	31.07268
1092.849	37.09073
1093.199	22.05262
1093.548	52.12094
1093.898	-25.06055
1094.248	14.03441
1094.597	-20.05043
1094.947	27.06994
1095.296	17.04074
1095.645	29.07248
1095.994	34.07829
1096.343	2.00489
1096.692	65.16714
1097.041	49.13045
1097.39	47.11238
1097.739	23.05776
1098.088	50.12819
1098.437	26.06719
1098.785	33.08536
1099.134	0
1099.482	41.1097
1099.83	17.04332
1100.179	26.06698
1100.527	-17.04352
1100.875	28.07229
1101.223	18.04673
1101.571	-31.08368
1101.919	39.10084
1102.267	26.07194
1102.615	-6.01929
1102.962	-6.01926
1103.31	6.01926
1103.658	-11.03531
