Data from N3 R1 sample 10_Subt2__0__15-10-36-075.txt Node

Date: Wed Sep 17 15:10:36 PDT 2025
User: uwsun
Spectrometer: HDX01956
Trigger mode: 0
Integration Time (sec): 5.000000E-1
Scans to average: 1
Nonlinearity correction enabled: true
Boxcar width: 0
Storing dark spectrum: false
XAxis mode: Wavelengths
Number of Pixels in Spectrum: 2068
>>>>>Begin Spectral Data<<<<<
194.03	23.06655
194.578	32.10366
195.127	24.07673
195.676	38.12172
196.225	49.1298
196.773	67.1853
197.321	53.14718
197.87	89.22965
198.418	191.48768
198.966	113.29902
199.513	157.39819
200.061	120.30614
200.609	157.4128
201.156	130.28568
201.704	95.24112
202.251	119.31732
202.798	122.31714
203.345	149.36889
203.892	138.3492
204.438	148.35084
204.985	110.26328
205.532	100.26467
206.078	122.29911
206.624	205.50937
207.17	153.35884
207.716	165.4037
208.262	146.29013
208.808	161.40384
209.354	146.36153
209.899	180.44994
210.445	137.34352
210.99	161.39231
211.535	147.34692
212.08	159.36839
212.625	157.39111
213.17	164.41661
213.715	191.43339
214.259	192.44475
214.804	127.31212
215.348	182.41841
215.892	193.46482
216.436	86.19851
216.98	115.25394
217.524	155.3702
218.068	154.38788
218.612	199.50112
219.155	147.34733
219.698	144.34228
220.242	114.28208
220.785	161.37671
221.328	97.24103
221.871	148.3761
222.414	123.30419
222.956	99.2379
223.499	151.33483
224.041	107.24516
224.583	114.24071
225.126	162.35241
225.668	135.32699
226.21	172.4315
226.751	160.35412
227.293	90.20467
227.835	106.26046
228.376	109.24813
228.918	85.2126
229.459	135.33569
230	183.43439
230.541	146.33377
231.082	129.31351
231.622	40.09181
232.163	126.30307
232.704	156.38784
233.244	130.32155
233.784	129.3114
234.324	194.43062
234.864	116.26198
235.404	145.33901
235.944	138.32322
236.484	148.36701
237.023	106.25012
237.563	161.37125
238.102	142.33402
238.641	92.23181
239.18	124.29077
239.719	126.31451
240.258	145.3238
240.797	162.38358
241.335	115.27928
241.874	140.2721
242.412	147.35538
242.95	143.34415
243.488	77.17415
244.026	178.40954
244.564	149.30501
245.102	175.39257
245.64	123.29287
246.177	168.36903
246.715	137.32783
247.252	145.32688
247.789	214.38779
248.326	131.31503
248.863	136.29862
249.4	137.30935
249.936	173.35911
250.473	173.40511
251.009	124.28348
251.546	152.33782
252.082	90.19545
252.618	157.34871
253.154	167.39824
253.69	192.42405
254.226	148.35246
254.761	146.32597
255.297	148.32127
255.832	145.34326
256.367	133.31157
256.903	201.44012
257.438	167.38753
257.972	163.35978
258.507	86.19851
259.042	189.40546
259.576	181.3965
260.111	131.2999
260.645	164.35114
261.179	151.35179
261.713	175.38788
262.247	144.32695
262.781	148.31071
263.315	107.25976
263.849	158.39267
264.382	135.30906
264.915	154.36238
265.449	111.27128
265.982	136.30803
266.515	174.42248
267.048	188.3933
267.58	124.26722
268.113	176.37651
268.646	110.26929
269.178	109.24422
269.71	168.36872
270.243	222.50485
270.775	177.44971
271.307	125.29649
271.838	171.39948
272.37	151.36753
272.902	153.34421
273.433	163.35903
273.965	143.34571
274.496	160.39314
275.027	171.4218
275.558	171.41371
276.089	210.51637
276.62	95.24018
277.15	141.34499
277.681	118.25418
278.211	184.4429
278.741	149.32971
279.272	146.33297
279.802	123.30552
280.332	167.39121
280.861	174.41151
281.391	117.26645
281.921	157.37239
282.45	156.38388
282.98	157.40622
283.509	214.47896
284.038	155.35299
284.567	187.43051
285.096	213.50832
285.625	123.27683
286.153	225.5281
286.682	193.4381
287.21	130.30889
287.739	177.41399
288.267	158.38262
288.795	167.43224
289.323	176.40979
289.851	173.40384
290.378	152.33712
290.906	181.43873
291.433	163.4034
291.961	169.38363
292.488	174.42738
293.015	184.43027
293.542	203.51521
294.069	206.50354
294.596	211.50701
295.122	220.51909
295.649	145.31643
296.175	164.39177
296.702	201.48537
297.228	166.39654
297.754	193.4292
298.28	208.47225
298.806	181.43212
299.332	151.33748
299.857	191.42969
300.383	208.51522
300.908	208.50464
301.433	209.50545
301.958	191.43304
302.483	143.35338
303.008	230.56219
303.533	178.45473
304.058	178.41118
304.582	164.38561
305.107	162.41894
305.631	213.47564
306.155	197.45389
306.679	201.46735
307.203	189.43476
307.727	188.44135
308.251	222.53901
308.775	280.66396
309.298	216.51341
309.822	190.47219
310.345	249.58328
310.868	221.52519
311.391	260.62581
311.914	203.50256
312.437	246.55126
312.96	242.55945
313.482	227.52446
314.005	211.51911
314.527	186.47867
315.049	264.65319
315.571	226.50144
316.093	256.62061
316.615	187.44474
317.137	260.55427
317.659	216.51597
318.18	199.4689
318.702	243.55942
319.223	201.40586
319.744	259.57094
320.265	257.61354
320.786	253.62013
321.307	266.64219
321.828	267.58882
322.348	258.59477
322.869	261.60924
323.389	229.44392
323.909	202.45714
324.43	263.61463
324.95	304.6756
325.47	297.71688
325.989	274.63543
326.509	290.63325
327.029	294.6542
327.548	339.7407
328.067	299.70641
328.587	313.76232
329.106	276.60727
329.625	299.75692
330.144	332.7467
330.662	267.61466
331.181	366.8299
331.7	270.61399
332.218	377.7829
332.736	329.74556
333.255	349.7928
333.773	335.7644
334.291	372.89429
334.808	368.79674
335.326	349.75545
335.844	374.84528
336.361	408.00226
336.879	414.92879
337.396	409.95123
337.913	412.90721
338.43	380.82166
338.947	421.95748
339.464	389.80277
339.981	371.8455
340.497	391.92048
341.014	379.88704
341.53	348.75795
342.046	472.11175
342.562	395.94253
343.078	427.95579
343.594	421.95283
344.11	491.10285
344.626	430.03145
345.141	492.05368
345.657	440.94405
346.172	508.14599
346.687	425.92739
347.202	517.10087
347.717	448.01042
348.232	468.09932
348.747	461.00438
349.261	466.96533
349.776	533.17921
350.29	483.1388
350.805	506.17023
351.319	534.15265
351.833	554.18056
352.347	468.04185
352.861	486.07126
353.374	541.13958
353.888	593.33502
354.401	525.11116
354.915	539.13088
355.428	567.30864
355.941	506.10144
356.454	507.05192
356.967	498.08675
357.48	509.07629
357.993	573.30151
358.505	574.28772
359.018	621.39243
359.53	621.38786
360.042	601.23176
360.554	624.39773
361.066	575.29076
361.578	643.28768
362.09	618.34392
362.602	644.30188
363.113	682.44806
363.625	656.34799
364.136	605.21314
364.647	678.45205
365.158	661.39214
365.669	590.29545
366.18	675.43349
366.691	612.22183
367.201	677.46519
367.712	706.44761
368.222	696.43929
368.733	681.32868
369.243	758.4977
369.753	712.46716
370.263	750.61262
370.773	729.58521
371.282	786.65678
371.792	734.51525
372.301	805.70835
372.811	759.77983
373.32	820.54174
373.829	840.72269
374.338	853.63573
374.847	921.813
375.356	875.78042
375.865	942.70054
376.373	956.83577
376.882	1006.1533
377.39	949.94861
377.898	1025.11071
378.407	1114.05343
378.915	1181.05048
379.423	1123.12104
379.93	1237.27242
380.438	1203.31447
380.946	1322.37902
381.453	1355.511
381.96	1456.6159
382.468	1501.6146
382.975	1653.91841
383.482	1597.54648
383.989	1736.19286
384.495	1863.91563
385.002	1818.49472
385.509	1968.08067
386.015	2090.53316
386.521	2209.0073
387.028	2256.01576
387.534	2311.7679
388.04	2422.36007
388.546	2438.93845
389.051	2597.95069
389.557	2755.21724
390.063	2902.08458
390.568	3136.43084
391.073	3128.96637
391.578	3363.49844
392.084	3355.05522
392.589	3493.71911
393.093	3800.23071
393.598	4144.81011
394.103	4531.84587
394.607	5010.66494
395.112	5208.71131
395.616	5699.363
396.12	6124.78869
396.624	6840.84902
397.128	7422.0523
397.632	8271.50189
398.136	8893.27642
398.639	9424.31961
399.143	10454.07527
399.646	11843.12512
400.15	13127.16213
400.653	14577.08371
401.156	16501.98745
401.659	19223.32165
402.162	23416.55439
402.664	30744.04254
403.167	42727.90764
403.67	60950.2657
404.172	63919.58413
404.674	63858.43483
405.176	63738.15102
405.678	63977.72923
406.18	64011.81569
406.682	63863.44694
407.184	63926.60148
407.686	63841.39382
408.187	64025.8516
408.688	63892.51763
409.19	56531.72476
409.691	45013.79768
410.192	37892.88541
410.693	32860.94877
411.194	29831.28253
411.694	28216.66613
412.195	26122.47126
412.696	23640.44915
413.196	21834.29413
413.696	21015.94402
414.196	21202.86364
414.696	20898.33466
415.196	19901.87951
415.696	18090.43185
416.196	14642.30729
416.695	11443.18631
417.195	9806.22789
417.694	9313.05615
418.194	8697.82931
418.693	8124.2574
419.192	7750.08938
419.691	7731.01597
420.19	7605.10301
420.688	7459.15117
421.187	6931.15371
421.685	6562.78142
422.184	5889.07618
422.682	5136.9126
423.18	4423.65777
423.678	3895.87145
424.176	3575.97978
424.674	3487.85029
425.172	3228.23587
425.669	3091.50845
426.167	2886.18325
426.664	2602.03976
427.161	2452.07392
427.659	2288.28184
428.156	2103.62573
428.652	2060.34038
429.149	1869.02445
429.646	1834.6638
430.143	1756.88063
430.639	1607.70151
431.135	1527.81143
431.632	1456.43216
432.128	1385.50865
432.624	1340.68353
433.12	1246.19283
433.616	1281.12711
434.111	1123.13753
434.607	1091.11153
435.103	1050.75294
435.598	1136.83827
436.093	1020.9429
436.588	991.82698
437.083	942.74816
437.578	928.79474
438.073	875.8723
438.568	821.74309
439.062	830.50098
439.557	778.57173
440.051	693.36621
440.546	740.46003
441.04	740.55291
441.534	675.51238
442.028	660.41346
442.522	643.37613
443.015	646.22062
443.509	670.4454
444.002	660.43596
444.496	567.10486
444.989	598.30533
445.482	589.31627
445.975	633.30212
446.468	605.16619
446.961	642.23082
447.454	579.1652
447.947	595.27657
448.439	591.30662
448.931	562.16443
449.424	598.37343
449.916	631.37483
450.408	491.02819
450.9	506.1252
451.392	541.25253
451.884	549.14024
452.375	487.1086
452.867	456.94546
453.358	497.04032
453.849	470.9218
454.341	527.07889
454.832	475.94019
455.323	516.17543
455.814	478.00202
456.304	444.95099
456.795	439.9283
457.285	414.84688
457.776	441.92967
458.266	455.99788
458.756	402.88668
459.247	410.91491
459.737	493.09284
460.226	412.87446
460.716	419.93248
461.206	373.83838
461.695	341.7975
462.185	384.85442
462.674	378.80965
463.163	393.82304
463.653	401.79371
464.142	385.87456
464.63	362.82549
465.119	361.78943
465.608	391.85646
466.096	345.70462
466.585	347.74663
467.073	300.67363
467.561	317.72158
468.05	335.72824
468.538	349.80403
469.026	307.69175
469.513	300.60089
470.001	338.73273
470.489	289.65546
470.976	378.82712
471.463	285.67777
471.951	319.7519
472.438	271.6089
472.925	329.73252
473.412	247.57611
473.899	301.65601
474.385	256.60167
474.872	283.62959
475.359	302.70672
475.845	275.54304
476.331	249.50855
476.817	256.59792
477.303	259.57716
477.789	213.49075
478.275	252.6008
478.761	213.48918
479.247	232.49845
479.732	212.51222
480.218	290.72616
480.703	217.51687
481.188	212.44409
481.673	196.43759
482.158	212.4435
482.643	258.63297
483.128	251.56235
483.612	233.53554
484.097	228.53023
484.581	188.42303
485.066	214.50748
485.55	244.51881
486.034	186.39239
486.518	241.5557
487.002	131.313
487.486	184.43449
487.969	122.29189
488.453	145.35359
488.936	185.40526
489.42	196.42093
489.903	152.37017
490.386	107.21893
490.869	202.42932
491.352	130.30746
491.835	158.31618
492.318	117.25944
492.8	142.2889
493.283	171.42598
493.765	104.25195
494.247	168.38174
494.73	99.21715
495.212	141.32785
495.694	170.39129
496.175	186.43512
496.657	180.41514
497.139	84.14361
497.62	126.29846
498.102	151.36835
498.583	66.16122
499.064	101.22303
499.545	128.2872
500.026	130.28965
500.507	91.20774
500.988	173.42202
501.469	124.30413
501.949	139.33693
502.43	137.32458
502.91	161.33435
503.39	98.24027
503.87	118.27529
504.35	102.236
504.83	109.23565
505.31	68.16313
505.79	54.12742
506.269	65.14869
506.749	89.20179
507.228	90.21022
507.707	180.3914
508.187	142.33324
508.666	152.3692
509.145	64.14925
509.623	103.23864
510.102	79.18991
510.581	130.30877
511.059	137.33905
511.538	97.24751
512.016	94.22335
512.494	110.26117
512.972	144.33859
513.45	73.16961
513.928	129.30893
514.406	126.30456
514.884	112.28533
515.361	106.25099
515.839	164.36963
516.316	133.31826
516.793	89.22284
517.27	91.2171
517.747	94.23913
518.224	92.21032
518.701	87.19107
519.178	76.18923
519.654	111.25983
520.131	101.24776
520.607	79.19186
521.083	76.17144
521.56	99.23119
522.036	97.20944
522.512	116.28292
522.987	154.36393
523.463	52.12327
523.939	149.3632
524.414	79.17991
524.89	122.28731
525.365	72.16215
525.84	52.12503
526.315	92.2212
526.79	94.21048
527.265	117.26721
527.74	80.19308
528.215	54.12593
528.689	67.14659
529.164	86.18334
529.638	86.21638
530.112	33.07791
530.587	80.17055
531.061	86.20686
531.534	122.2901
532.008	98.23635
532.482	85.19428
532.956	83.21037
533.429	119.28769
533.903	72.15736
534.376	75.16527
534.849	91.20774
535.322	91.21318
535.795	39.09439
536.268	108.25879
536.741	66.15628
537.213	55.12647
537.686	91.22108
538.158	108.24332
538.631	95.22829
539.103	62.14003
539.575	51.1053
540.047	76.16519
540.519	72.17147
540.991	149.35682
541.463	62.1489
541.934	63.14226
542.406	71.17016
542.877	96.21513
543.348	110.26298
543.82	103.24817
544.291	113.26109
544.762	125.29386
545.233	112.28099
545.703	90.19928
546.174	136.31079
546.645	97.23309
547.115	115.27477
547.585	111.25289
548.056	147.35592
548.526	190.44029
548.996	77.18356
549.466	143.34219
549.935	94.22344
550.405	93.20347
550.875	124.29122
551.344	119.28074
551.814	119.27002
552.283	214.45344
552.752	167.38416
553.221	178.38491
553.69	154.34269
554.159	191.46471
554.628	152.3395
555.096	155.38795
555.565	129.28211
556.033	198.46083
556.502	152.36088
556.97	132.29044
557.438	113.26306
557.906	150.34843
558.374	132.30262
558.842	165.38804
559.31	210.45721
559.777	145.34936
560.245	109.24813
560.712	151.34026
561.18	163.35436
561.647	127.27856
562.114	146.32974
562.581	188.45201
563.048	183.40984
563.514	215.52485
563.981	193.43134
564.448	228.49914
564.914	160.36489
565.381	198.44115
565.847	222.50137
566.313	195.44103
566.779	212.46352
567.245	181.4097
567.711	224.5199
568.176	151.33343
568.642	225.54967
569.108	205.49054
569.573	165.3744
570.038	238.48002
570.504	238.51971
570.969	237.56797
571.434	246.52693
571.899	216.49716
572.363	280.61529
572.828	313.68476
573.293	273.60029
573.757	289.64187
574.222	266.57272
574.686	314.68739
575.15	310.71178
575.614	324.72752
576.078	258.58314
576.542	318.68879
577.006	287.62046
577.469	296.69621
577.933	320.69312
578.396	275.62574
578.86	285.64245
579.323	375.85082
579.786	304.62807
580.249	318.71346
580.712	308.71426
581.175	306.72001
581.637	271.59339
582.1	297.61705
582.563	304.61426
583.025	301.69983
583.487	273.53833
583.95	259.53354
584.412	318.6334
584.874	327.75816
585.336	283.64342
585.797	338.69486
586.259	329.7304
586.721	296.66356
587.182	317.69469
587.643	337.7248
588.105	329.73768
588.566	324.63935
589.027	371.85675
589.488	382.82245
589.949	376.85948
590.41	339.63236
590.87	431.91577
591.331	445.89771
591.791	387.84019
592.252	397.86557
592.712	442.98263
593.172	491.02093
593.632	552.10491
594.092	437.90101
594.552	542.0568
595.011	545.12739
595.471	594.20285
595.931	570.15522
596.39	605.30084
596.849	608.26326
597.308	590.1157
597.768	703.6048
598.227	696.46819
598.685	700.39069
599.144	783.58654
599.603	816.6245
600.062	746.34191
600.52	900.68912
600.978	890.76298
601.437	926.73885
601.895	1032.75856
602.353	1058.84362
602.811	1120.98581
603.269	1133.13375
603.727	1127.15034
604.184	1285.20968
604.642	1297.44708
605.099	1337.34092
605.557	1477.6276
606.014	1454.21668
606.471	1483.74769
606.928	1631.46843
607.385	1701.97903
607.842	1703.63495
608.299	1788.77368
608.755	1831.95324
609.212	1982.71437
609.668	2022.78278
610.125	2024.0693
610.581	2138.0074
611.037	2118.79525
611.493	2133.98304
611.949	2213.23439
612.405	2232.43819
612.861	2245.96329
613.316	2357.21113
613.772	2291.96312
614.227	2410.24949
614.683	2405.6327
615.138	2403.11519
615.593	2330.03798
616.048	2488.0119
616.503	2413.2983
616.958	2403.46708
617.412	2471.20059
617.867	2397.88169
618.321	2457.51758
618.776	2403.80445
619.23	2425.11176
619.684	2337.84583
620.138	2355.97059
620.592	2313.24933
621.046	2334.12551
621.5	2316.20853
621.954	2272.78172
622.407	2243.77246
622.861	2213.20343
623.314	2266.88602
623.768	2249.08478
624.221	2158.27116
624.674	2150.93359
625.127	2204.98644
625.58	2129.79274
626.033	2188.69918
626.485	2106.06998
626.938	2159.07816
627.39	2250.03271
627.843	2176.93235
628.295	2194.94025
628.747	2213.11083
629.199	2229.8955
629.651	2211.9208
630.103	2352.97367
630.555	2237.55315
631.006	2281.01199
631.458	2379.10729
631.909	2388.86333
632.361	2454.0267
632.812	2582.07322
633.263	2638.74812
633.714	2691.62435
634.165	2805.29808
634.616	2821.21577
635.067	2901.81499
635.518	3037.23298
635.968	3203.16314
636.419	3265.70923
636.869	3318.18957
637.319	3433.03297
637.769	3516.80711
638.219	3690.05967
638.669	3735.0957
639.119	3957.05272
639.569	4113.00295
640.019	4406.58339
640.468	4499.32472
640.918	4637.64259
641.367	4738.17862
641.816	5037.96153
642.265	5139.24485
642.714	5320.01961
643.163	5467.00274
643.612	5719.31162
644.061	5755.37466
644.51	5995.7129
644.958	6189.42082
645.406	6254.90379
645.855	6434.96215
646.303	6598.61197
646.751	6744.61346
647.199	6822.49374
647.647	7014.64306
648.095	7141.56676
648.543	7146.07324
648.99	7245.87186
649.438	7261.6679
649.885	7317.10776
650.333	7346.045
650.78	7439.95733
651.227	7462.03445
651.674	7378.64687
652.121	7442.0431
652.568	7390.01918
653.015	7266.04509
653.461	7203.80156
653.908	7218.61907
654.354	6994.7798
654.801	7023.69551
655.247	6884.26381
655.693	6768.40352
656.139	6785.79003
656.585	6582.81656
657.031	6559.72109
657.477	6496.30499
657.922	6369.54164
658.368	6242.10105
658.813	6148.59669
659.259	6023.0858
659.704	5935.96039
660.149	5734.8461
660.594	5705.06531
661.039	5668.79861
661.484	5521.13859
661.929	5503.04997
662.373	5302.71081
662.818	5229.62919
663.262	5160.49279
663.707	5013.9922
664.151	4994.64683
664.595	4861.66217
665.039	4872.85882
665.483	4800.10944
665.927	4796.46497
666.371	4619.59099
666.814	4632.64832
667.258	4609.77649
667.701	4519.97536
668.145	4397.13817
668.588	4404.10156
669.031	4391.70673
669.474	4197.95084
669.917	4170.33668
670.36	4275.22254
670.803	4284.96318
671.245	4069.9742
671.688	4089.10642
672.13	3944.65944
672.573	4014.42729
673.015	3994.08234
673.457	3982.38909
673.899	3884.14795
674.341	3790.15319
674.783	3857.09111
675.225	3714.33874
675.666	3746.28898
676.108	3612.51046
676.549	3622.97474
676.991	3625.59587
677.432	3562.05743
677.873	3509.87977
678.314	3396.18334
678.755	3480.4142
679.196	3358.93113
679.637	3236.24741
680.078	3309.07835
680.518	3201.98854
680.959	3059.23164
681.399	3061.48396
681.839	3052.35512
682.28	2999.5132
682.72	2965.99457
683.16	2931.53415
683.6	2830.96949
684.039	2821.46545
684.479	2781.45094
684.919	2731.15802
685.358	2715.48326
685.798	2678.76058
686.237	2576.20193
686.676	2554.9148
687.115	2649.14978
687.554	2519.20975
687.993	2556.80308
688.432	2452.93963
688.871	2431.96137
689.309	2489.21216
689.748	2375.49227
690.186	2332.02471
690.625	2331.05031
691.063	2387.14674
691.501	2314.31006
691.939	2334.42075
692.377	2224.16058
692.815	2255.22444
693.253	2190.05004
693.69	2173.66058
694.128	2202.15732
694.565	2110.98784
695.003	2124.37587
695.44	2184.02628
695.877	2097.95161
696.314	2051.452
696.751	2076.76699
697.188	2119.89293
697.625	1961.65334
698.061	1945.93527
698.498	1949.87768
698.934	1985.95105
699.371	1910.83683
699.807	1984.89445
700.243	1878.92018
700.679	1848.57232
701.115	1887.77959
701.551	1808.70704
701.987	1772.44593
702.422	1843.84781
702.858	1812.82108
703.294	1876.70436
703.729	1802.89063
704.164	1780.79447
704.599	1796.54753
705.035	1765.54251
705.47	1706.80092
705.904	1726.63171
706.339	1781.63839
706.774	1702.65543
707.209	1768.68558
707.643	1665.70531
708.078	1723.82057
708.512	1644.87191
708.946	1650.65033
709.38	1680.69145
709.814	1679.5061
710.248	1702.82645
710.682	1693.74667
711.116	1641.75465
711.549	1577.86799
711.983	1569.48733
712.416	1634.64641
712.85	1623.7946
713.283	1629.61847
713.716	1557.72824
714.149	1553.47708
714.582	1517.34697
715.015	1508.63576
715.448	1538.77229
715.881	1508.18957
716.313	1540.49566
716.746	1548.55199
717.178	1551.61091
717.61	1617.89556
718.043	1480.62825
718.475	1499.58934
718.907	1528.72086
719.339	1491.35053
719.77	1519.56492
720.202	1485.68378
720.634	1478.60856
721.065	1476.45912
721.497	1474.59075
721.928	1493.6033
722.359	1487.58873
722.79	1447.48457
723.221	1474.63631
723.652	1507.76074
724.083	1447.27667
724.514	1445.34379
724.945	1418.37598
725.375	1427.38405
725.806	1437.56657
726.236	1410.66412
726.666	1416.39442
727.096	1437.54042
727.526	1435.73049
727.956	1452.33493
728.386	1484.59898
728.816	1411.67568
729.246	1475.62
729.675	1346.42361
730.105	1409.5048
730.534	1389.3252
730.964	1390.5488
731.393	1423.52462
731.822	1423.67901
732.251	1426.65669
732.68	1402.31346
733.109	1446.57943
733.537	1440.5464
733.966	1419.59376
734.395	1419.33208
734.823	1391.16158
735.251	1426.4619
735.68	1425.54634
736.108	1352.50604
736.536	1375.32032
736.964	1419.33464
737.392	1416.58374
737.82	1386.39248
738.247	1389.38948
738.675	1416.37132
739.102	1332.47494
739.53	1416.69489
739.957	1410.7092
740.384	1338.36279
740.811	1305.4276
741.238	1395.50013
741.665	1395.36187
742.092	1270.14391
742.519	1338.47145
742.945	1400.47662
743.372	1408.55882
743.798	1288.50139
744.225	1323.291
744.651	1318.46331
745.077	1284.41015
745.503	1332.36308
745.929	1396.45807
746.355	1336.39091
746.781	1287.36341
747.207	1267.24555
747.632	1297.42216
748.058	1312.48806
748.483	1288.16744
748.908	1226.33354
749.334	1310.41118
749.759	1341.34186
750.184	1238.25332
750.609	1205.24986
751.033	1258.17047
751.458	1215.99817
751.883	1246.31466
752.307	1185.11263
752.732	1270.48033
753.156	1210.27086
753.58	1158.07755
754.005	1150.24129
754.429	1199.15522
754.853	1213.31485
755.277	1167.11671
755.7	1157.22364
756.124	1076.11357
756.548	1109.02132
756.971	1162.18053
757.394	1069.17396
757.818	1092.24036
758.241	1093.19975
758.664	1079.15864
759.087	1054.84338
759.51	1085.0989
759.933	1058.01787
760.356	1071.21049
760.778	1062.05967
761.201	1008.93485
761.623	1013.903
762.046	934.74789
762.468	1029.94163
762.89	979.9138
763.312	1021.99225
763.734	988.90549
764.156	920.85554
764.578	950.71676
765	952.87366
765.421	893.89029
765.843	892.94189
766.264	880.69448
766.686	796.65439
767.107	833.6726
767.528	914.94191
767.949	856.8068
768.37	878.79827
768.791	810.60955
769.212	833.75784
769.632	803.56192
770.053	761.69681
770.473	750.52064
770.894	745.54727
771.314	782.53147
771.734	746.45536
772.154	683.5027
772.575	718.38872
772.994	683.30547
773.414	717.43809
773.834	672.43981
774.254	695.44652
774.673	693.45258
775.093	670.44046
775.512	636.36318
775.931	627.38803
776.351	649.40393
776.77	613.31241
777.189	633.29569
777.607	615.37387
778.026	584.27634
778.445	595.3286
778.864	526.18279
779.282	534.11766
779.701	530.17865
780.119	552.23932
780.537	513.13395
780.955	540.20688
781.373	502.10243
781.791	500.00295
782.209	464.9268
782.627	498.17899
783.045	484.97168
783.462	497.13505
783.88	471.10014
784.297	471.06347
784.715	456.06317
785.132	423.91755
785.549	419.94907
785.966	386.88766
786.383	395.89036
786.8	435.90373
787.217	460.9861
787.633	363.84128
788.05	383.80458
788.466	398.83406
788.883	415.97354
789.299	313.6839
789.715	359.80229
790.131	339.77602
790.547	355.811
790.963	376.8498
791.379	373.86411
791.795	270.56258
792.21	317.67475
792.626	304.65791
793.041	297.67716
793.457	333.75064
793.872	310.66286
794.287	318.71141
794.702	248.56031
795.117	268.62447
795.532	307.7194
795.947	245.54076
796.362	275.59325
796.776	258.54762
797.191	266.60759
797.605	247.54837
798.02	269.60713
798.434	281.57469
798.848	273.63524
799.262	241.5599
799.676	229.52298
800.09	272.62104
800.504	232.52331
800.918	206.44202
801.331	187.4531
801.745	183.39258
802.158	173.40574
802.572	238.5386
802.985	222.49646
803.398	205.45684
803.811	144.34504
804.224	235.53884
804.637	190.42823
805.05	150.32603
805.462	188.43255
805.875	141.35087
806.288	131.30364
806.7	137.32458
807.112	170.36745
807.525	117.27108
807.937	168.39471
808.349	190.44535
808.761	168.39302
809.173	160.36916
809.584	130.30424
809.996	111.25962
810.408	165.41014
810.819	71.16104
811.231	162.414
811.642	175.41252
812.053	170.39317
812.464	104.23546
812.875	139.34098
813.286	125.31117
813.697	98.21273
814.108	96.22344
814.519	157.33288
814.929	100.2439
815.34	100.22944
815.75	136.33294
816.16	142.33154
816.571	86.21436
816.981	62.139
817.391	83.19025
817.801	89.21338
818.211	112.25367
818.62	77.17925
819.03	113.26347
819.44	55.13647
819.849	88.21046
820.259	88.21391
820.668	88.20877
821.077	97.23345
821.486	69.15746
821.895	100.23247
822.304	62.15862
822.713	95.21355
823.122	46.11077
823.531	39.08788
823.939	125.29134
824.348	73.16927
824.756	55.13217
825.164	55.13287
825.573	88.21215
825.981	69.16354
826.389	47.11389
826.797	101.24694
827.205	96.21194
827.612	86.20214
828.02	32.07221
828.428	69.16908
828.835	68.17427
829.243	60.13634
829.65	71.17139
830.057	84.19412
830.464	53.12625
830.871	122.27879
831.278	50.11661
831.685	82.17352
832.092	26.06099
832.499	98.20474
832.905	13.03177
833.312	31.06676
833.718	71.17146
834.124	94.20518
834.531	24.05806
834.937	59.14671
835.343	8.01857
835.749	53.11699
836.155	38.09654
836.561	61.14463
836.966	29.06831
837.372	40.09796
837.777	55.13267
838.183	61.12889
838.588	51.12307
838.993	49.11506
839.399	58.13723
839.804	34.08035
840.209	79.19587
840.613	14.03003
841.018	19.04644
841.423	33.08215
841.828	69.16889
842.232	32.07521
842.637	114.25852
843.041	20.0501
843.445	31.07466
843.849	15.03622
844.253	40.09126
844.657	18.04434
845.061	49.10884
845.465	56.13019
845.869	68.15119
846.272	27.06402
846.676	10.02301
847.079	51.12636
847.483	76.18128
847.886	50.11587
848.289	31.08154
848.692	31.07546
849.095	31.07154
849.498	58.1393
849.901	22.04822
850.304	86.1959
850.707	42.10309
851.109	27.06577
851.512	70.16562
851.914	43.1056
852.316	95.23279
852.718	72.18401
853.121	36.08528
853.523	54.12017
853.925	22.05642
854.326	34.08287
854.728	74.18378
855.13	17.0431
855.531	34.07864
855.933	28.06419
856.334	67.16204
856.736	22.04804
857.137	80.17935
857.538	52.12711
857.939	66.15917
858.34	42.09749
858.741	35.08833
859.142	55.12612
859.542	31.08002
859.943	38.09112
860.343	38.09161
860.744	30.07068
861.144	76.17933
861.544	32.07542
861.945	23.05676
862.345	24.05645
862.745	33.07993
863.145	28.06324
863.544	58.14167
863.944	75.16921
864.344	29.06865
864.743	61.14514
865.143	110.27249
865.542	-12.02666
865.941	26.06254
866.34	43.09769
866.74	44.11462
867.139	33.0774
867.537	26.06342
867.936	68.15758
868.335	13.03203
868.734	12.02987
869.132	6.01331
869.531	27.06221
869.929	30.0662
870.327	30.06938
870.726	51.12102
871.124	42.09346
871.522	18.04431
871.92	35.08334
872.318	40.09347
872.715	56.13106
873.113	7.01644
873.511	4.00964
873.908	16.03991
874.306	40.09691
874.703	43.10262
875.1	-1.00245
875.497	65.14857
875.894	92.21961
876.291	78.18362
876.688	17.04264
877.085	51.11657
877.482	5.01215
877.878	85.19827
878.275	103.25061
878.671	6.01246
879.068	52.12046
879.464	41.09533
879.86	15.03429
880.256	-25.05916
880.652	49.12011
881.048	14.03321
881.444	-17.03873
881.84	38.09313
882.236	49.11851
882.631	98.23061
883.027	54.12489
883.422	19.04678
883.817	9.02215
884.213	-8.02002
884.608	60.1447
885.003	8.01851
885.398	21.05096
885.793	26.06282
886.188	-1.00241
886.582	55.13447
886.977	53.11968
887.371	23.05588
887.766	24.05814
888.16	22.05213
888.554	68.15983
888.949	73.17555
889.343	82.1901
889.737	9.02361
890.131	-13.03178
890.525	53.1316
890.918	6.01465
891.312	46.10448
891.706	10.02545
892.099	45.11002
892.492	66.13428
892.886	10.02363
893.279	1.00247
893.672	29.07198
894.065	49.11829
894.458	8.01931
894.851	42.09826
895.244	-1.00248
895.637	109.25014
896.029	49.116
896.422	21.04891
896.814	5.01202
897.206	39.09072
897.599	68.16089
897.991	29.06812
898.383	39.08882
898.775	67.14609
899.167	43.09789
899.559	45.10871
899.951	5.01129
900.342	31.0754
900.734	33.08113
901.125	28.07065
901.517	46.10888
901.908	48.10863
902.299	16.03799
902.69	81.18402
903.082	48.11168
903.473	64.14931
903.863	29.07111
904.254	55.12384
904.645	8.01902
905.036	64.15178
905.426	88.18793
905.817	23.05411
906.207	-24.055
906.597	63.14249
906.987	21.05228
907.378	72.17574
907.768	26.06694
908.158	37.08664
908.547	30.07619
908.937	5.0123
909.327	30.07005
909.717	7.01694
910.106	8.0185
910.495	49.11618
910.885	45.11019
911.274	9.02177
911.663	24.05834
912.052	44.1031
912.441	49.12109
912.83	55.11967
913.219	59.1481
913.608	25.05939
913.997	15.03682
914.385	76.17326
914.774	49.1143
915.162	52.12036
915.55	15.03477
915.939	-12.02976
916.327	13.03114
916.715	48.1199
917.103	28.06522
917.491	36.08547
917.878	19.04502
918.266	22.05504
918.654	44.10939
919.041	30.07694
919.429	46.1041
919.816	42.10248
920.203	80.18723
920.591	45.10764
920.978	49.11524
921.365	60.15237
921.752	-8.01819
922.139	81.16656
922.525	23.05354
922.912	59.1373
923.299	41.09834
923.685	-18.0454
924.072	-28.06109
924.458	45.10785
924.844	10.02399
925.231	-24.05374
925.617	29.07219
926.003	25.0616
926.389	17.0415
926.774	3.00735
927.16	80.18943
927.546	31.07787
927.931	35.0836
928.317	48.10491
928.702	39.0881
929.088	69.15974
929.473	94.23055
929.858	11.02625
930.243	60.13954
930.628	92.21573
931.013	17.04084
931.398	27.05852
931.783	19.04797
932.167	68.16101
932.552	27.0651
932.937	37.08786
933.321	39.09525
933.705	-15.03637
934.09	47.11174
934.474	26.05879
934.858	-28.07121
935.242	-12.02686
935.626	43.10681
936.009	59.15308
936.393	73.18087
936.777	35.08719
937.16	46.11657
937.544	31.06894
937.927	22.05438
938.311	59.13686
938.694	62.15851
939.077	30.06914
939.46	18.04166
939.843	10.01947
940.226	19.04694
940.609	67.14863
940.991	37.09026
941.374	59.13924
941.757	5.0119
942.139	46.09926
942.522	34.07663
942.904	41.09473
943.286	42.10244
943.668	75.18867
944.05	26.06187
944.432	34.08048
944.814	6.01415
945.196	33.07821
945.578	30.06996
945.959	45.09987
946.341	2.00466
946.722	19.04268
947.104	15.03463
947.485	54.12022
947.866	67.16345
948.247	24.05919
948.628	-11.0255
949.009	11.02733
949.39	51.12106
949.771	54.11687
950.152	29.06873
950.532	50.12186
950.913	47.10855
951.293	59.15545
951.674	7.01638
952.054	78.18868
952.434	9.02168
952.814	8.01815
953.194	-31.07824
953.574	42.09891
953.954	30.0677
954.334	71.1712
954.714	32.07557
955.093	58.13659
955.473	62.1506
955.853	-17.04296
956.232	37.09818
956.611	22.05009
956.99	57.13827
957.37	-2.00492
957.749	4.00906
958.128	34.08324
958.506	2.00506
958.885	19.04619
959.264	48.11467
959.643	49.10739
960.021	55.13192
960.4	65.13999
960.778	37.08624
961.156	13.03141
961.535	19.04213
961.913	68.1527
962.291	45.11292
962.669	50.12263
963.047	21.0522
963.424	86.21311
963.802	27.06422
964.18	61.14542
964.557	84.18242
964.935	84.18894
965.312	10.02546
965.69	26.06218
966.067	13.03019
966.444	26.06049
966.821	31.07737
967.198	39.08968
967.575	34.07982
967.952	29.06543
968.329	47.11058
968.705	105.21328
969.082	51.12793
969.458	46.10757
969.835	27.0633
970.211	26.06532
970.587	36.08656
970.963	37.0907
971.339	34.08634
971.715	47.11311
972.091	43.10164
972.467	15.03559
972.843	57.13755
973.219	44.10014
973.594	9.02288
973.97	-23.05164
974.345	-8.01866
974.721	34.07782
975.096	67.1564
975.471	68.15308
975.846	48.1096
976.221	42.10297
976.596	70.16325
976.971	81.19242
977.346	22.04877
977.72	43.10494
978.095	19.04752
978.469	21.04802
978.844	21.05066
979.218	45.1053
979.593	59.13437
979.967	3.00693
980.341	19.04231
980.715	79.19092
981.089	18.04351
981.463	44.09665
981.837	69.16341
982.21	52.11211
982.584	28.06545
982.957	44.10648
983.331	61.13532
983.704	67.15972
984.078	42.0993
984.451	21.0495
984.824	30.0709
985.197	6.01385
985.57	-30.07211
985.943	46.10685
986.316	42.09729
986.688	48.11066
987.061	102.22717
987.434	68.17275
987.806	-1.00231
988.179	40.09005
988.551	68.16443
988.923	7.01657
989.295	49.11685
989.667	72.16692
990.039	65.15667
990.411	3.00654
990.783	36.07815
991.155	26.06049
991.527	22.0511
991.898	81.19383
992.27	44.10579
992.641	19.04571
993.012	-6.01326
993.384	42.09548
993.755	26.06448
994.126	25.05847
994.497	-9.02145
994.868	3.00656
995.239	61.14083
995.61	44.10668
995.98	8.01874
996.351	73.17422
996.722	34.07663
997.092	-6.01384
997.462	41.09307
997.833	36.08101
998.203	24.05509
998.573	8.01937
998.943	68.15289
999.313	66.15204
999.683	41.09481
1000.053	2.00432
1000.423	16.03718
1000.792	31.07667
1001.162	19.04477
1001.531	87.20477
1001.901	-2.00481
1002.27	-3.00631
1002.639	10.02454
1003.009	44.09994
1003.378	37.09144
1003.747	30.06753
1004.116	10.02304
1004.485	27.06199
1004.853	8.01933
1005.222	-37.08928
1005.591	50.11306
1005.959	64.13786
1006.328	86.18398
1006.696	20.04624
1007.064	-17.04115
1007.433	41.09763
1007.801	-8.01867
1008.169	12.02897
1008.537	46.09687
1008.905	43.09666
1009.273	27.06367
1009.64	17.03965
1010.008	18.0412
1010.375	38.08677
1010.743	26.05557
1011.11	101.23122
1011.478	58.13861
1011.845	26.05831
1012.212	50.10937
1012.579	45.10624
1012.946	0
1013.313	50.1126
1013.68	44.09368
1014.047	-1.0023
1014.414	4.0091
1014.78	67.16002
1015.147	39.08921
1015.513	38.08785
1015.88	38.09282
1016.246	44.10273
1016.612	80.17173
1016.978	66.15567
1017.344	18.04303
1017.71	35.08132
1018.076	43.09583
1018.442	69.17077
1018.808	78.18818
1019.174	-9.02177
1019.539	4.00845
1019.905	19.04338
1020.27	18.04275
1020.636	-23.0527
1021.001	57.13086
1021.366	72.16566
1021.731	83.20722
1022.096	-8.01981
1022.461	69.156
1022.826	57.13055
1023.191	22.05593
1023.556	-2.00449
1023.92	-30.07101
1024.285	27.06261
1024.649	4.00941
1025.014	32.07524
1025.378	38.09261
1025.742	28.0663
1026.107	55.11784
1026.471	78.17141
1026.835	27.06446
1027.199	-1.00233
1027.562	21.04629
1027.926	-5.01175
1028.29	35.08541
1028.654	51.11125
1029.017	57.13452
1029.381	16.03696
1029.744	6.01484
1030.107	112.24985
1030.471	41.09466
1030.834	-18.03886
1031.197	57.13091
1031.56	48.10752
1031.923	27.0676
1032.286	29.06527
1032.648	14.03172
1033.011	97.21375
1033.374	-18.04044
1033.736	-32.08238
1034.099	57.13301
1034.461	4.00988
1034.823	3.00727
1035.185	-34.08259
1035.548	72.16798
1035.91	36.08247
1036.272	47.10266
1036.634	88.20442
1036.995	29.06476
1037.357	-12.02847
1037.719	76.1764
1038.08	86.19558
1038.442	34.0772
1038.803	-3.00683
1039.165	28.06773
1039.526	32.07433
1039.887	11.02532
1040.248	71.17023
1040.609	-6.01419
1040.97	7.01646
1041.331	25.06156
1041.692	79.17868
1042.053	9.01954
1042.413	6.01336
1042.774	34.0796
1043.134	-3.00679
1043.495	48.11576
1043.855	37.08719
1044.215	-20.04791
1044.576	17.03945
1044.936	43.0934
1045.296	57.13614
1045.656	-20.04706
1046.016	31.07134
1046.375	2.00469
1046.735	65.14287
1047.095	40.0896
1047.454	28.05569
1047.814	40.09226
1048.173	53.11889
1048.533	37.08099
1048.892	3.00699
1049.251	5.01204
1049.61	19.04515
1049.969	21.04736
1050.328	85.17345
1050.687	-24.05628
1051.046	2.00468
1051.405	4.00952
1051.763	59.13077
1052.122	12.02885
1052.48	35.08273
1052.839	70.15958
1053.197	30.06759
1053.555	-20.04297
1053.914	18.04224
1054.272	-13.0297
1054.63	1.00237
1054.988	22.05078
1055.345	-12.02444
1055.703	45.10389
1056.061	66.16487
1056.419	51.12926
1056.776	-22.05078
1057.134	-59.13056
1057.491	14.03388
1057.848	24.05716
1058.206	9.02001
1058.563	40.08364
1058.92	23.05051
1059.277	27.06407
1059.634	12.02671
1059.991	65.14881
1060.348	68.14648
1060.704	67.15604
1061.061	31.06742
1061.418	-3.00705
1061.774	33.07834
1062.131	42.10899
1062.487	3.00671
1062.843	28.06714
1063.199	23.05517
1063.555	60.13374
1063.911	11.02666
1064.267	38.07375
1064.623	41.09673
1064.979	-41.09069
1065.335	46.10402
1065.691	26.05882
1066.046	-5.01053
1066.402	39.08388
1066.757	83.19998
1067.112	38.089
1067.468	41.09409
1067.823	8.01811
1068.178	13.03005
1068.533	37.08597
1068.888	48.1089
1069.243	30.07123
1069.598	12.02789
1069.952	38.08372
1070.307	63.15001
1070.662	75.17177
1071.016	77.16597
1071.371	65.14125
1071.725	5.01141
1072.079	27.06253
1072.434	58.13526
1072.788	-14.03176
1073.142	33.07809
1073.496	-28.06424
1073.85	38.08396
1074.203	32.07463
1074.557	49.12736
1074.911	53.11968
1075.265	53.11723
1075.618	63.14701
1075.971	-2.00458
1076.325	15.03718
1076.678	-6.01324
1077.031	-25.05342
1077.385	24.05021
1077.738	48.10277
1078.091	28.06158
1078.444	21.04608
1078.796	43.10192
1079.149	73.17369
1079.502	10.02294
1079.855	-13.02934
1080.207	27.0637
1080.56	28.0704
1080.912	19.04441
1081.264	35.08122
1081.617	31.07291
1081.969	31.07588
1082.321	18.04214
1082.673	59.13039
1083.025	-8.0182
1083.377	37.0831
1083.728	9.02006
1084.08	-5.012
1084.432	55.12607
1084.783	-55.12277
1085.135	23.05588
1085.486	43.09456
1085.838	30.07134
1086.189	52.12194
1086.54	37.08416
1086.891	83.20459
1087.242	79.18666
1087.593	23.05291
1087.944	22.04818
1088.295	54.11627
1088.646	98.22998
1088.996	40.09303
1089.347	-6.01415
1089.698	12.02765
1090.048	0
1090.398	10.02211
1090.749	39.08839
1091.099	81.19716
1091.449	12.02901
1091.799	29.06987
1092.149	8.01915
1092.499	31.07268
1092.849	37.09073
1093.199	24.05738
1093.548	47.10941
1093.898	11.02646
1094.248	-1.00246
1094.597	5.01255
1094.947	36.0931
1095.296	61.14497
1095.645	14.03509
1095.994	30.06914
1096.343	17.04149
1096.692	25.06473
1097.041	38.10135
1097.39	-3.00724
1097.739	38.09516
1098.088	27.0695
1098.437	-8.0208
1098.785	-5.01302
1099.134	0
1099.482	17.04566
1099.83	51.12917
1100.179	42.1079
1100.527	-46.11835
1100.875	7.01814
1101.223	21.05449
1101.571	-26.07012
1101.919	56.14437
1102.267	51.14056
1102.615	-2.00643
1102.962	9.02884
1103.31	7.02247
1103.658	-8.02567
