Data from N3 R1 sample 10_Subt2__2__15-10-38-074.txt Node

Date: Wed Sep 17 15:10:38 PDT 2025
User: uwsun
Spectrometer: HDX01956
Trigger mode: 0
Integration Time (sec): 5.000000E-1
Scans to average: 1
Nonlinearity correction enabled: true
Boxcar width: 0
Storing dark spectrum: false
XAxis mode: Wavelengths
Number of Pixels in Spectrum: 2068
>>>>>Begin Spectral Data<<<<<
194.03	31.08959
194.578	32.10366
195.127	28.08947
195.676	39.1249
196.225	36.09557
196.773	52.14416
197.321	80.22122
197.87	138.35305
198.418	162.41575
198.966	176.4608
199.513	101.25871
200.061	125.31861
200.609	124.32786
201.156	150.32825
201.704	102.25857
202.251	149.39534
202.798	114.29675
203.345	164.4049
203.892	151.38121
204.438	152.36004
204.985	134.31925
205.532	114.30101
206.078	100.24617
206.624	195.48541
207.17	178.41543
207.716	128.31533
208.262	120.23991
208.808	160.4014
209.354	157.38798
209.899	129.32544
210.445	149.3728
210.99	163.39703
211.535	164.38576
212.08	126.29384
212.625	145.362
213.17	176.44614
213.715	158.36091
214.259	183.42466
214.804	113.27843
215.348	184.42284
215.892	177.42758
216.436	128.29298
216.98	152.33304
217.524	168.40025
218.068	161.405
218.612	189.47679
219.155	171.40215
219.698	146.3469
220.242	101.25051
220.785	175.40835
221.328	95.23615
221.871	176.44503
222.414	123.30419
222.956	88.21191
223.499	109.24381
224.041	72.16613
224.583	105.22214
225.126	152.33136
225.668	142.34349
226.21	159.39983
226.751	154.34127
227.293	86.19574
227.835	112.2749
228.376	139.31451
228.918	115.28607
229.459	134.33327
230	134.32108
230.541	128.29368
231.082	121.29451
231.622	70.15971
232.163	112.27011
232.704	127.31741
233.244	126.31189
233.784	115.27834
234.324	151.33817
234.864	111.25095
235.404	81.19176
235.944	86.20348
236.484	167.41269
237.023	109.25704
237.563	168.38684
238.102	176.41125
238.641	105.26395
239.18	103.24252
239.719	151.37521
240.258	156.34757
240.797	133.31668
241.335	124.30063
241.874	147.28523
242.412	170.4092
242.95	164.39311
243.488	82.18527
244.026	117.27248
244.564	173.35221
245.102	190.4249
245.64	145.3438
246.177	133.2943
246.715	200.47282
247.252	75.17149
247.789	174.31852
248.326	88.21335
248.863	186.4041
249.4	153.34435
249.936	224.45968
250.473	167.39152
251.009	131.29906
251.546	178.39346
252.082	152.32573
252.618	151.33581
253.154	152.36352
253.69	126.28213
254.226	152.36171
254.761	138.30862
255.297	101.22144
255.832	142.33636
256.367	151.35249
256.903	177.38954
257.438	180.41663
257.972	141.31266
258.507	158.35946
259.042	151.32659
259.576	162.3563
260.111	146.33323
260.645	166.35527
261.179	156.36308
261.713	164.36434
262.247	132.30043
262.781	138.29036
263.315	144.34715
263.849	181.44794
264.382	170.38644
264.915	147.34638
265.449	122.29756
265.982	181.40619
266.515	198.47858
267.048	147.31032
267.58	179.38119
268.113	173.37033
268.646	147.35739
269.178	158.35042
269.71	203.44225
270.243	208.47435
270.775	200.50607
271.307	105.25001
271.838	192.44669
272.37	162.39349
272.902	146.32893
273.433	192.42033
273.965	158.38089
274.496	160.39314
275.027	184.45278
275.558	194.46732
276.089	161.39947
276.62	144.36087
277.15	150.36639
277.681	140.30015
278.211	181.43592
278.741	167.36815
279.272	149.3396
279.802	143.3539
280.332	171.40027
280.861	159.37713
281.391	153.3459
281.921	151.35857
282.45	149.36713
282.98	187.48132
283.509	235.52368
284.038	185.41875
284.567	181.41719
285.096	166.39973
285.625	101.22834
286.153	205.48304
286.682	185.42063
287.21	116.27636
287.739	133.31376
288.267	200.48049
288.795	167.43224
289.323	174.40529
289.851	199.46215
290.378	168.37136
290.906	166.40351
291.433	180.44408
291.961	188.42511
292.488	155.38205
293.015	190.44378
293.542	202.51277
294.069	181.44449
294.596	184.44441
295.122	201.47601
295.649	154.33543
296.175	186.44245
296.702	202.48769
297.228	179.42653
297.754	212.4696
298.28	195.4439
298.806	182.43443
299.332	172.38274
299.857	197.44264
300.383	180.44815
300.908	188.45783
301.433	220.53095
301.958	223.50229
302.483	132.32686
303.008	236.57622
303.533	161.41253
304.058	154.35744
304.582	217.50495
305.107	155.40132
305.631	223.49694
306.155	193.44503
306.679	199.46288
307.203	198.45465
307.727	214.49983
308.251	175.42864
308.775	279.66172
309.298	194.46307
309.822	189.46979
310.345	264.6166
310.868	269.63333
311.391	248.59828
311.914	202.50018
312.437	243.54487
312.96	209.48633
313.482	193.44893
314.005	202.4978
314.527	220.5628
315.049	248.61541
315.571	223.49509
316.093	216.52759
316.615	201.47674
317.137	272.57834
317.659	280.66063
318.18	201.47343
318.702	291.66348
319.223	183.37104
319.744	281.61658
320.265	244.58396
320.786	284.6921
321.307	227.55208
321.828	262.5784
322.348	232.53761
322.869	263.61366
323.389	264.50748
323.909	286.63613
324.43	272.63453
324.95	290.64637
325.47	301.72598
325.989	319.73317
326.509	304.66185
327.029	284.63326
327.548	318.69791
328.067	326.76616
328.587	319.77606
329.106	249.55097
329.625	331.83313
330.144	315.71094
330.662	324.73736
331.181	363.8236
331.7	247.56431
332.218	355.74083
332.736	347.78347
333.255	347.78858
333.773	295.67857
334.291	342.82687
334.808	346.75263
335.326	306.66846
335.844	356.80755
336.361	429.04987
336.879	386.87097
337.396	407.94695
337.913	404.89109
338.43	373.80774
338.947	407.92827
339.464	378.782
339.981	363.82861
340.497	412.96594
341.014	391.91296
341.53	402.86551
342.046	434.02961
342.562	405.96454
343.078	478.05668
343.594	433.97759
344.11	465.0499
344.626	441.05568
345.141	451.97619
345.657	489.03619
346.172	446.01859
346.687	425.92739
347.202	526.11789
347.717	461.03704
348.232	456.07358
348.747	514.10751
349.261	509.04244
349.776	543.19886
350.29	515.20684
350.805	561.28348
351.319	487.06158
351.833	550.17304
352.347	510.12566
352.861	562.2194
353.374	531.12093
353.888	547.24289
354.401	506.07531
354.915	556.16225
355.428	578.33115
355.941	589.25987
356.454	536.10502
356.967	542.17194
357.48	523.10257
357.993	587.32958
358.505	523.1854
359.018	646.44112
359.53	633.41122
360.042	611.24947
360.554	644.43665
361.066	530.20056
361.578	648.29621
362.09	653.40959
362.602	639.29324
363.113	652.39331
363.625	651.3392
364.136	654.29676
364.647	639.37992
365.158	716.48995
365.669	649.40752
366.18	669.42258
366.691	712.38893
367.201	674.45962
367.712	665.37602
368.222	702.44977
368.733	672.31388
369.243	725.44345
369.753	735.50681
370.263	770.64856
370.773	698.52771
371.282	768.62518
371.792	819.65881
372.301	774.65357
372.811	803.8669
373.32	885.6377
373.829	814.67908
374.338	851.63267
374.847	925.81918
375.356	926.86253
375.865	919.66864
376.373	958.83873
376.882	1028.19006
377.39	1000.02836
377.898	1028.11548
378.407	1097.03054
378.915	1195.06727
379.423	1146.15252
379.93	1321.37661
380.438	1243.36883
380.946	1321.37782
381.453	1356.51224
381.96	1425.58009
382.468	1522.63689
382.975	1615.87877
383.482	1715.64608
383.989	1711.16604
384.495	1799.86565
385.002	1854.51595
385.509	1956.07204
386.015	2148.55317
386.521	2169.9894
387.028	2331.04432
387.534	2299.76456
388.04	2477.38032
388.546	2486.94904
389.051	2615.95294
389.557	2826.22305
390.063	3020.07884
390.568	3163.42892
391.073	3200.95394
391.578	3399.49235
392.084	3525.00917
392.589	3560.69572
393.093	3820.22336
393.598	4214.7754
394.103	4557.83175
394.607	5036.65018
395.112	5335.64025
395.616	5764.33119
396.12	6325.72988
396.624	6918.84794
397.128	7545.09337
397.632	8350.58456
398.136	9130.70027
398.639	9548.59889
399.143	10606.58518
399.646	12024.09241
400.15	13336.66941
400.653	14766.82437
401.156	16525.25212
401.659	19161.48614
402.162	23483.52191
402.664	31058.97344
403.167	43087.83346
403.67	60997.94349
404.172	63919.58413
404.674	63858.43483
405.176	63738.15102
405.678	63977.72923
406.18	64011.81569
406.682	63863.44694
407.184	63926.60148
407.686	63841.39382
408.187	64025.8516
408.688	63892.51763
409.19	57201.04025
409.691	45387.64712
410.192	38179.20358
410.693	33020.36557
411.194	30143.66109
411.694	28515.26403
412.195	26494.46794
412.696	23720.60393
413.196	21850.53016
413.696	21194.51139
414.196	21518.42985
414.696	20981.52516
415.196	20020.53968
415.696	18112.7187
416.196	14808.83468
416.695	11650.18877
417.195	9714.99906
417.694	9348.1395
418.194	8727.8796
418.693	8253.38643
419.192	7815.12816
419.691	7739.02066
420.19	7582.09339
420.688	7253.10599
421.187	6924.15222
421.685	6578.77892
422.184	5953.04907
422.682	5215.86989
423.18	4355.69402
423.678	3901.86886
424.176	3617.96573
424.674	3441.86442
425.172	3248.2328
425.669	3117.50764
426.167	2881.18317
426.664	2652.04665
427.161	2428.06725
427.659	2208.24141
428.156	2220.66663
428.652	1956.26049
429.149	1925.06809
429.646	1818.65303
430.143	1736.86311
430.639	1656.74793
431.135	1593.88564
431.632	1466.44234
432.128	1382.50508
432.624	1399.7641
433.12	1313.27121
433.616	1327.17631
434.111	1169.20066
434.607	1127.16275
435.103	1065.7708
435.598	1088.78396
436.093	1054.99131
436.588	983.81581
437.083	921.71801
437.578	933.80227
438.073	851.83031
438.568	854.80022
439.062	824.49238
439.557	781.57672
440.051	738.43973
440.546	741.46167
441.04	769.60354
441.534	683.52781
442.028	687.4628
442.522	635.36133
443.015	618.1756
443.509	630.37062
444.002	610.3411
444.496	560.093
444.989	580.27079
445.482	575.28864
445.975	613.26659
446.468	627.2023
446.961	626.20472
447.454	564.13887
447.947	544.17978
448.439	600.32406
448.931	634.29277
449.424	596.36938
449.916	558.23434
450.408	571.17493
450.9	547.2062
451.392	554.27937
451.884	495.04024
452.375	423.97718
452.867	478.9862
453.358	482.0122
453.849	491.95821
454.341	530.08431
454.832	496.97693
455.323	522.18768
455.814	443.93758
456.304	466.99336
456.795	414.88023
457.285	446.90572
457.776	500.03853
458.266	446.98
458.756	375.83181
459.247	408.91082
459.737	493.09284
460.226	462.96987
460.716	402.8978
461.206	386.86528
461.695	372.86469
462.185	377.84007
462.674	399.85074
463.163	421.87621
463.653	393.77933
464.142	385.87456
464.63	406.91758
465.119	375.81761
465.608	381.83632
466.096	325.66678
466.585	367.78626
467.073	286.64405
467.561	351.79347
468.05	346.75039
468.538	300.69792
469.026	304.68542
469.513	311.62134
470.001	310.67605
470.489	251.57368
470.976	390.85121
471.463	315.74478
471.951	308.72753
472.438	295.65955
472.925	302.67618
473.412	293.6772
473.899	300.65397
474.385	228.5388
474.872	296.65674
475.359	269.63358
475.845	226.45141
476.331	215.4425
476.817	255.5957
477.303	268.5961
477.789	225.51715
478.275	285.67517
478.761	200.46052
479.247	211.45538
479.732	239.57451
480.218	233.58945
480.703	231.54874
481.188	268.55444
481.673	213.47388
482.158	249.51663
482.643	241.59313
483.128	232.52181
483.612	286.65037
484.097	208.48563
484.581	185.41653
485.066	245.57751
485.55	175.37769
486.034	179.3782
486.518	228.52709
487.002	129.30834
487.486	168.39794
487.969	168.3984
488.453	111.27239
488.936	167.36722
489.42	151.32743
489.903	117.2868
490.386	71.14646
490.869	212.44959
491.352	123.2913
491.835	151.30266
492.318	154.33885
492.8	134.27312
493.283	154.38482
493.765	123.29692
494.247	197.445
494.73	153.33177
495.212	121.28246
495.694	123.28577
496.175	157.36937
496.657	194.44617
497.139	154.25833
497.62	164.38561
498.102	121.29682
498.583	90.21886
499.064	128.28105
499.545	130.29157
500.026	168.37136
500.507	104.2368
500.988	166.40547
501.469	97.2391
501.949	141.34165
502.43	144.3407
502.91	175.36229
503.39	121.29539
503.87	119.27757
504.35	108.24958
504.83	120.25882
505.31	57.13703
505.79	88.20627
506.269	111.25156
506.749	83.18841
507.228	128.29674
507.707	118.25997
508.187	171.39901
508.666	130.31707
509.145	81.18827
509.623	105.24318
510.102	123.29321
510.581	153.36178
511.059	104.25894
511.538	72.18453
512.016	166.38895
512.494	120.28436
512.972	87.20684
513.45	95.21976
513.928	86.20764
514.406	130.31399
514.884	100.2553
515.361	142.33389
515.839	152.34343
516.316	134.32059
516.793	116.28903
517.27	100.23815
517.747	146.36799
518.224	153.34548
518.701	94.20614
519.178	121.2988
519.654	113.26441
520.131	98.24054
520.607	76.18467
521.083	39.08864
521.56	78.1829
522.036	160.3408
522.512	119.29008
522.987	116.27615
523.463	111.26013
523.939	139.33946
524.414	106.24008
524.89	135.31712
525.365	89.19973
525.84	93.22187
526.315	94.22593
526.79	115.25638
527.265	130.29612
527.74	57.13817
528.215	53.12363
528.689	49.10761
529.164	79.16867
529.638	60.15167
530.112	49.11533
530.587	69.14745
531.061	88.21159
531.534	78.18704
532.008	107.25761
532.482	87.19877
532.956	100.25269
533.429	158.37916
533.903	72.15736
534.376	59.13045
534.849	85.19428
535.322	56.13209
535.795	45.10879
536.268	108.25879
536.741	107.25135
537.213	86.19653
537.686	63.15386
538.158	130.29157
538.631	79.19042
539.103	71.16006
539.575	63.12972
540.047	97.20989
540.519	107.25311
540.991	77.18693
541.463	71.17023
541.934	79.1778
542.406	50.12031
542.877	87.19533
543.348	64.15435
543.82	96.23161
544.291	110.25431
544.762	101.23855
545.233	142.35432
545.703	79.17532
546.174	108.24819
546.645	60.14519
547.115	116.27711
547.585	126.28619
548.056	138.3347
548.526	102.24049
548.996	51.12218
549.466	135.32354
549.935	150.3527
550.405	127.27586
550.875	127.29809
551.344	118.27843
551.814	102.23225
552.283	103.22354
552.752	129.299
553.221	126.27549
553.69	187.41327
554.159	161.39392
554.628	168.374
555.096	107.27013
555.565	116.25438
556.033	169.39559
556.502	124.29599
556.97	125.27545
557.438	154.3556
557.906	138.32132
558.374	145.33155
558.842	155.36523
559.31	157.34567
559.777	144.34702
560.245	155.34956
560.712	135.30521
561.18	140.30585
561.647	152.33164
562.114	176.39505
562.581	160.38674
563.048	171.38391
563.514	170.41848
563.981	150.33822
564.448	187.41293
564.914	190.43068
565.381	198.44115
565.847	168.3836
566.313	178.40397
566.779	213.46561
567.245	156.35491
567.711	193.4507
568.176	140.30986
568.642	203.49796
569.108	215.51348
569.573	172.38972
570.038	198.40302
570.504	200.44024
570.969	185.44775
571.434	278.59135
571.899	212.48835
572.363	246.54445
572.828	255.56472
573.293	237.52508
573.757	261.58306
574.222	297.6352
574.686	263.58195
575.15	293.67504
575.614	338.75677
576.078	260.58742
576.542	277.60525
577.006	348.7425
577.469	299.70285
577.933	335.72329
578.396	292.66213
578.86	303.68051
579.323	289.66716
579.786	317.65302
580.249	329.73647
580.712	303.70336
581.175	300.70671
581.637	254.55816
582.1	272.56826
582.563	295.5973
583.025	301.69983
583.487	301.58963
583.95	287.58749
584.412	291.58327
584.874	326.756
585.336	269.61333
585.797	323.66627
586.259	309.68885
586.721	280.62976
587.182	322.7049
587.643	310.67061
588.105	288.6512
588.566	325.64117
589.027	362.83747
589.488	382.82245
589.949	448.00713
590.41	401.73653
590.87	393.84195
591.331	414.84112
591.791	419.90346
592.252	415.90136
592.712	380.85568
593.172	458.96105
593.632	535.07502
594.092	493.00186
594.552	505.99489
595.011	477.00146
595.471	573.16582
595.931	575.16405
596.39	602.29521
596.849	575.20335
597.308	561.06827
597.768	667.53357
598.227	676.43219
598.685	696.38402
599.144	729.49517
599.603	731.48375
600.062	735.3258
600.52	831.58581
600.978	882.75037
601.437	931.74612
601.895	968.67749
602.353	1014.78715
602.811	1088.94485
603.269	1082.06277
603.727	1197.24584
604.184	1192.09958
604.642	1266.4064
605.099	1338.34207
605.557	1401.5403
606.014	1409.17587
606.471	1428.68128
606.928	1599.44228
607.385	1611.88622
607.842	1630.57402
608.299	1767.75726
608.755	1775.90652
609.212	1817.61546
609.668	1917.72326
610.125	1893.97838
610.581	2034.95095
611.037	1998.73679
611.493	2079.95476
611.949	2172.21213
612.405	2177.42514
612.861	2196.94301
613.316	2233.15718
613.772	2240.94395
614.227	2363.23179
614.683	2257.60164
615.138	2289.07412
615.593	2299.02669
616.048	2357.97723
616.503	2387.28833
616.958	2316.42606
617.412	2359.16317
617.867	2321.86092
618.321	2364.50627
618.776	2264.7677
619.23	2352.08785
619.684	2284.82998
620.138	2274.94329
620.592	2235.21265
621.046	2269.09929
621.5	2177.14248
621.954	2156.74121
622.407	2154.74043
622.861	2159.1745
623.314	2192.85813
623.768	2113.01843
624.221	2070.24985
624.674	2040.87759
625.127	2117.94536
625.58	2122.78969
626.033	2127.67672
626.485	2045.03407
626.938	2113.05356
627.39	2042.93054
627.843	2067.87954
628.295	2095.89393
628.747	2211.10987
629.199	2167.87026
629.651	2140.88989
630.103	2250.93819
630.555	2162.53208
631.006	2223.98892
631.458	2358.10006
631.909	2326.84663
632.361	2355.99868
632.812	2506.05796
633.263	2523.73863
633.714	2573.62213
634.165	2615.26936
634.616	2694.20309
635.067	2902.81491
635.518	2862.23424
635.968	3036.2126
636.419	3184.72885
636.869	3178.21245
637.319	3331.05817
637.769	3472.82135
638.219	3569.09961
638.669	3714.10321
639.119	3818.10914
639.569	4013.04834
640.019	4134.72433
640.468	4369.39636
640.918	4491.72293
641.367	4705.19736
641.816	4771.11198
642.265	5084.27559
642.714	5126.12505
643.163	5404.03521
643.612	5484.4319
644.061	5614.43248
644.51	5715.82696
644.958	5876.51921
645.406	6143.93994
645.855	6203.0304
646.303	6377.6482
646.751	6535.63223
647.199	6651.49524
647.647	6724.63332
648.095	6891.52894
648.543	6996.01774
648.99	7028.84066
649.438	7056.62246
649.885	7048.07794
650.333	7106.91208
650.78	7073.8796
651.227	7202.9723
651.674	7027.551
652.121	7101.97655
652.568	7128.96967
653.015	7007.02006
653.461	6989.77248
653.908	6968.57142
654.354	6851.77573
654.801	6773.68629
655.247	6697.24741
655.693	6593.44206
656.139	6563.81451
656.585	6460.83938
657.031	6310.77301
657.477	6311.33081
657.922	6214.57806
658.368	5997.19379
658.813	5932.6694
659.259	5767.19764
659.704	5868.98846
660.149	5703.86006
660.594	5651.09116
661.039	5383.93798
661.484	5313.2483
661.929	5184.21987
662.373	5077.83785
662.818	5056.72696
663.262	5033.56452
663.707	5052.97007
664.151	4875.71438
664.595	4818.68651
665.039	4704.95282
665.483	4679.17591
665.927	4518.62063
666.371	4539.63531
666.814	4397.77623
667.258	4368.90566
667.701	4345.0735
668.145	4406.13359
668.588	4305.15125
669.031	4154.82802
669.474	4134.98109
669.917	4144.35026
670.36	4065.31809
670.803	4078.06229
671.245	3896.06451
671.688	3969.15874
672.13	3808.71986
672.573	3810.50252
673.015	3795.16251
673.457	3809.47086
673.899	3724.20737
674.341	3763.16308
674.783	3716.14379
675.225	3625.36596
675.666	3662.31623
676.108	3569.52734
676.549	3495.01552
676.991	3435.66432
677.432	3497.08546
677.873	3342.92756
678.314	3361.19111
678.755	3363.43747
679.196	3208.96484
679.637	3102.263
680.078	3235.09282
680.518	3007.01511
680.959	3047.2324
681.399	2978.48309
681.839	3009.35618
682.28	2986.51278
682.72	2853.99918
683.16	2815.52148
683.6	2756.96832
684.039	2781.46982
684.479	2713.4394
684.919	2669.1505
685.358	2581.45035
685.798	2571.72362
686.237	2627.21224
686.676	2513.90819
687.115	2515.12355
687.554	2515.2087
687.993	2545.80179
688.432	2441.9371
688.871	2430.96112
689.309	2329.1577
689.748	2371.49171
690.186	2372.03804
690.625	2361.0607
691.063	2337.12866
691.501	2372.33571
691.939	2251.37797
692.377	2265.18002
692.815	2294.2428
693.253	2162.03636
693.69	2235.68065
694.128	2204.15834
694.565	2137.0013
695.003	2160.39958
695.44	2152.01072
695.877	2083.94418
696.314	2089.46539
696.751	2076.76699
697.188	2059.86274
697.625	2010.67849
698.061	1992.96603
698.498	2003.91125
698.934	1966.9388
699.371	1958.86789
699.807	1891.83408
700.243	1922.95199
700.679	1945.62781
701.115	1927.80554
701.551	1877.75467
701.987	1800.46324
702.422	1868.86621
702.858	1842.84379
703.294	1942.745
703.729	1837.91868
704.164	1806.81484
704.599	1870.59371
705.035	1823.58089
705.47	1885.94716
705.904	1807.6919
706.339	1805.6553
706.774	1718.6684
707.209	1815.72009
707.643	1817.83139
708.078	1733.82931
708.512	1757.98106
708.946	1740.72629
709.38	1698.70687
709.814	1699.52126
710.248	1795.90741
710.682	1760.80363
711.116	1764.86538
711.549	1661.95819
711.983	1672.57523
712.416	1767.75884
712.85	1668.83871
713.283	1668.65258
713.716	1670.84214
714.149	1588.50847
714.582	1715.50579
715.015	1556.68627
715.448	1646.88734
715.881	1615.27053
716.313	1645.58984
716.746	1640.63706
717.178	1621.67843
717.61	1693.97412
718.043	1571.72585
718.475	1655.74402
718.907	1599.79646
719.339	1543.39728
719.77	1555.60082
720.202	1558.76464
720.634	1610.74659
721.065	1631.60561
721.497	1574.69616
721.928	1497.60759
722.359	1614.71846
722.79	1538.57844
723.221	1496.66088
723.652	1599.86317
724.083	1528.34979
724.514	1534.4279
724.945	1555.51107
725.375	1598.54881
725.806	1538.67732
726.236	1546.82614
726.666	1572.54937
727.096	1536.64736
727.526	1545.86297
727.956	1543.41941
728.386	1554.67295
728.816	1571.8656
729.246	1572.72403
729.675	1477.57257
730.105	1537.64422
730.534	1560.49326
730.964	1487.6617
731.393	1553.66489
731.822	1559.83937
732.251	1527.77529
732.68	1549.45533
733.109	1606.74989
733.537	1559.67384
733.966	1567.76007
734.395	1575.47997
734.823	1530.28454
735.251	1520.56043
735.68	1548.6808
736.108	1527.71005
736.536	1465.41351
736.964	1527.43937
737.392	1487.66576
737.82	1485.49773
738.247	1499.50516
738.675	1580.53119
739.102	1495.66793
739.53	1522.82367
739.957	1477.7931
740.384	1494.53393
740.811	1506.66507
741.238	1576.69676
741.665	1532.50054
742.092	1367.24853
742.519	1466.62328
742.945	1557.64502
743.372	1461.62027
743.798	1458.71916
744.225	1435.4131
744.651	1460.63508
745.077	1443.60493
745.503	1404.44541
745.929	1482.55241
746.355	1402.46741
746.781	1386.4833
747.207	1472.47372
747.632	1411.56236
748.058	1443.65096
748.483	1453.33852
748.908	1425.58399
749.334	1373.48808
749.759	1358.36118
750.184	1427.47595
750.609	1379.46631
751.033	1367.29187
751.458	1349.13708
751.883	1347.44078
752.307	1343.29895
752.732	1343.57833
753.156	1334.42871
753.58	1314.26518
754.005	1278.4164
754.429	1321.30195
754.853	1257.37371
755.277	1328.3124
755.7	1235.32979
756.124	1250.35645
756.548	1198.13535
756.971	1232.27279
757.394	1186.3486
757.818	1206.4115
758.241	1197.3523
758.664	1168.28931
759.087	1184.00016
759.51	1175.22492
759.933	1149.14395
760.356	1151.33357
760.778	1121.144
761.201	1090.05005
761.623	1056.96307
762.046	1078.94669
762.468	1171.13257
762.89	1134.13512
763.312	1059.04654
763.734	1026.96096
764.156	1036.03294
764.578	1051.8511
765	993.93572
765.421	951.98774
765.843	1033.18034
766.264	899.72325
766.686	968.9355
767.107	902.78262
767.528	943.99096
767.949	896.87478
768.37	965.93794
768.791	894.74207
769.212	884.84477
769.632	858.64731
770.053	826.81715
770.473	856.69397
770.894	826.68481
771.314	797.55538
771.734	817.56734
772.154	778.67788
772.575	815.54021
772.994	800.48638
773.414	771.52733
773.834	753.58542
774.254	762.56257
774.673	757.56453
775.093	722.53507
775.512	672.42928
775.931	704.53373
776.351	738.5664
776.77	672.4206
777.189	676.37041
777.607	639.4205
778.026	650.40101
778.445	582.30301
778.864	559.24863
779.282	558.1618
779.701	609.33245
780.119	623.37859
780.537	536.17919
780.955	591.30716
781.373	550.19586
781.791	560.10801
782.209	495.98161
782.627	486.1532
783.045	479.96275
783.462	555.25294
783.88	468.09377
784.297	484.08999
784.715	478.10975
785.132	489.04386
785.549	436.98416
785.966	480.08096
786.383	434.97045
786.8	470.96882
787.217	413.89434
787.633	379.87557
788.05	438.90895
788.466	423.88155
788.883	405.95195
789.299	379.81652
789.715	431.94884
790.131	420.94573
790.547	382.86792
790.963	353.80156
791.379	342.79717
791.795	380.7724
792.21	340.72008
792.626	350.75
793.041	319.72408
793.457	330.74433
793.872	323.68871
794.287	312.69885
794.702	281.63059
795.117	288.66842
795.532	301.70618
795.947	321.69722
796.362	269.58105
796.776	271.57358
797.191	296.67202
797.605	264.58404
798.02	254.57504
798.434	305.62038
798.848	300.69434
799.262	257.59518
799.676	271.61364
800.09	233.53618
800.504	220.49746
800.918	209.44817
801.331	189.45777
801.745	230.4884
802.158	172.40348
802.572	191.43638
802.985	217.48578
803.398	200.44615
803.811	150.35901
804.224	173.40162
804.637	195.43905
805.05	180.38873
805.462	187.43033
805.875	177.43756
806.288	175.40208
806.7	178.41837
807.112	140.30455
807.525	135.31167
807.937	189.44223
808.349	122.28977
808.761	205.47609
809.173	201.45996
809.584	162.37675
809.996	145.33688
810.408	152.37872
810.819	116.2607
811.231	161.41152
811.642	161.38055
812.053	204.46861
812.464	126.28399
812.875	192.46635
813.286	153.37893
813.697	96.20848
814.108	120.27798
814.519	166.35127
814.929	130.31529
815.34	104.23843
815.75	144.352
816.16	102.24002
816.571	103.25594
816.981	77.17209
817.391	95.21723
817.801	104.24863
818.211	131.29556
818.62	124.28599
819.03	130.30209
819.44	77.19029
819.849	79.18926
820.259	98.23777
820.668	123.28983
821.077	59.14302
821.486	29.06671
821.895	93.2165
822.304	74.18892
822.713	111.2487
823.122	46.11077
823.531	68.15232
823.939	76.17884
824.348	105.24193
824.756	71.1701
825.164	92.2207
825.573	53.12862
825.981	82.19386
826.389	59.14264
826.797	138.33507
827.205	77.17067
827.612	69.16272
828.02	33.07445
828.428	55.13512
828.835	76.1945
829.243	23.05266
829.65	64.1547
830.057	39.09093
830.464	85.20123
830.871	104.23852
831.278	80.18547
831.685	61.12968
832.092	65.15132
832.499	69.14508
832.905	66.15971
833.312	25.05391
833.718	102.24487
834.124	83.18159
834.531	45.10842
834.937	91.22497
835.343	6.01393
835.749	53.11699
836.155	75.18928
836.561	49.11645
836.966	37.08702
837.372	54.1319
837.777	60.14459
838.183	58.12263
838.588	81.19435
838.993	63.14753
839.399	40.09497
839.804	23.05447
840.209	77.19099
840.613	40.08531
841.018	28.06832
841.423	42.10438
841.828	81.19782
842.232	40.09387
842.637	96.2185
843.041	35.08745
843.445	16.03865
843.849	15.03622
844.253	69.1565
844.657	73.17802
845.061	93.20468
845.465	57.13248
845.869	39.08724
846.272	29.06873
846.676	-10.0231
847.079	77.18987
847.483	47.11273
847.886	46.10669
848.289	75.1958
848.692	49.11887
849.095	47.10812
849.498	72.17246
849.901	63.1369
850.304	47.1079
850.707	50.12254
851.109	45.10924
851.512	14.03348
851.914	13.0321
852.316	79.19415
852.718	75.19157
853.121	27.06407
853.523	43.09591
853.925	73.18555
854.326	32.07802
854.728	65.16169
855.13	40.101
855.531	29.06714
855.933	38.08694
856.334	35.08516
856.736	75.16194
857.137	27.06119
857.538	57.13921
857.939	64.15441
858.34	54.12504
858.741	29.07327
859.142	41.09428
859.542	34.08772
859.943	58.13856
860.343	41.09879
860.744	83.19353
861.144	111.26013
861.544	27.0637
861.945	10.02474
862.345	34.07982
862.745	44.10636
863.145	71.15895
863.544	57.13926
863.944	30.06831
864.344	11.02613
864.743	54.12865
865.143	64.15987
865.542	1.00222
865.941	25.06014
866.34	52.11792
866.74	52.13527
867.139	18.04234
867.537	-17.0418
867.936	37.08627
868.335	58.14173
868.734	31.07689
869.132	8.01774
869.531	9.02081
869.929	29.06401
870.327	53.12202
870.726	27.06436
871.124	50.11108
871.522	39.09564
871.92	44.10459
872.318	68.15802
872.715	59.138
873.113	22.05151
873.511	27.06481
873.908	10.02497
874.306	87.2089
874.703	31.07415
875.1	17.04153
875.497	32.07363
875.894	65.15596
876.291	47.11131
876.688	19.04764
877.085	24.05515
877.482	31.07495
877.878	87.20285
878.275	77.18826
878.671	15.03108
879.068	45.10439
879.464	28.06527
879.86	34.07742
880.256	28.06558
880.652	26.06401
881.048	29.0686
881.444	6.01361
881.84	63.15369
882.236	84.20182
882.631	52.12346
883.027	84.19312
883.422	33.08104
883.817	-29.07188
884.213	32.0795
884.608	70.1685
885.003	-33.07697
885.398	41.09912
885.793	15.03632
886.188	-21.05083
886.582	30.07369
886.977	73.16416
887.371	-14.03425
887.766	-12.02927
888.16	-3.00714
888.554	45.10624
888.949	8.01948
889.343	69.16038
889.737	-15.03951
890.131	38.09203
890.525	49.12176
890.918	53.12823
891.312	39.08871
891.706	28.07103
892.099	40.09789
892.492	64.13027
892.886	35.08231
893.279	54.1321
893.672	72.17731
894.065	43.10392
894.458	48.11497
894.851	36.08432
895.244	22.0544
895.637	29.06762
896.029	45.10661
896.422	-4.00936
896.814	0
897.206	66.15271
897.599	77.18187
897.991	58.13547
898.383	28.06391
898.775	124.26711
899.167	1.0023
899.559	49.11829
899.951	16.03603
900.342	31.0754
900.734	63.15403
901.125	29.07316
901.517	-4.00956
901.908	39.08842
902.299	34.08044
902.69	82.18626
903.082	51.11859
903.473	41.09609
903.863	19.04668
904.254	70.15713
904.645	2.00476
905.036	45.10711
905.426	64.13739
905.817	11.02594
906.207	-49.11286
906.597	27.06151
906.987	12.02992
907.378	72.17574
907.768	17.04384
908.158	9.02119
908.547	45.11397
908.937	6.01475
909.327	3.00704
909.717	34.08187
910.106	33.07591
910.495	33.07849
910.885	18.0443
911.274	59.14135
911.663	15.03652
912.052	-7.01657
912.441	67.16503
912.83	21.04602
913.219	65.16299
913.608	62.14624
913.997	14.03438
914.385	93.21128
914.774	45.10505
915.162	59.13637
915.55	25.05783
915.939	50.12259
916.327	32.07639
916.715	73.18153
917.103	20.04666
917.491	30.07131
917.878	45.10608
918.266	46.11458
918.654	46.11433
919.041	55.14044
919.429	36.08164
919.816	64.15552
920.203	77.18031
920.591	66.15724
920.978	26.06142
921.365	16.04095
921.752	26.0587
922.139	117.23863
922.525	13.03032
922.912	32.07486
923.299	62.14811
923.685	24.06008
924.072	9.01948
924.458	67.1599
924.844	-2.00481
925.231	23.051
925.617	38.09444
926.003	66.1614
926.389	-4.0098
926.774	-8.01964
927.16	73.17309
927.546	49.12269
927.931	41.09781
928.317	95.20556
928.702	4.0091
929.088	68.15746
929.473	54.13342
929.858	51.12078
930.243	28.06553
930.628	69.16253
931.013	-2.00482
931.398	32.06929
931.783	17.04293
932.167	92.21683
932.552	26.0627
932.937	45.1067
933.321	54.13151
933.705	0
934.09	41.09759
934.474	37.08348
934.858	2.00506
935.242	19.04225
935.626	61.15102
936.009	44.11446
936.393	115.28273
936.777	22.05494
937.16	68.17164
937.544	20.04458
937.927	39.0961
938.311	32.07463
938.694	47.12048
939.077	9.02083
939.46	-13.03028
939.843	25.04851
940.226	1.00248
940.609	88.19436
940.991	-18.04436
941.374	58.13691
941.757	45.10624
942.139	24.05203
942.522	33.07439
942.904	60.13811
943.286	36.0879
943.668	58.14635
944.05	80.1884
944.432	13.0309
944.814	13.03062
945.196	18.04279
945.578	60.1391
945.959	33.07342
946.341	15.03484
946.722	47.10496
947.104	53.12143
947.485	19.04261
947.866	56.13689
948.247	55.13487
948.628	8.01847
949.009	-4.00997
949.39	17.04062
949.771	22.04794
950.152	26.06166
950.532	76.18433
950.913	35.08103
951.293	-2.00532
951.674	25.05829
952.054	99.23853
952.434	21.05048
952.814	-31.07088
953.194	-28.07063
953.574	35.08254
953.954	-8.01819
954.334	80.19257
954.714	35.0826
955.093	63.14822
955.473	81.19605
955.853	34.08515
956.232	31.08234
956.611	-3.00687
956.99	55.13347
957.37	25.06115
957.749	-16.0364
958.128	25.06131
958.506	15.03784
958.885	10.02435
959.264	67.15947
959.643	90.19553
960.021	58.13903
960.4	63.13574
960.778	38.08855
961.156	5.0121
961.535	27.05977
961.913	45.10153
962.291	70.17486
962.669	28.06895
963.047	66.16272
963.424	51.12719
963.802	-13.03116
964.18	1.00241
964.557	48.10504
964.935	50.11325
965.312	17.04323
965.69	49.11667
966.067	9.02092
966.444	12.028
966.821	24.05997
967.198	39.08968
967.575	35.08215
967.952	28.06319
968.329	47.11058
968.705	94.19142
969.082	70.17499
969.458	34.0797
969.835	10.02352
970.211	28.07032
970.587	62.14834
970.963	19.04673
971.339	28.07118
971.715	67.16064
972.091	24.05694
972.467	-1.00238
972.843	5.01218
973.219	59.13388
973.594	6.01526
973.97	36.07984
974.345	21.04869
974.721	-13.03004
975.096	53.12406
975.471	69.1553
975.846	45.10281
976.221	8.01974
976.596	36.08452
976.971	54.12895
977.346	6.01335
977.72	22.0539
978.095	-3.00753
978.469	87.19629
978.844	25.06026
979.218	38.08904
979.593	26.05961
979.967	41.09394
980.341	4.00893
980.715	65.1575
981.089	47.11299
981.463	15.03315
981.837	33.0787
982.21	-40.08794
982.584	36.08402
982.957	30.07279
983.331	11.02466
983.704	59.14086
984.078	29.06873
984.451	14.03305
984.824	74.17339
985.197	19.04374
985.57	18.04287
985.943	0
986.316	12.02796
986.688	45.10381
987.061	55.12369
987.434	88.22276
987.806	10.02305
988.179	2.00454
988.551	36.08758
988.923	3.0071
989.295	33.07894
989.667	11.02581
990.039	35.08484
990.411	-12.02626
990.783	21.04573
991.155	8.01868
991.527	-7.01635
991.898	51.12274
992.27	67.16039
992.641	72.17147
993.012	-3.00663
993.384	46.10448
993.755	31.07681
994.126	94.21689
994.497	12.02848
994.868	22.04788
995.239	-13.03045
995.61	-27.06633
995.98	12.0281
996.351	28.0674
996.722	28.06319
997.092	-19.04393
997.462	3.00686
997.833	28.06311
998.203	-18.04166
998.573	0
998.943	74.16617
999.313	12.02794
999.683	24.05568
1000.053	-1.00216
1000.423	44.10168
1000.792	2.00497
1001.162	-15.03558
1001.531	69.16297
1001.901	31.07401
1002.27	5.0105
1002.639	7.01719
1003.009	-3.00688
1003.378	-9.02243
1003.747	40.08986
1004.116	12.02763
1004.485	33.07567
1004.853	-2.00484
1005.222	-22.05294
1005.591	65.14653
1005.959	-4.00874
1006.328	34.07355
1006.696	29.06693
1007.064	26.06242
1007.433	5.01199
1007.801	20.04642
1008.169	36.08653
1008.537	84.17542
1008.905	55.12333
1009.273	32.07539
1009.64	39.09058
1010.008	42.09567
1010.375	34.0777
1010.743	34.07255
1011.11	88.20199
1011.478	30.07208
1011.845	42.09389
1012.212	51.11153
1012.579	47.11092
1012.946	12.02716
1013.313	26.05884
1013.68	33.07043
1014.047	-1.0023
1014.414	1.00228
1014.78	0
1015.147	41.09375
1015.513	-1.00233
1015.88	-9.02218
1016.246	-14.03306
1016.612	52.1123
1016.978	43.10188
1017.344	63.14932
1017.71	87.20005
1018.076	9.0202
1018.442	65.16099
1018.808	78.18818
1019.174	-2.00483
1019.539	-16.03395
1019.905	29.06607
1020.27	13.03091
1020.636	16.03637
1021.001	61.13993
1021.366	-19.04451
1021.731	83.20722
1022.096	53.12977
1022.461	59.13366
1022.826	84.19134
1023.191	24.06099
1023.556	60.13313
1023.92	-22.05199
1024.285	-2.00466
1024.649	12.02817
1025.014	10.02361
1025.378	22.05378
1025.742	6.01427
1026.107	52.11148
1026.471	63.13888
1026.835	45.10707
1027.199	31.07188
1027.562	11.0243
1027.926	1.00235
1028.29	29.07085
1028.654	38.08312
1029.017	14.03332
1029.381	36.08283
1029.744	40.09833
1030.107	41.09281
1030.471	92.21024
1030.834	-23.0497
1031.197	46.10588
1031.56	28.06298
1031.923	20.05014
1032.286	46.10317
1032.648	84.18762
1033.011	73.16167
1033.374	17.03792
1033.736	2.00512
1034.099	20.04701
1034.461	-2.00495
1034.823	22.05312
1035.185	34.08153
1035.548	50.11716
1035.91	11.02532
1036.272	26.05704
1036.634	23.05411
1036.995	-10.02251
1037.357	34.07995
1037.719	35.0819
1038.08	76.17319
1038.442	27.06139
1038.803	-18.04113
1039.165	31.07495
1039.526	20.04657
1039.887	37.08474
1040.248	58.1394
1040.609	39.0914
1040.97	19.04456
1041.331	59.14436
1041.692	32.07307
1042.053	78.16686
1042.413	34.07525
1042.774	54.12593
1043.134	2.00452
1043.495	48.11576
1043.855	65.15233
1044.215	46.10879
1044.576	44.10156
1044.936	75.1618
1045.296	64.15265
1045.656	23.05367
1046.016	72.16434
1046.375	28.06527
1046.735	59.12985
1047.095	26.05841
1047.454	31.06162
1047.814	30.06933
1048.173	-17.03868
1048.533	24.05268
1048.892	30.06952
1049.251	13.03125
1049.61	-12.02869
1049.969	49.10988
1050.328	33.06813
1050.687	18.04186
1051.046	54.12514
1051.405	-15.03583
1051.763	56.1242
1052.122	40.09567
1052.48	15.03559
1052.839	59.1348
1053.197	45.10107
1053.555	28.05954
1053.914	48.11198
1054.272	-9.02055
1054.63	21.0496
1054.988	55.12612
1055.345	53.10633
1055.703	51.1176
1056.061	36.09042
1056.419	100.25124
1056.776	-23.0531
1057.134	-18.03949
1057.491	58.13919
1057.848	12.02864
1058.206	-34.07626
1058.563	34.07119
1058.92	33.07232
1059.277	36.08528
1059.634	47.10387
1059.991	49.11254
1060.348	49.10598
1060.704	73.16981
1061.061	14.03056
1061.418	40.09317
1061.774	42.09953
1062.131	64.16546
1062.487	-4.00896
1062.843	22.05282
1063.199	33.079
1063.555	29.06506
1063.911	8.0194
1064.267	58.11203
1064.623	33.07797
1064.979	-40.08846
1065.335	41.09281
1065.691	-11.02507
1066.046	51.10605
1066.402	17.03674
1066.757	36.08751
1067.112	73.16981
1067.468	5.01156
1067.823	-38.08684
1068.178	28.06453
1068.533	53.12275
1068.888	32.07283
1069.243	40.09479
1069.598	26.06025
1069.952	47.10335
1070.307	54.1288
1070.662	108.24571
1071.016	80.17233
1071.371	34.07437
1071.725	-19.04355
1072.079	30.06944
1072.434	28.06568
1072.788	-12.02721
1073.142	57.13426
1073.496	38.08603
1073.85	42.09273
1074.203	66.15289
1074.557	52.13508
1074.911	52.11744
1075.265	38.08432
1075.618	85.19749
1075.971	28.06378
1076.325	6.0149
1076.678	56.12198
1077.031	-14.02985
1077.385	69.14291
1077.738	-7.01517
1078.091	-2.00443
1078.444	41.08959
1078.796	74.17434
1079.149	90.21343
1079.502	32.07307
1079.855	31.06934
1080.207	3.00711
1080.56	-1.00253
1080.912	13.03042
1081.264	21.04887
1081.617	26.06121
1081.969	46.11228
1082.321	10.02345
1082.673	30.0667
1083.025	11.02493
1083.377	34.07641
1083.728	27.05995
1084.08	-2.0048
1084.432	-24.05588
1084.783	9.01982
1085.135	44.10648
1085.486	42.09238
1085.838	62.14652
1086.189	69.16126
1086.54	56.12689
1086.891	65.16075
1087.242	92.21683
1087.593	5.01154
1087.944	91.1964
1088.295	47.10135
1088.646	99.23228
1088.996	-19.0447
1089.347	3.00706
1089.698	29.06661
1090.048	13.03247
1090.398	35.07696
1090.749	24.05456
1091.099	49.11998
1091.449	42.10095
1091.799	53.12712
1092.149	14.03347
1092.499	50.11679
1092.849	15.03693
1093.199	40.09534
1093.548	49.11403
1093.898	-7.0169
1094.248	-2.00493
1094.597	16.04008
1094.947	29.07509
1095.296	37.08834
1095.645	7.01757
1095.994	64.14649
1096.343	44.10684
1096.692	49.12635
1097.041	13.03482
1097.39	28.0672
1097.739	26.06525
1098.088	-5.01294
1098.437	27.06977
1098.785	5.013
1099.134	-17.04324
1099.482	61.16267
1099.83	74.18666
1100.179	52.13336
1100.527	27.06858
1100.875	51.13114
1101.223	60.15463
1101.571	-7.01882
1101.919	39.10084
1102.267	12.03328
1102.615	2.00642
1102.962	-1.00321
1103.31	10.03209
1103.658	-2.00641
