Data from N1 R1 sample 12_Subt2__0__11-26-40-875.txt Node

Date: Wed Sep 17 11:26:40 PDT 2025
User: uwsun
Spectrometer: HDX01956
Trigger mode: 0
Integration Time (sec): 5.000000E-1
Scans to average: 1
Nonlinearity correction enabled: true
Boxcar width: 0
Storing dark spectrum: false
XAxis mode: Wavelengths
Number of Pixels in Spectrum: 2068
>>>>>Begin Spectral Data<<<<<
194.03	-7.02034
194.578	-1.00325
195.127	-7.02246
195.676	1.00322
196.225	-7.01872
196.773	-34.09552
197.321	-46.12971
197.87	-1.00262
198.418	35.09181
198.966	10.02692
199.513	19.04937
200.061	-34.08908
200.609	10.02694
201.156	-56.12787
201.704	-14.03622
202.251	11.02986
202.798	-4.01062
203.345	45.11353
203.892	12.03104
204.438	-22.05386
204.985	11.02682
205.532	-13.03506
206.078	-25.06296
206.624	31.07946
207.17	36.08636
207.716	51.12742
208.262	-29.05998
208.808	31.07957
209.354	58.14593
209.899	-26.0674
210.445	-1.00257
210.99	18.04503
211.535	13.03148
212.08	15.03574
212.625	14.03578
213.17	23.05988
213.715	76.17647
214.259	23.05506
214.804	15.03763
215.348	11.02615
215.892	9.02243
216.436	0
216.98	-21.04769
217.524	37.09036
218.068	28.07211
218.612	24.06233
219.155	29.07009
219.698	-1.00244
220.242	0
220.785	12.0289
221.328	-5.01265
221.871	38.09844
222.414	1.00253
222.956	-43.10611
223.499	-3.00687
224.041	6.01403
224.583	-47.10274
225.126	-8.01803
225.668	7.01736
226.21	24.06181
226.751	-4.00916
227.293	10.02311
227.835	-1.00251
228.376	24.05557
228.918	-41.10488
229.459	-23.05883
230	12.02942
230.541	40.09339
231.082	21.05207
231.622	-39.09093
232.163	-41.10173
232.704	39.09902
233.244	23.058
233.784	3.00741
234.324	100.22631
234.864	-40.09321
235.404	-6.01444
235.944	31.07413
236.484	31.07852
237.023	-5.01205
237.563	20.04741
238.102	35.08404
238.641	-13.03337
239.18	-21.05064
239.719	14.03565
240.258	-3.0069
240.797	26.06318
241.335	-30.07483
241.874	-19.03833
242.412	30.07413
242.95	14.03452
243.488	-23.05308
244.026	4.00952
244.564	8.0169
245.102	29.06701
245.64	8.01947
246.177	-8.01822
246.715	35.08538
247.252	-29.0677
247.789	44.08319
248.326	20.04911
248.863	12.02704
249.4	17.03933
249.936	47.10031
250.473	53.12702
251.009	-14.03289
251.546	44.09998
252.082	-39.08702
252.618	10.02289
253.154	4.00984
253.69	-13.02994
254.226	40.09723
254.761	-15.0346
255.297	-6.01345
255.832	-9.02194
256.367	12.02878
256.903	-1.00228
257.438	12.0287
257.972	21.04773
258.507	-14.03296
259.042	4.00892
259.576	57.12813
260.111	-12.02826
260.645	28.06171
261.179	46.10938
261.713	36.0821
262.247	-16.0375
262.781	-3.00651
263.315	-4.00991
263.849	-6.01536
264.382	61.14173
264.915	35.08427
265.449	-24.06013
265.982	13.03018
266.515	52.12914
267.048	-3.00654
267.58	-5.01107
268.113	9.01995
268.646	-20.05014
269.178	-4.00917
269.71	51.11469
270.243	39.09197
270.775	30.0782
271.307	-6.01459
271.838	17.04091
272.37	16.03992
272.902	12.02778
273.433	33.07467
273.965	-17.04234
274.496	39.09797
275.027	19.04817
275.558	36.08931
276.089	27.06863
276.62	-26.06715
277.15	10.02506
277.681	0
278.211	8.0199
278.741	58.13078
279.272	3.00704
279.802	16.04052
280.332	35.08411
280.861	15.03657
281.391	47.10855
281.921	16.03898
282.45	38.09554
282.98	18.04769
283.509	46.10652
284.038	46.10707
284.567	40.09479
285.096	36.08882
285.625	-20.04633
286.153	74.1788
286.682	46.10753
287.21	-21.05134
287.739	26.06261
288.267	1.00249
288.795	-9.024
289.323	42.10037
289.851	56.13373
290.378	-10.02293
290.906	24.05989
291.433	35.08865
291.961	50.11624
292.488	27.06812
293.015	41.09856
293.542	95.24572
294.069	69.17295
294.596	25.06219
295.122	27.06609
295.649	10.02245
296.175	41.10024
296.702	60.14874
297.228	9.02214
297.754	36.08267
298.28	37.08692
298.806	32.07857
299.332	37.08464
299.857	60.1386
300.383	20.05124
300.908	16.04021
301.433	67.16636
301.958	32.07489
302.483	-11.02795
303.008	113.28222
303.533	38.09946
304.058	29.06897
304.582	-2.00485
305.107	-4.01064
305.631	48.11084
306.155	40.09504
306.679	7.0169
307.203	44.10415
307.727	26.06297
308.251	25.06294
308.775	83.20429
309.298	46.11291
309.822	51.12995
310.345	72.1745
310.868	8.01979
311.391	66.16469
311.914	25.0639
312.437	37.08647
312.96	17.04105
313.482	-10.02419
314.005	-4.01023
314.527	11.02917
315.049	75.19198
315.571	11.0255
316.093	66.1657
316.615	13.03195
317.137	48.10704
317.659	39.09631
318.18	2.00489
318.702	108.25533
319.223	16.03368
319.744	33.07619
320.265	75.18528
320.786	68.17238
321.307	33.08316
321.828	53.12212
322.348	48.11528
322.869	65.15756
323.389	62.12499
323.909	40.0935
324.43	76.18412
324.95	19.04472
325.47	74.18612
325.989	84.20212
326.509	89.20261
327.029	78.18133
327.548	57.13196
328.067	49.12136
328.587	114.28796
329.106	51.11751
329.625	48.12692
330.144	70.16588
330.662	110.26117
331.181	98.23429
331.7	14.03348
332.218	61.1356
332.736	79.18811
333.255	63.15139
333.773	44.10628
334.291	81.20544
334.808	59.13616
335.326	62.14243
335.844	99.23627
336.361	109.2831
336.879	86.20591
337.396	116.28535
337.913	98.22998
338.43	64.14773
338.947	88.21359
339.464	75.16568
339.981	100.24035
340.497	86.21444
341.014	104.25649
341.53	87.19997
342.046	137.34426
342.562	116.29154
343.078	103.24591
343.594	89.21501
344.11	127.30703
344.626	114.29042
345.141	134.30967
345.657	147.33531
346.172	125.30448
346.687	125.29007
347.202	170.38989
347.717	135.32453
348.232	140.35047
348.747	139.32409
349.261	144.31977
349.776	151.3612
350.29	137.34525
350.805	137.34054
351.319	129.30303
351.833	131.3052
352.347	150.35654
352.861	136.32227
353.374	137.31465
353.888	182.44471
354.401	152.34847
354.915	155.35328
355.428	157.39239
355.941	119.28074
356.454	99.22446
356.967	128.30167
357.48	166.37796
357.993	158.38952
358.505	103.2537
359.018	169.41456
359.53	205.49802
360.042	168.37849
360.554	230.55759
361.066	175.42562
361.578	202.44633
362.09	185.43981
362.602	210.4673
363.113	186.43802
363.625	200.45372
364.136	180.39689
364.647	207.48889
365.158	195.45322
365.669	191.45512
366.18	169.39884
366.691	145.32126
367.201	222.52766
367.712	192.43981
368.222	175.40449
368.733	162.3554
369.243	252.55749
369.753	242.55188
370.263	268.63649
370.773	187.45378
371.282	242.57143
371.792	239.54867
372.301	188.45287
372.811	268.68917
373.32	302.64073
373.829	256.59463
374.338	285.62193
374.847	263.59819
375.356	274.63417
375.865	272.57557
376.373	279.62353
376.882	322.7917
377.39	295.69534
377.898	309.73935
378.407	344.75718
378.915	371.78315
379.423	344.77432
379.93	481.05025
380.438	351.81412
380.946	388.86583
381.453	421.96212
381.96	446.00713
382.468	473.04582
382.975	476.09595
383.482	468.98766
383.989	588.39019
384.495	617.31302
385.002	597.14357
385.509	680.4601
386.015	647.19178
386.521	742.49275
387.028	713.43993
387.534	805.49012
388.04	840.75444
388.546	799.53202
389.051	940.73493
389.557	931.81813
390.063	942.78282
390.568	992.98811
391.073	1002.83119
391.578	1098.18209
392.084	1115.03331
392.589	1258.08128
393.093	1406.52697
393.598	1478.47986
394.103	1561.67587
394.607	1785.92946
395.112	1819.0421
395.616	1969.11464
396.12	2144.96988
396.624	2343.20761
397.128	2568.40488
397.632	2808.34023
398.136	3004.23451
398.639	3384.32259
399.143	3817.56343
399.646	4247.06712
400.15	4821.631
400.653	5380.19768
401.156	6057.8226
401.659	7211.11691
402.162	9331.11384
402.664	14312.46957
403.167	29175.47201
403.67	59514.04627
404.172	63919.58413
404.674	63858.43483
405.176	63738.15102
405.678	63977.72923
406.18	64011.81569
406.682	63863.44694
407.184	63926.60148
407.686	44211.13619
408.187	26201.68384
408.688	17817.74892
409.19	14011.04518
409.691	11659.99434
410.192	10104.03419
410.693	9064.52848
411.194	8614.8428
411.694	7969.32163
412.195	7279.30005
412.696	6888.89443
413.196	6764.3149
413.696	6941.9901
414.196	6660.55126
414.696	6347.30762
415.196	5677.17967
415.696	4563.54352
416.196	3626.23653
416.695	3129.36329
417.195	2984.47838
417.694	2791.7422
418.194	2594.78573
418.693	2489.12555
419.192	2460.26243
419.691	2373.16221
420.19	2317.29735
420.688	2231.34731
421.187	2039.48403
421.685	1902.8955
422.184	1638.72963
422.682	1424.2639
423.18	1298.27883
423.678	1103.01742
424.176	1088.99373
424.674	1051.88576
425.172	945.85073
425.669	820.73077
426.167	842.66468
426.664	691.38013
427.161	685.38963
427.659	635.38005
428.156	605.15334
428.652	576.32127
429.149	562.24268
429.646	483.99629
430.143	530.16451
430.639	444.98339
431.135	412.97047
431.632	398.85837
432.128	413.93359
432.624	440.06228
433.12	330.72058
433.616	381.7905
434.111	346.7836
434.607	299.68886
435.103	287.58004
435.598	299.59875
436.093	261.58908
436.588	289.62692
437.083	250.54429
437.578	288.64271
438.073	254.61669
438.568	253.604
439.062	212.44429
439.557	225.5126
440.051	165.36602
440.546	192.42796
441.04	206.4836
441.534	188.46381
442.028	211.49621
442.522	164.38772
443.015	122.26043
443.509	158.37859
444.002	190.45508
444.496	134.2884
444.989	156.3728
445.482	144.35174
445.975	167.38001
446.468	173.36857
446.961	141.3034
447.454	69.15536
447.947	144.33938
448.439	146.35317
448.931	158.35742
449.424	199.4941
449.916	200.47611
450.408	109.24793
450.9	102.24618
451.392	139.3479
451.884	96.21982
452.375	99.2434
452.867	147.32582
453.358	110.25036
453.849	97.20702
454.341	109.24462
454.832	84.18149
455.323	157.38413
455.814	66.15119
456.304	117.26828
456.795	85.19366
457.285	75.1652
457.776	134.30152
458.266	66.15658
458.756	42.0996
459.247	76.18128
459.737	154.36605
460.226	120.27091
460.716	92.2186
461.206	71.16945
461.695	93.22805
462.185	83.19619
462.674	86.19582
463.163	126.27945
463.653	83.17652
464.142	94.2261
464.63	66.15947
465.119	106.24428
465.608	125.28916
466.096	26.05694
466.585	74.16856
467.073	25.0593
467.561	75.17906
468.05	31.07174
468.538	72.17502
469.026	76.17933
469.513	32.06807
470.001	71.16268
470.489	71.16815
470.976	111.25657
471.463	77.19043
471.951	57.14117
472.438	35.08244
472.925	46.10842
473.412	42.1019
473.899	64.14649
474.385	67.16326
474.872	21.04925
475.359	80.19534
475.845	47.09778
476.331	31.06645
476.817	70.16946
477.303	45.10472
477.789	20.04785
478.275	58.14341
478.761	29.06905
479.247	35.07839
479.732	39.0973
480.218	99.25642
480.703	39.09606
481.188	64.13845
481.673	46.10588
482.158	16.03492
482.643	53.13495
483.128	56.13049
483.612	53.1262
484.097	17.04118
484.581	45.10422
485.066	58.14167
485.55	37.08222
486.034	42.09141
486.518	64.15277
487.002	-7.01717
487.486	3.00733
487.969	16.03905
488.453	-1.0025
488.936	6.01364
489.42	-4.00896
489.903	24.05984
490.386	-92.19673
490.869	71.15521
491.352	-35.08541
491.835	28.05772
492.318	15.03397
492.8	-4.00841
493.283	31.07918
493.765	-13.03219
494.247	9.02111
494.73	-20.04497
495.212	45.10661
495.694	16.03796
496.175	6.01453
496.657	38.09012
497.139	-26.04577
497.62	45.10826
498.102	14.03502
498.583	-26.0646
499.064	-5.01129
499.545	-6.01383
500.026	-3.00687
500.507	-34.07957
500.988	21.05268
501.469	-23.05794
501.949	-7.01743
502.43	31.07495
502.91	7.01504
503.39	2.00499
503.87	27.06412
504.35	-29.06884
504.83	-40.08923
505.31	-55.13502
505.79	-40.0961
506.269	-41.09579
506.749	-24.05566
507.228	-30.07172
507.707	-8.01809
508.187	16.03847
508.666	6.01497
509.145	-21.04979
509.623	-12.02844
510.102	-19.04652
510.581	22.05334
511.059	-10.02541
511.538	-5.01299
512.016	-10.02424
512.494	-79.19437
512.972	3.00725
513.45	-49.11658
513.928	-17.04184
514.406	-12.02976
514.884	-11.02863
515.361	-27.06557
515.839	-15.03504
516.316	17.04158
516.793	-40.10248
517.27	-23.05607
517.747	-14.03629
518.224	-35.08206
518.701	-35.07884
519.178	-9.02275
519.654	-13.03117
520.131	-31.0779
520.607	-23.05692
521.083	-38.08771
521.56	-25.0598
522.036	-8.01766
522.512	22.0546
522.987	4.00973
523.463	-46.11111
523.939	23.05738
524.414	-15.03481
524.89	-22.05326
525.365	-63.14579
525.84	-45.11019
526.315	-10.02451
526.79	-18.04123
527.265	17.03961
527.74	-40.09872
528.215	-47.11178
528.689	-68.15301
529.164	-47.10309
529.638	-50.12886
530.112	-64.15394
530.587	-11.02391
531.061	-29.07127
531.534	-43.10548
532.008	19.04651
532.482	-34.07957
532.956	-45.11664
533.429	15.03697
533.903	-26.058
534.376	-47.10621
534.849	-78.18412
535.322	-58.13983
535.795	-36.08836
536.268	14.03415
536.741	-62.15043
537.213	-24.05606
537.686	-27.06704
538.158	-36.08349
538.631	-26.06391
539.103	-32.07366
539.575	-60.12697
540.047	-59.13192
540.519	-22.05334
540.991	0
541.463	-50.12263
541.934	-93.21667
542.406	-20.04876
542.877	-45.10377
543.348	-25.06131
543.82	-34.08404
544.291	-19.04505
544.762	-27.06535
545.233	-13.03335
545.703	-41.09326
546.174	-38.08987
546.645	-44.10856
547.115	-12.02937
547.585	-42.09864
548.056	0
548.526	-40.09691
548.996	8.01932
549.466	-17.04192
549.935	-38.09261
550.405	-82.18603
550.875	-48.11651
551.344	-71.17366
551.814	-59.1387
552.283	-6.01332
552.752	-21.05012
553.221	-17.03829
553.69	27.06166
554.159	0
554.628	-5.01153
555.096	-13.03352
555.565	-70.15951
556.033	-24.0583
556.502	-54.13328
556.97	19.0428
557.438	-35.08385
557.906	-2.00479
558.374	-15.0354
558.842	-11.02675
559.31	-40.0917
559.777	28.06895
560.245	-79.18666
560.712	-70.16485
561.18	-35.07929
561.647	-53.12065
562.114	-47.11032
562.581	-21.05249
563.048	-5.01163
563.514	13.03293
563.981	-16.0373
564.448	32.07295
564.914	-29.06865
565.381	10.02315
565.847	-3.00709
566.313	-26.06145
566.779	-22.05048
567.245	-42.09937
567.711	-20.04865
568.176	-17.03886
568.642	-12.0306
569.108	-2.00497
569.573	-42.0993
570.038	16.03392
570.504	15.0343
570.969	12.02999
571.434	50.11163
571.899	27.06449
572.363	-9.02098
572.828	70.161
573.293	69.15822
573.757	112.2579
574.222	71.15927
574.686	92.21083
575.15	101.2416
575.614	156.36237
576.078	95.22185
576.542	96.21779
577.006	121.27088
577.469	107.26092
577.933	94.21342
578.396	103.24252
578.86	111.25912
579.323	104.24892
579.786	152.32475
580.249	147.3414
580.712	122.29333
581.175	116.28303
581.637	118.26672
582.1	127.27386
582.563	113.23834
583.025	117.2819
583.487	118.24117
583.95	74.15879
584.412	120.25004
584.874	134.32255
585.336	52.12375
585.797	102.22085
586.259	113.26212
586.721	36.08501
587.182	138.31383
587.643	90.20385
588.105	102.23937
588.566	62.12988
589.027	129.31222
589.488	55.12672
589.949	98.23652
590.41	67.13342
590.87	68.1559
591.331	74.162
591.791	39.09093
592.252	64.14937
592.712	21.05075
593.172	25.05746
593.632	104.23008
594.092	23.05183
594.552	21.04608
595.011	-18.04198
595.471	70.15893
595.931	36.08197
596.39	39.09415
596.849	17.04001
597.308	-31.06762
597.768	26.06745
598.227	23.05571
598.685	-29.06746
599.144	26.06183
599.603	-10.02374
600.062	-10.0215
600.52	25.05707
600.978	-4.00958
601.437	-19.044
601.895	42.09078
602.353	-22.04932
602.811	90.20244
603.269	37.08847
603.727	15.03635
604.184	6.01386
604.642	10.02481
605.099	-1.00237
605.557	36.08794
606.014	31.06745
606.471	2.00507
606.928	77.17117
607.385	49.12296
607.842	30.06936
608.299	38.08932
608.755	36.08761
609.212	73.16288
609.668	26.05922
610.125	71.17074
610.581	28.06609
611.037	11.02494
611.493	-8.01893
611.949	50.12204
612.405	53.10864
612.861	3.00698
613.316	38.0914
613.772	33.07607
614.227	87.20803
614.683	32.0684
615.138	31.07311
615.593	-3.00705
616.048	49.1124
616.503	-8.01964
616.958	30.0754
617.412	36.08584
617.867	73.16309
618.321	27.05625
618.776	51.11262
619.23	-11.0261
619.684	40.0896
620.138	-3.00695
620.592	18.04392
621.046	58.13696
621.5	31.07486
621.954	6.01341
622.407	3.00671
622.861	0
623.314	-30.06905
623.768	46.10875
624.221	3.00599
624.674	16.03723
625.127	-37.08749
625.58	2.00454
626.033	25.05497
626.485	-30.07279
626.938	26.06216
627.39	11.02591
627.843	24.0556
628.295	34.0786
628.747	59.14032
629.199	30.06856
629.651	-20.04648
630.103	2.00463
630.555	-49.10553
631.006	6.01405
631.458	19.04491
631.909	-5.01131
632.361	-40.0938
632.812	6.01399
633.263	10.02188
633.714	-22.04729
634.165	-28.06796
634.616	-5.01192
635.067	25.05527
635.518	-19.04554
635.968	-8.01593
636.419	36.07881
636.869	-4.00955
637.319	16.03731
637.769	6.0136
638.219	33.07791
638.669	-30.07221
639.119	-27.06535
639.569	-22.05334
640.019	26.06023
640.468	-34.07742
640.918	-42.10106
641.367	-10.02262
641.816	-1.00224
642.265	47.1095
642.714	-15.03477
643.163	20.04642
643.612	-13.03215
644.061	-25.0543
644.51	-7.01621
644.958	6.01336
645.406	-30.0726
645.855	-3.00733
646.303	-26.06085
646.751	3.00699
647.199	27.06137
647.647	8.01869
648.095	9.02065
648.543	-8.01643
648.99	28.06737
649.438	-39.09154
649.885	-15.03772
650.333	-23.04544
650.78	-33.08077
651.227	19.04663
651.674	-15.03462
652.121	-5.01236
652.568	-15.03708
653.015	-40.10021
653.461	-25.06012
653.908	-24.05577
654.354	26.06199
654.801	-37.088
655.247	4.00873
655.693	0
656.139	-15.03611
656.585	-55.13352
657.031	-44.10503
657.477	14.03078
657.922	-73.16954
658.368	-21.05207
658.813	-63.14603
659.259	6.01462
659.704	11.0262
660.149	-64.15043
660.594	4.00954
661.039	27.06164
661.484	37.08753
661.929	16.0375
662.373	-31.07857
662.818	-18.04487
663.262	-4.00973
663.707	7.01786
664.151	-14.03439
664.595	5.01215
665.039	-16.04
665.483	-1.00255
665.927	-3.00708
666.371	6.01419
666.814	-23.05517
667.258	-42.10259
667.701	-15.03233
668.145	32.0795
668.588	0
669.031	-27.06419
669.474	-32.07761
669.917	-40.08897
670.36	13.0325
670.803	3.00728
671.245	-66.13807
671.688	38.0922
672.13	-9.02053
672.573	-7.01775
673.015	21.05067
673.457	-37.0817
673.899	-18.04387
674.341	-4.00968
674.783	-31.07506
675.225	-11.02723
675.666	0
676.108	-36.07891
676.549	-36.08481
676.991	-7.01548
677.432	-35.07057
677.873	-63.14631
678.314	-47.11329
678.755	65.15892
679.196	-71.16535
679.637	-52.12607
680.078	-6.01409
680.518	-76.1778
680.959	-26.0624
681.399	-2.00496
681.839	-7.01706
682.28	-27.0676
682.72	-21.04841
683.16	-4.01001
683.6	-31.07123
684.039	-23.04798
684.479	-12.02977
684.919	8.01886
685.358	-23.05757
685.798	-52.13666
686.237	-4.00957
686.676	-70.16106
687.115	-1.00236
687.554	-7.01681
687.993	-36.08051
688.432	-26.0598
688.871	8.01837
689.309	15.03595
689.748	7.0146
690.186	-42.09918
690.625	-12.02832
691.063	-48.11572
691.501	57.13962
691.939	28.07022
692.377	-64.15715
692.815	55.13332
693.253	-44.10567
693.69	-33.0729
694.128	-28.0684
694.565	-35.08353
695.003	20.05093
695.44	1.00237
695.877	-30.07109
696.314	-50.10659
696.751	-16.0364
697.188	-27.063
697.625	-18.04044
698.061	-31.07466
698.498	-94.2261
698.934	-44.10599
699.371	-38.09012
699.807	-20.04738
700.243	-14.03385
700.679	-57.12855
701.115	-13.03038
701.551	-41.09594
701.987	-27.05927
702.422	-14.0335
702.858	-4.00954
703.294	36.08197
703.729	-36.088
704.164	-52.12517
704.599	-4.00894
705.035	-22.04957
705.47	-51.12479
705.904	-52.12151
706.339	-19.04373
706.774	-51.12046
707.209	-46.10795
707.643	2.00477
708.078	26.06278
708.512	11.02746
708.946	-54.1289
709.38	16.03783
709.814	-62.1418
710.248	8.0195
710.682	23.05491
711.116	-5.01217
711.549	-70.18022
711.983	-42.0976
712.416	30.07065
712.85	-28.06944
713.283	6.01411
713.716	5.01233
714.149	-49.11416
714.582	26.05798
715.015	-39.09592
715.448	22.055
715.881	9.01922
716.313	-40.09383
716.746	-18.04262
717.178	-34.082
717.61	-16.04065
718.043	-2.00492
718.475	2.00483
718.907	-30.07491
719.339	-38.08656
719.77	4.00954
720.202	-55.13836
720.634	-12.02941
721.065	-39.09215
721.497	-2.00487
721.928	-9.02191
722.359	-36.0879
722.79	4.00953
723.221	-71.17745
723.652	-39.09916
724.083	-21.04719
724.514	-29.06669
724.945	-7.01632
725.375	-33.07731
725.806	-38.09368
726.236	21.05311
726.666	10.02339
727.096	-1.00243
727.526	1.00256
727.956	-24.05487
728.386	9.02187
728.816	19.04821
729.246	18.04405
729.675	-31.07551
730.105	5.01212
730.534	-3.00695
730.964	-27.06714
731.393	-26.06349
731.822	16.04049
732.251	25.06271
732.68	-51.11826
733.109	7.01713
733.537	0
733.966	12.02972
734.395	5.01147
734.823	-41.09065
735.251	-29.0695
735.68	3.00733
736.108	-35.08726
736.536	-11.02559
736.964	-31.07168
737.392	-13.03228
737.82	-6.01421
738.247	-11.02602
738.675	-2.00466
739.102	-11.02725
739.53	6.01531
739.957	-7.01801
740.384	-41.09849
740.811	-61.15191
741.238	-25.06117
741.665	33.07658
742.092	-75.17315
742.519	-20.04947
742.945	51.12195
743.372	28.0687
743.798	-1.00254
744.225	-58.13739
744.651	-29.07222
745.077	-11.02722
745.503	-18.04315
745.929	7.01681
746.355	24.05749
746.781	-8.01948
747.207	12.02823
747.632	16.03934
748.058	30.07464
748.483	4.0091
748.908	-25.06203
749.334	27.06569
749.759	15.03537
750.184	-18.04321
750.609	0
751.033	-29.06727
751.458	-8.01766
751.883	-2.00487
752.307	-12.02804
752.732	-14.03563
753.156	-38.09324
753.58	9.02094
754.005	-25.0623
754.429	-1.00235
754.853	-23.05703
755.277	25.05857
755.7	6.01473
756.124	19.04663
756.548	-52.12275
756.971	11.0265
757.394	-43.10953
757.818	1.00256
758.241	-2.00504
758.664	15.0374
759.087	-1.00224
759.51	-38.09327
759.933	8.01915
760.356	17.04336
760.778	0
761.201	40.09471
761.623	-59.14011
762.046	-15.03467
762.468	34.07982
762.89	-9.02171
763.312	26.0627
763.734	-29.06958
764.156	16.03897
764.578	-26.05875
765	-3.00723
765.421	-10.02533
765.843	-5.01295
766.264	-22.05157
766.686	-63.15598
767.107	-43.1038
767.528	14.03555
767.949	-25.06294
768.37	19.04647
768.791	14.033
769.212	-32.08031
769.632	-16.03721
770.053	-25.06478
770.473	-14.03335
770.894	-32.07799
771.314	-25.05834
771.734	-16.03689
772.154	-3.00755
772.575	-23.05242
772.994	-74.16754
773.414	13.03034
773.834	-45.11137
774.254	-46.11157
774.673	36.08646
775.093	8.01966
775.512	-8.01954
775.931	7.01751
776.351	20.04911
776.77	18.04353
777.189	9.02104
777.607	-7.01765
778.026	10.02453
778.445	2.00502
778.864	-22.05508
779.282	-25.05886
779.701	36.08836
780.119	17.0424
780.537	-36.08879
780.955	16.03966
781.373	-8.01948
781.791	44.09771
782.209	-28.06231
782.627	-13.03385
783.045	-19.04257
783.462	-12.03025
783.88	-14.03586
784.297	24.05921
784.715	7.01779
785.132	-22.05223
785.549	-20.04933
785.966	27.06653
786.383	51.12302
786.8	11.02501
787.217	44.10277
787.633	-5.01243
788.05	35.07916
788.466	1.00228
788.883	-12.03048
789.299	-62.14618
789.715	43.10235
790.131	17.04143
790.547	-4.0098
790.963	-20.04884
791.379	-7.01743
791.795	27.0593
792.21	4.00909
792.626	-43.09994
793.041	-2.00483
793.457	-22.05318
793.872	-55.12688
794.287	-11.02627
794.702	-22.05243
795.117	14.03425
795.532	3.00745
795.947	-4.00929
796.362	-40.09211
796.776	-14.03148
797.191	-6.01445
797.605	-20.04686
798.02	-43.10321
798.434	34.07343
798.848	37.09009
799.262	-17.0415
799.676	36.08541
800.09	-16.03865
800.504	-36.08564
800.918	-33.07445
801.331	-33.08325
801.745	-62.14003
802.158	-16.03891
802.572	33.07779
802.985	-27.06347
803.398	-16.03728
803.811	-39.0967
804.224	-58.14078
804.637	-28.06592
805.05	-40.09045
805.462	-18.04312
805.875	-32.08213
806.288	-33.07897
806.7	-48.11777
807.112	-26.05855
807.525	-42.10037
807.937	-37.0904
808.349	13.03152
808.761	31.07447
809.173	-20.0478
809.584	-24.05786
809.996	-1.00239
810.408	-4.01025
810.819	23.05268
811.231	31.08104
811.642	40.09676
812.053	24.05711
812.464	-38.08852
812.875	-9.02268
813.286	20.05074
813.697	-37.08263
814.108	-27.06436
814.519	49.10634
814.929	39.0962
815.34	-7.01641
815.75	-27.06809
816.16	-61.14809
816.571	-51.13027
816.981	-39.08925
817.391	-53.12479
817.801	-11.02687
818.211	-47.10989
818.62	-22.05221
819.03	8.01904
819.44	-24.06041
819.849	-55.13512
820.259	-21.05209
820.668	-7.01691
821.077	12.02934
821.486	-17.03947
821.895	-37.08834
822.304	-8.02072
822.713	-23.05295
823.122	-35.08557
823.531	-78.17997
823.939	12.02859
824.348	-9.02121
824.756	-40.09785
825.164	9.02193
825.573	-31.07641
825.981	1.0024
826.389	-30.07374
826.797	27.06692
827.205	6.0135
827.612	12.02861
828.02	-62.1426
828.428	6.01487
828.835	-12.03118
829.243	-21.0485
829.65	-13.03188
830.057	-23.05428
830.464	-1.00241
830.871	-17.03993
831.278	-36.08537
831.685	-25.05414
832.092	-35.08308
832.499	3.0064
832.905	14.03421
833.312	-73.16073
833.718	13.03174
834.124	18.03992
834.531	-27.06594
834.937	25.06255
835.343	-41.09609
835.749	-51.11502
836.155	-25.06422
836.561	27.06444
836.966	12.02836
837.372	7.01725
837.777	-36.08833
838.183	-15.03222
838.588	4.00974
838.993	1.00237
839.399	-6.01437
839.804	-64.15412
840.209	9.0226
840.613	-8.01724
841.018	-44.1088
841.423	-23.05784
841.828	-5.01241
842.232	-11.02607
842.637	3.00696
843.041	-43.10895
843.445	-29.07064
843.849	-21.05106
844.253	-3.0069
844.657	-23.05709
845.061	61.13515
845.465	-33.07806
845.869	29.065
846.272	-31.07432
846.676	-58.13526
847.079	-23.05776
847.483	49.11748
847.886	1.00234
848.289	-20.05306
848.692	-12.02944
849.095	-26.06068
849.498	-5.01215
849.901	-17.03757
850.304	5.01158
850.707	-5.01238
851.109	-13.0319
851.512	-17.0409
851.914	-29.07217
852.316	33.08179
852.718	-3.00777
853.121	-1.00239
853.523	-25.05654
853.925	-7.01804
854.326	4.0098
854.728	-6.01512
855.13	-35.08956
855.531	-15.03503
855.933	27.06191
856.334	-9.02208
856.736	-6.01318
857.137	18.04087
857.538	28.06875
857.939	44.10656
858.34	-22.05171
858.741	-22.05609
859.142	-19.04421
859.542	-16.04164
859.943	14.03373
860.343	-21.05119
860.744	36.08472
861.144	-3.00719
861.544	-6.01425
861.945	-8.01985
862.345	5.0118
862.745	9.0219
863.145	-30.06856
863.544	-14.03466
863.944	0
864.344	-30.07183
864.743	11.02642
865.143	10.02522
865.542	-30.0669
865.941	19.04576
866.34	-9.02066
866.74	18.0471
867.139	18.04234
867.537	-25.06156
867.936	-8.01882
868.335	-34.0845
868.734	-17.04254
869.132	-33.07379
869.531	-10.02321
869.929	13.02879
870.327	-14.03266
870.726	-14.03364
871.124	-17.03829
871.522	-38.09451
871.92	-16.03847
872.318	-56.13332
872.715	-34.08097
873.113	-12.02828
873.511	-23.05573
873.908	-15.03763
874.306	-9.022
874.703	-28.06773
875.1	-47.11619
875.497	-16.03717
875.894	14.03392
876.291	5.01194
876.688	-29.07335
877.085	-13.0301
877.482	29.07014
877.878	7.01658
878.275	-45.11251
878.671	-41.08602
879.068	8.01869
879.464	-10.02349
879.86	-18.04142
880.256	-43.10211
880.652	-30.07461
881.048	-51.12251
881.444	-60.13789
881.84	-26.06448
882.236	-46.11324
882.631	5.01198
883.027	-26.06109
883.422	-55.13727
883.817	-45.11186
884.213	-26.06528
884.608	25.06069
885.003	-42.09814
885.398	-41.10065
885.793	-33.08062
886.188	-52.12659
886.582	-25.06203
886.977	-30.06889
887.371	-53.13059
887.766	-44.10796
888.16	-63.15174
888.554	-1.00238
888.949	9.02191
889.343	-17.04018
889.737	-9.02368
890.131	-10.02444
890.525	25.06239
890.918	19.04626
891.312	-2.00459
891.706	-3.00765
892.099	-6.01481
892.492	16.03292
892.886	-52.12436
893.279	-27.06704
893.672	-32.08031
894.065	19.04613
894.458	-61.14914
894.851	5.01178
895.244	-34.08493
895.637	13.03041
896.029	-30.07211
896.422	-11.02578
896.814	-44.10672
897.206	-10.02349
897.599	33.07861
897.991	8.01887
898.383	8.01833
898.775	19.04185
899.167	20.04574
899.559	-32.07843
899.951	-14.03172
900.342	-33.08122
900.734	2.00495
901.125	-42.1073
901.517	-2.00478
901.908	-32.0736
902.299	-21.05021
902.69	45.10298
903.082	26.06075
903.473	-16.03791
903.863	-19.04701
904.254	-17.03884
904.645	-29.06942
905.036	38.09057
905.426	-40.08779
905.817	-43.10247
906.207	-38.08733
906.597	31.07057
906.987	14.0349
907.378	-7.01734
907.768	-9.02331
908.158	-30.07117
908.547	-5.01278
908.937	-57.14179
909.327	3.00704
909.717	-22.05354
910.106	-2.00463
910.495	-13.03119
910.885	27.06633
911.274	-20.04864
911.663	-39.09592
912.052	-15.03555
912.441	-9.02248
912.83	-7.01543
913.219	6.0152
913.608	-30.07202
913.997	-16.0395
914.385	26.05987
914.774	-10.0236
915.162	-7.01639
915.55	-26.06075
915.939	-12.02976
916.327	-57.13838
916.715	16.0402
917.103	-50.11826
917.491	-6.01436
917.878	-4.00952
918.266	-12.0302
918.654	13.0325
919.041	34.08714
919.429	-19.04357
919.816	-43.10658
920.203	-3.00714
920.591	-21.05087
920.978	-27.06444
921.365	0
921.752	-46.10537
922.139	-53.11228
922.525	-13.03048
922.912	0
923.299	2.00483
923.685	-43.10895
924.072	-84.18545
924.458	-23.05584
924.844	-30.07252
925.231	-59.13306
925.617	2.005
926.003	12.02964
926.389	-47.11611
926.774	-37.09134
927.16	12.02879
927.546	37.09284
927.931	-3.00722
928.317	-18.03989
928.702	-45.10339
929.088	23.05373
929.473	-6.01499
929.858	-5.01197
930.243	-9.02122
930.628	20.04756
931.013	3.00723
931.398	-33.07244
931.783	-42.10719
932.167	20.0478
932.552	-46.11245
932.937	-25.06008
933.321	-2.00492
933.705	-64.15662
934.09	-34.08209
934.474	-1.00227
934.858	-35.08912
935.242	-37.08324
935.626	-9.02257
936.009	-26.06845
936.393	30.07491
936.777	-14.03519
937.16	14.03568
937.544	-6.01345
937.927	14.03466
938.311	-17.04003
938.694	16.04124
939.077	-15.03488
939.46	-57.1339
939.843	-47.09277
940.226	-60.15037
940.609	44.09808
940.991	-73.18173
941.374	-37.08895
941.757	-31.07427
942.139	-20.04377
942.522	-25.05703
942.904	-9.021
943.286	-44.10904
943.668	14.0356
944.05	12.02863
944.432	-17.04063
944.814	10.02357
945.196	-30.07197
945.578	0
945.959	-41.09262
946.341	-66.15573
946.722	-47.10699
947.104	-7.01623
947.485	-10.02256
947.866	-27.06702
948.247	-5.0124
948.628	-63.14753
949.009	-21.05249
949.39	-25.06021
949.771	-43.09499
950.152	4.00953
950.532	-31.07669
950.913	-30.07035
951.293	-21.05607
951.674	-30.07071
952.054	10.0245
952.434	6.01446
952.814	-47.10782
953.194	-20.05038
953.574	-29.06924
953.954	-51.11699
954.334	4.00977
954.714	-27.06449
955.093	-2.00476
955.473	-2.00492
955.853	-21.05311
956.232	-30.08049
956.611	-20.04593
956.99	-35.08637
957.37	-26.06419
957.749	-63.14469
958.128	-10.02468
958.506	-11.02788
958.885	-30.07361
959.264	31.0743
959.643	6.01327
960.021	-1.00242
960.4	-26.05709
960.778	-23.05424
961.156	-62.1519
961.535	-31.06946
961.913	42.09482
962.291	-20.05077
962.669	-13.03226
963.047	36.08924
963.424	-2.00504
963.802	-16.03837
964.18	16.03847
964.557	-8.01771
964.935	23.05238
965.312	-16.04092
965.69	-49.11887
966.067	-38.08914
966.444	-62.14675
966.821	37.09224
967.198	-31.07228
967.575	-10.02368
967.952	-20.04558
968.329	8.01896
968.705	50.10284
969.082	23.05798
969.458	-19.045
969.835	17.03993
970.211	41.10273
970.587	9.02175
970.963	-68.16992
971.339	-16.04099
971.715	10.02424
972.091	-36.08639
972.467	-46.11043
972.843	2.00488
973.219	-6.01379
973.594	-26.06652
973.97	-36.08104
974.345	9.02092
974.721	-53.12343
975.096	9.02125
975.471	7.01595
975.846	-1.00231
976.221	-35.08703
976.596	22.05179
976.971	21.05046
977.346	-67.15129
977.72	-30.07421
978.095	-17.0428
978.469	-14.03224
978.844	32.07703
979.218	-19.04502
979.593	-23.05325
979.967	-52.12136
980.341	6.0134
980.715	24.0586
981.089	-38.09282
981.463	-30.06693
981.837	27.06446
982.21	-58.128
982.584	-14.033
982.957	-24.05882
983.331	-55.12495
983.704	20.04811
984.078	-5.01193
984.451	-26.06185
984.824	-11.0262
985.197	-21.04873
985.57	-50.12063
985.943	-50.11835
986.316	-27.0634
986.688	4.0093
987.061	12.02722
987.434	36.09197
987.806	-70.16389
988.179	-30.0685
988.551	11.02688
988.923	-29.06911
989.295	-15.03621
989.667	-16.03774
990.039	23.05588
990.411	-55.12145
990.783	-42.09269
991.155	-19.0446
991.527	-6.01401
991.898	7.01699
992.27	-15.03647
992.641	-13.03146
993.012	-38.08456
993.384	-24.05529
993.755	0
994.126	28.06545
994.497	-31.07418
994.868	-21.04612
995.239	-23.05399
995.61	19.04628
995.98	-63.14966
996.351	8.01933
996.722	35.07887
997.092	-22.0509
997.462	-29.06677
997.833	-34.0776
998.203	-20.04631
998.573	27.06515
998.943	-14.03201
999.313	-2.00467
999.683	23.05337
1000.053	-70.15364
1000.423	-33.07743
1000.792	-56.1407
1001.162	-48.11458
1001.531	11.02627
1001.901	-34.08218
1002.27	-49.10417
1002.639	-60.14917
1003.009	-27.06221
1003.378	23.05699
1003.747	-70.1608
1004.116	-34.07901
1004.485	-5.01155
1004.853	-66.1617
1005.222	-72.17489
1005.591	-39.08979
1005.959	-34.07478
1006.328	-33.07241
1006.696	-5.01162
1007.064	-62.15133
1007.433	-51.12358
1007.801	-52.12241
1008.169	-36.08771
1008.537	-32.06855
1008.905	-20.04554
1009.273	-5.01186
1009.64	-14.03285
1010.008	-22.05076
1010.375	-22.05084
1010.743	-34.07362
1011.11	16.03725
1011.478	23.05533
1011.845	-13.02939
1012.212	2.00442
1012.579	-31.07427
1012.946	18.04069
1013.313	-28.06406
1013.68	0
1014.047	-20.04622
1014.414	-48.11031
1014.78	0
1015.147	-55.12819
1015.513	-53.12474
1015.88	-13.03206
1016.246	7.01646
1016.612	-4.00874
1016.978	-10.02393
1017.344	-3.0072
1017.71	22.05125
1018.076	-5.01125
1018.442	-16.04021
1018.808	40.0972
1019.174	-40.09731
1019.539	-51.10903
1019.905	-10.02296
1020.27	-51.12274
1020.636	-20.0458
1021.001	3.00696
1021.366	-27.06335
1021.731	17.04295
1022.096	0
1022.461	21.04794
1022.826	-14.03252
1023.191	0
1023.556	12.02689
1023.92	-24.05674
1024.285	-7.01634
1024.649	-42.09964
1025.014	20.04714
1025.378	15.03672
1025.742	-61.14692
1026.107	-30.06546
1026.471	2.00447
1026.835	-18.04335
1027.199	-60.14163
1027.562	-41.09156
1027.926	-12.02824
1028.29	0
1028.654	22.04829
1029.017	-30.072
1029.381	6.01389
1029.744	-16.03974
1030.107	38.08607
1030.471	-16.03736
1030.834	-50.10868
1031.197	53.12182
1031.56	-43.09813
1031.923	-48.12181
1032.286	-13.02951
1032.648	-66.15198
1033.011	-7.01576
1033.374	-22.04946
1033.736	-43.11092
1034.099	-14.03312
1034.461	1.00247
1034.823	-18.04379
1035.185	-29.07038
1035.548	9.02126
1035.91	-18.04168
1036.272	3.00661
1036.634	23.05411
1036.995	-35.07919
1037.357	-39.09301
1037.719	-31.07347
1038.08	21.04839
1038.442	-36.0829
1038.803	-96.22282
1039.165	-66.16248
1039.526	-37.08712
1039.887	-45.10476
1040.248	0
1040.609	-38.0904
1040.97	-1.00235
1041.331	2.00495
1041.692	-18.04151
1042.053	14.03036
1042.413	9.02002
1042.774	-15.03546
1043.134	-16.03633
1043.495	-13.03171
1043.855	9.02132
1044.215	-34.08166
1044.576	3.00698
1044.936	12.02624
1045.296	-4.00967
1045.656	-19.0447
1046.016	-3.00695
1046.375	-13.03055
1046.735	1.00223
1047.095	0
1047.454	-65.13209
1047.814	-13.0303
1048.173	-22.05011
1048.533	-33.0733
1048.892	-58.13675
1049.251	-9.02173
1049.61	8.01905
1049.969	6.01357
1050.328	-7.01458
1050.687	-2.00467
1051.046	-44.10394
1051.405	-48.11537
1051.763	-30.06773
1052.122	-61.1487
1052.48	-12.02862
1052.839	-28.06509
1053.197	-19.04324
1053.555	-26.05593
1053.914	5.01176
1054.272	-109.25385
1054.63	-21.05
1054.988	14.03237
1055.345	-53.10894
1055.703	-27.06323
1056.061	15.03782
1056.419	67.16933
1056.776	-75.17494
1057.134	-65.14401
1057.491	-4.00971
1057.848	-38.09158
1058.206	-71.16045
1058.563	-49.10448
1058.92	-25.05546
1059.277	20.04752
1059.634	-36.08094
1059.991	39.08975
1060.348	5.01092
1060.704	10.02355
1061.061	-19.04176
1061.418	-34.08035
1061.774	-28.06725
1062.131	-6.0157
1062.487	-77.17508
1062.843	17.04085
1063.199	-12.02897
1063.555	43.09618
1063.911	-56.13745
1064.267	-10.01963
1064.623	-19.04535
1064.979	-51.11304
1065.335	-26.05966
1065.691	-26.05944
1066.046	-34.07204
1066.402	-33.07208
1066.757	-46.11353
1067.112	-23.05451
1067.468	18.0415
1067.823	-39.08914
1068.178	-32.07463
1068.533	25.05822
1068.888	-9.02065
1069.243	-38.0914
1069.598	-29.06794
1069.952	2.00444
1070.307	-29.07027
1070.662	5.01161
1071.016	26.05666
1071.371	-17.03759
1071.725	-77.17855
1072.079	26.06023
1072.434	-20.04736
1072.788	-87.20029
1073.142	41.09688
1073.496	-45.1036
1073.85	-25.05597
1074.203	7.01641
1074.557	6.01571
1074.911	35.07932
1075.265	-33.0743
1075.618	23.05409
1075.971	7.01601
1076.325	6.0149
1076.678	-38.08442
1077.031	-51.1096
1077.385	11.02308
1077.738	-22.04782
1078.091	-63.14121
1078.444	-43.09563
1078.796	31.07364
1079.149	-8.01933
1079.502	-9.02072
1079.855	-37.08392
1080.207	-22.05239
1080.56	25.06289
1080.912	-10.0235
1081.264	8.01866
1081.617	-6.01421
1081.969	-11.02713
1082.321	-43.10188
1082.673	6.01341
1083.025	-31.07086
1083.377	0
1083.728	-14.03135
1084.08	-23.0554
1084.432	-57.13358
1084.783	-39.08677
1085.135	-16.03916
1085.486	-13.02892
1085.838	56.1325
1086.189	11.026
1086.54	4.00916
1086.891	4.01
1087.242	45.10703
1087.593	-50.1167
1087.944	12.02634
1088.295	-1.00218
1088.646	29.06897
1088.996	-45.10641
1089.347	-53.1261
1089.698	-40.09314
1090.048	-8.02006
1090.398	-33.0736
1090.749	-39.08979
1091.099	-1.00247
1091.449	-4.0097
1091.799	-8.01941
1092.149	-13.03124
1092.499	-2.00472
1092.849	17.04184
1093.199	-1.0024
1093.548	17.03981
1093.898	-35.08494
1094.248	-28.06936
1094.597	0
1094.947	10.02598
1095.296	14.03357
1095.645	-10.02517
1095.994	-10.02323
1096.343	0
1096.692	14.03632
1097.041	14.03749
1097.39	-47.1144
1097.739	-2.00504
1098.088	-34.08845
1098.437	-7.01819
1098.785	-24.06269
1099.134	-39.09958
1099.482	11.02958
1099.83	-8.02047
1100.179	45.11555
1100.527	-33.08471
1100.875	22.05686
1101.223	-5.01303
1101.571	-57.15451
1101.919	13.03377
1102.267	3.00833
1102.615	-4.01286
1102.962	-5.01605
1103.31	1.00321
1103.658	-15.04818
