Data from N1 R1 sample 10_Subt2__1__11-25-47-365.txt Node

Date: Wed Sep 17 11:25:47 PDT 2025
User: uwsun
Spectrometer: HDX01956
Trigger mode: 0
Integration Time (sec): 5.000000E-1
Scans to average: 1
Nonlinearity correction enabled: true
Boxcar width: 0
Storing dark spectrum: false
XAxis mode: Wavelengths
Number of Pixels in Spectrum: 2068
>>>>>Begin Spectral Data<<<<<
194.03	-7.02034
194.578	3.00975
195.127	-2.00641
195.676	-1.00322
196.225	-33.08861
196.773	-27.07577
197.321	-32.09004
197.87	-12.03151
198.418	-7.01849
198.966	34.09116
199.513	-33.08651
200.061	-24.06278
200.609	-18.04872
201.156	-71.16261
201.704	-3.00775
202.251	51.13753
202.798	-32.08538
203.345	-3.00763
203.892	11.02846
204.438	-23.05632
204.985	-44.1084
205.532	-43.11652
206.078	-36.09084
206.624	39.09983
207.17	49.11726
207.716	67.16691
208.262	-32.06623
208.808	19.04887
209.354	34.08591
209.899	-31.08043
210.445	-28.07229
210.99	-7.01759
211.535	-23.05607
212.08	-12.02874
212.625	-3.00769
213.17	2.00523
213.715	-11.02598
214.259	20.04791
214.804	-30.07586
215.348	22.05219
215.892	24.05965
216.436	-33.07797
216.98	-24.05454
217.524	19.04656
218.068	25.06442
218.612	49.1267
219.155	18.04359
219.698	-10.02447
220.242	-10.02531
220.785	25.06005
221.328	-29.07371
221.871	50.12926
222.414	21.0529
222.956	-48.11856
223.499	-63.14591
224.041	-14.03285
224.583	-49.10716
225.126	-10.02255
225.668	-18.04485
226.21	2.00517
226.751	-6.01374
227.293	-42.09806
227.835	-11.02761
228.376	-4.00931
228.918	-73.18778
229.459	-15.03832
230	12.02942
230.541	-22.05199
231.082	13.03228
231.622	-70.16421
232.163	5.0123
232.704	37.09398
233.244	-11.02791
233.784	-42.10465
234.324	66.1504
234.864	-26.06042
235.404	-40.09691
235.944	-25.06042
236.484	34.08607
237.023	-30.07265
237.563	-8.01907
238.102	14.03375
238.641	-20.0514
239.18	-17.04096
239.719	10.02549
240.258	5.01149
240.797	22.0535
241.335	-5.01242
241.874	5.01003
242.412	53.1304
242.95	-7.01732
243.488	4.00918
244.026	12.02852
244.564	-14.02972
245.102	-24.05604
245.64	5.01217
246.177	-38.08708
246.715	14.03429
247.252	-12.02792
247.789	14.02666
248.326	-4.00987
248.863	11.02479
249.4	5.01159
249.936	47.10031
250.473	10.02416
251.009	-24.0565
251.546	18.04112
252.082	-36.08028
252.618	-22.05068
253.154	-22.05436
253.69	-21.04844
254.226	26.06337
254.761	7.01608
255.297	-5.01121
255.832	-45.11043
256.367	15.03595
256.903	21.04773
257.438	25.05964
257.972	-30.06889
258.507	-36.08511
259.042	-21.04709
259.576	29.06556
260.111	-28.06615
260.645	7.0155
261.179	38.0905
261.713	-31.07165
262.247	-31.07288
262.781	1.00217
263.315	8.01978
263.849	20.05095
264.382	20.04684
264.915	33.07948
265.449	-8.01998
265.982	-39.09147
266.515	29.07232
267.048	-13.02841
267.58	-6.01329
268.113	-37.0828
268.646	-13.03255
269.178	-5.01147
269.71	43.09686
270.243	69.16177
270.775	54.14018
271.307	-30.07328
271.838	-12.02904
272.37	-20.05023
272.902	17.03931
273.433	40.09038
273.965	-21.05233
274.496	32.08049
275.027	17.04312
275.558	-6.015
276.089	25.06357
276.62	-37.09574
277.15	-16.04029
277.681	-16.03546
278.211	18.04469
278.741	-57.13154
279.272	32.07466
279.802	-41.10488
280.332	6.0145
280.861	-36.08859
281.391	9.02094
281.921	-13.03184
282.45	-37.09428
282.98	28.07406
283.509	62.14311
284.038	17.03979
284.567	19.04521
285.096	31.07655
285.625	-16.03703
286.153	7.01713
286.682	21.04933
287.21	-27.06609
287.739	1.00242
288.267	20.04969
288.795	-5.01332
289.323	-24.05808
289.851	36.0863
290.378	-22.05056
290.906	6.01502
291.433	3.00764
291.961	16.03745
292.488	-31.07902
293.015	44.10571
293.542	82.21258
294.069	47.11828
294.596	-13.03256
295.122	51.12427
295.649	9.02021
296.175	22.05398
296.702	67.16588
297.228	-16.03955
297.754	6.01386
298.28	31.07291
298.806	30.07369
299.332	-4.00923
299.857	10.02333
300.383	-11.02833
300.908	8.02014
301.433	50.12454
301.958	29.06791
302.483	29.07316
303.008	53.13381
303.533	-8.0211
304.058	-5.01197
304.582	-13.03162
305.107	1.00266
305.631	59.13594
306.155	-4.00958
306.679	30.07211
307.203	0
307.727	25.06055
308.251	46.11537
308.775	84.20671
309.298	6.01484
309.822	-16.04125
310.345	12.02941
310.868	35.08615
311.391	1.00252
311.914	44.11209
312.437	39.09111
312.96	56.13424
313.482	-6.0145
314.005	18.04586
314.527	11.02917
315.049	54.13873
315.571	18.04166
316.093	28.07078
316.615	-2.00493
317.137	10.02247
317.659	27.06682
318.18	-26.06393
318.702	27.06483
319.223	-30.06379
319.744	23.05321
320.265	40.09945
320.786	51.12967
321.307	53.13309
321.828	11.02556
322.348	48.11528
322.869	64.15517
323.389	221.42923
323.909	13.03055
324.43	23.05628
324.95	19.04472
325.47	60.15129
325.989	27.06567
326.509	68.15546
327.029	64.1492
327.548	10.02337
328.067	8.01996
328.587	38.09729
329.106	19.04406
329.625	22.05842
330.144	32.07639
330.662	55.13197
331.181	39.09429
331.7	17.04063
332.218	42.09373
332.736	44.10547
333.255	78.1869
333.773	10.02431
334.291	62.15778
334.808	67.15437
335.326	37.08542
335.844	32.07735
336.361	73.19078
336.879	90.21533
337.396	46.11462
337.913	50.11844
338.43	77.17727
338.947	67.16326
339.464	9.02016
339.981	-2.0049
340.497	44.11055
341.014	64.159
341.53	28.06512
342.046	112.2827
342.562	76.19238
343.078	100.23889
343.594	62.15054
344.11	128.30939
344.626	71.18225
345.141	93.21667
345.657	61.14156
346.172	95.2327
346.687	53.12474
347.202	94.21887
347.717	61.1487
348.232	67.16993
348.747	97.22804
349.261	100.2241
349.776	84.2035
350.29	114.28847
350.805	80.20092
351.319	48.11453
351.833	103.24129
352.347	81.19509
352.861	83.19869
353.374	86.19953
353.888	114.28208
354.401	38.08911
354.915	100.23045
355.428	92.23264
355.941	63.15024
356.454	89.2022
356.967	52.12436
357.48	77.17848
357.993	93.23202
358.505	78.19301
359.018	132.32602
359.53	80.1989
360.042	69.1586
360.554	133.32831
361.066	68.16869
361.578	176.39099
362.09	106.25583
362.602	65.14899
363.113	156.36952
363.625	130.29911
364.136	101.22638
364.647	84.20312
365.158	119.28074
365.669	108.26145
366.18	81.19442
366.691	92.20609
367.201	159.38251
367.712	116.26978
368.222	136.31679
368.733	48.10783
369.243	159.35858
369.753	146.33941
370.263	163.39495
370.773	111.2732
371.282	176.42091
371.792	165.38441
372.301	91.22323
372.811	193.5028
373.32	173.37738
373.829	142.33727
374.338	118.26661
374.847	154.358
375.356	145.34419
375.865	222.47491
376.373	171.39069
376.882	157.39777
377.39	203.48705
377.898	161.39611
378.407	243.54622
378.915	232.50467
379.423	217.50116
379.93	313.70902
380.438	194.46396
380.946	281.64094
381.453	270.63581
381.96	336.77733
382.468	263.60811
382.975	367.86501
383.482	301.65851
383.989	387.95198
384.495	396.88441
385.002	372.75234
385.509	417.94723
386.015	519.98788
386.521	502.06494
387.028	507.07159
387.534	470.94357
388.04	582.28429
388.546	510.0452
389.051	637.26388
389.557	633.32258
390.063	591.21342
390.568	672.44538
391.073	717.40366
391.578	760.62924
392.084	812.59405
392.589	894.62684
393.093	891.81137
393.598	1021.92463
394.103	1045.03479
394.607	1202.28665
395.112	1274.44264
395.616	1322.47201
396.12	1447.44127
396.624	1576.67822
397.128	1706.88848
397.632	1835.92202
398.136	2010.96496
398.639	2292.21403
399.143	2618.61038
399.646	2893.40871
400.15	3232.28884
400.653	3632.08491
401.156	4128.81505
401.659	4824.97173
402.162	6219.94199
402.664	9687.20136
403.167	20113.46459
403.67	58602.30476
404.172	63587.61751
404.674	63858.43483
405.176	63738.15102
405.678	63977.72923
406.18	64011.81569
406.682	63863.44694
407.184	63926.60148
407.686	29604.53312
408.187	17752.61208
408.688	11904.4594
409.19	9501.48569
409.691	7984.43712
410.192	6908.05395
410.693	6186.58061
411.194	5817.98246
411.694	5427.48955
412.195	4954.12331
412.696	4741.75986
413.196	4661.08223
413.696	4611.94928
414.196	4507.46226
414.696	4307.34246
415.196	3827.14205
415.696	2998.11649
416.196	2364.22607
416.695	2178.16205
417.195	2012.14344
417.694	1916.5419
418.194	1771.49198
418.693	1719.71531
419.192	1605.71552
419.691	1582.64417
420.19	1590.76406
420.688	1514.74812
421.187	1364.05136
421.685	1292.31539
422.184	1096.09356
422.682	943.70365
423.18	821.62046
423.678	740.47711
424.176	683.378
424.674	696.36153
425.172	603.2754
425.669	594.31517
426.167	521.10652
426.664	485.01426
427.161	471.00145
427.659	414.94327
428.156	482.94757
428.652	375.8962
429.149	376.86501
429.646	336.71596
430.143	335.76748
430.639	332.75251
431.135	327.78301
431.632	253.56262
432.128	264.61491
432.624	303.752
433.12	227.50649
433.616	266.56608
434.111	216.50213
434.607	200.46989
435.103	163.33881
435.598	204.4175
436.093	161.3708
436.588	219.48217
437.083	141.31409
437.578	209.47403
438.073	154.38091
438.568	191.4614
439.062	136.28981
439.557	99.23129
440.051	77.17394
440.546	114.2582
441.04	153.3629
441.534	153.3799
442.028	139.33148
442.522	94.22524
443.015	74.15961
443.509	93.2256
444.002	119.28889
444.496	59.12903
444.989	73.17722
445.482	100.24626
445.975	107.24644
446.468	92.19945
446.961	132.28458
447.454	64.14425
447.947	73.17442
448.439	130.31541
448.931	102.23337
449.424	141.3538
449.916	107.25927
450.408	95.2167
450.9	56.13633
451.392	63.15985
451.884	51.11784
452.375	76.18764
452.867	110.24569
453.358	29.06709
453.849	54.11632
454.341	74.16727
454.832	5.01099
455.323	100.24726
455.814	30.06922
456.304	34.07926
456.795	55.12607
457.285	51.1129
457.776	64.14608
458.266	66.15658
458.756	-4.00957
459.247	20.04822
459.737	74.1786
460.226	102.23112
460.716	41.09838
461.206	80.1906
461.695	43.10642
462.185	65.15418
462.674	55.12602
463.163	71.15927
463.653	44.09437
464.142	30.07303
464.63	54.13077
465.119	27.0632
465.608	60.14059
466.096	-9.01986
466.585	43.09856
467.073	3.00715
467.561	19.04585
468.05	38.08782
468.538	49.11962
469.026	-3.00719
469.513	33.07018
470.001	74.16945
470.489	32.07636
470.976	81.18834
471.463	64.15865
471.951	30.07467
472.438	22.05195
472.925	12.02847
473.412	48.11633
473.899	11.02545
474.385	7.01725
474.872	5.01176
475.359	44.10816
475.845	-5.01052
476.331	7.01508
476.817	50.1215
477.303	-22.05187
477.789	-6.01443
478.275	8.01996
478.761	11.02628
479.247	-21.04757
479.732	-9.02265
480.218	38.09946
480.703	2.00496
481.188	17.03715
481.673	26.06009
482.158	-20.04399
482.643	47.1198
483.128	62.14431
483.612	84.19882
484.097	-42.10286
484.581	-6.01404
485.066	52.12716
485.55	-7.0157
486.034	-35.07742
486.518	48.11493
487.002	-28.06893
487.486	-10.0245
487.969	-25.06149
488.453	-21.05279
488.936	0
489.42	-27.06077
489.903	-19.04775
490.386	-65.13818
490.869	45.09891
491.352	1.00242
491.835	-27.05635
492.318	-6.01365
492.8	-34.07195
493.283	-4.01028
493.765	-48.1196
494.247	12.02813
494.73	-17.0382
495.212	-63.15237
495.694	23.05449
496.175	0
496.657	29.06889
497.139	-38.0671
497.62	-7.01701
498.102	-25.06298
498.583	-54.13484
499.064	-53.1208
499.545	28.06412
500.026	5.01143
500.507	-17.03965
500.988	41.10247
501.469	-53.13424
501.949	-12.02991
502.43	-51.1252
502.91	37.07896
503.39	-41.1031
503.87	11.0262
504.35	-28.06645
504.83	-5.01107
505.31	-32.07822
505.79	-74.17894
506.269	-64.15019
506.749	-73.17095
507.228	-46.11031
507.707	-19.04306
508.187	-31.0752
508.666	-18.04511
509.145	-12.0284
509.623	-29.06895
510.102	-25.06128
510.581	-4.00975
511.059	-9.02287
511.538	-13.03381
512.016	-6.01453
512.494	-5.01213
512.972	-13.0315
513.45	-36.08544
513.928	-40.09887
514.406	26.06403
514.884	-2.0052
515.361	-17.04121
515.839	2.00466
516.316	23.05619
516.793	-33.08444
517.27	-48.11755
517.747	-31.0806
518.224	-68.16045
518.701	-45.10157
519.178	-31.07868
519.654	5.01195
520.131	-26.06528
520.607	-31.07683
521.083	-80.1862
521.56	-38.09112
522.036	-88.19753
522.512	-15.03748
522.987	11.02671
523.463	-30.07224
523.939	31.07723
524.414	-88.20716
524.89	-12.029
525.365	-45.10377
525.84	-74.18217
526.315	-15.0368
526.79	-12.02746
527.265	53.1226
527.74	-75.1863
528.215	-68.16238
528.689	-75.16901
529.164	-88.19469
529.638	-75.19413
530.112	-57.13692
530.587	-30.06548
531.061	-26.06386
531.534	3.0073
532.008	5.01227
532.482	-47.11028
532.956	-60.15592
533.429	8.01974
533.903	-22.04904
534.376	-36.08117
534.849	-49.11501
535.322	-18.04307
535.795	-51.12553
536.268	-25.06142
536.741	-24.05782
537.213	-16.03731
537.686	-38.09455
538.158	10.02298
538.631	-44.10852
539.103	-26.05977
539.575	-9.01883
540.047	-36.08011
540.519	2.00483
540.991	29.07104
541.463	-16.039
541.934	-47.10851
542.406	-24.05856
542.877	-24.05511
543.348	-7.01711
543.82	2.00491
544.291	63.14701
544.762	26.0623
545.233	14.03574
545.703	10.02251
546.174	-4.0094
546.645	7.01711
547.115	8.01951
547.585	51.1176
548.056	55.13547
548.526	10.024
548.996	12.02896
549.466	55.13382
549.935	86.20474
550.405	38.08411
550.875	78.18483
551.344	13.0313
551.814	75.1717
552.283	135.29099
552.752	105.24453
553.221	107.23489
553.69	159.35345
554.159	124.30548
554.628	186.41252
555.096	171.42675
555.565	173.37482
556.033	225.52088
556.502	218.51097
556.97	185.40252
557.438	193.44219
557.906	244.55622
558.374	284.63116
558.842	284.65235
559.31	304.64863
559.777	353.81681
560.245	235.5213
560.712	301.6574
561.18	353.73633
561.647	357.745
562.114	345.74743
562.581	423.97136
563.048	449.95027
563.514	477.10502
563.981	432.9177
564.448	490.01138
564.914	510.07865
565.381	525.08837
565.847	534.12703
566.313	518.09225
566.779	555.12349
567.245	550.14918
567.711	539.17066
568.176	565.1375
568.642	597.35445
569.108	600.32461
569.573	619.27271
570.038	651.18716
570.504	680.34399
570.969	657.44545
571.434	696.34418
571.899	641.3476
572.363	740.46686
572.828	729.45277
573.293	739.46385
573.757	747.49903
574.222	688.34522
574.686	780.53763
575.15	780.61967
575.614	808.63166
576.078	748.51934
576.542	736.45009
577.006	777.50195
577.469	834.75265
577.933	792.54085
578.396	740.52287
578.86	781.5796
579.323	766.59764
579.786	804.47384
580.249	824.65413
580.712	756.59488
581.175	719.55286
581.637	660.32452
582.1	685.29855
582.563	676.24811
583.025	669.43985
583.487	681.21315
583.95	623.17679
584.412	661.21031
584.874	630.37062
585.336	618.30745
585.797	599.15737
586.259	570.19998
586.721	557.17951
587.182	577.19316
587.643	535.09974
588.105	493.06605
588.566	479.91084
589.027	573.26783
589.488	482.01354
589.949	475.06205
590.41	450.81636
590.87	496.03708
591.331	488.97473
591.791	416.89757
592.252	388.84756
592.712	366.82653
593.172	375.80131
593.632	426.87892
594.092	356.74737
594.552	345.70526
595.011	269.59174
595.471	365.77893
595.931	295.63639
596.39	362.82016
596.849	233.52524
597.308	259.53018
597.768	303.74815
598.227	264.6103
598.685	226.49914
599.144	249.56658
599.603	257.57863
600.062	211.43212
600.52	232.50746
600.978	212.48679
601.437	198.43877
601.895	242.50065
602.353	174.37432
602.811	259.56233
603.269	179.41637
603.727	198.46319
604.184	209.46324
604.642	178.42797
605.099	184.42013
605.557	184.43702
606.014	175.3691
606.471	152.37487
606.928	136.29862
607.385	208.50691
607.842	127.28794
608.299	165.37819
608.755	152.36185
609.212	155.33998
609.668	143.31802
610.125	165.3897
610.581	160.36798
611.037	110.24437
611.493	87.20205
611.949	173.41255
612.405	162.32388
612.861	81.18559
613.316	141.3325
613.772	81.18492
614.227	134.31753
614.683	106.22293
615.138	72.16844
615.593	108.24829
616.048	109.24703
616.503	70.16939
616.958	114.28219
617.412	128.2998
617.867	91.20254
618.321	122.24878
618.776	112.24416
619.23	55.12885
619.684	94.20822
620.138	68.15521
620.592	74.17867
621.046	115.26856
621.5	35.08446
621.954	72.15869
622.407	89.19546
622.861	79.19063
623.314	88.19777
623.768	67.15776
624.221	58.11429
624.674	44.1018
625.127	63.14608
625.58	56.1256
626.033	68.14818
626.485	20.04807
626.938	103.24261
627.39	90.20873
627.843	56.1289
628.295	88.20126
628.747	102.24058
629.199	47.10704
629.651	28.06445
630.103	69.15758
630.555	43.09077
631.006	52.1207
631.458	29.06842
631.909	37.083
632.361	38.08775
632.812	64.14755
633.263	73.15762
633.714	29.06165
634.165	42.1006
634.616	53.12494
635.067	53.1165
635.518	92.21582
635.968	32.06312
636.419	77.16711
636.869	53.12513
637.319	56.12957
637.769	96.21354
638.219	87.20325
638.669	-3.00718
639.119	20.04798
639.569	22.0529
640.019	86.19685
640.468	93.20631
640.918	61.14391
641.367	80.17765
641.816	76.16772
642.265	111.25534
642.714	56.12797
643.163	50.11537
643.612	111.26825
644.061	61.13007
644.51	69.15733
644.958	58.12773
645.406	54.1286
645.855	50.121
646.303	83.19009
646.751	94.21524
647.199	67.15104
647.647	93.21368
648.095	76.172
648.543	120.23935
648.99	101.23966
649.438	65.14947
649.885	160.38965
650.333	131.24945
650.78	91.21759
651.227	126.30307
651.674	121.27166
652.121	99.23998
652.568	108.26095
653.015	88.21535
653.461	93.21863
653.908	84.19103
654.354	132.30832
654.801	84.19512
655.247	112.23877
655.693	95.24402
656.139	117.27462
656.585	130.3046
657.031	113.26161
657.477	100.21587
657.922	79.17795
658.368	116.28039
658.813	119.26585
659.259	91.21818
659.704	161.37243
660.149	96.21858
660.594	121.28224
661.039	113.25349
661.484	173.39844
661.929	164.37326
662.373	63.157
662.818	124.30108
663.262	165.3888
663.707	144.35853
664.151	131.31312
664.595	159.3751
665.039	150.36366
665.483	132.32925
665.927	141.32357
666.371	121.27979
666.814	137.31855
667.258	231.5354
667.701	168.34787
668.145	199.47927
668.588	197.47266
669.031	132.3042
669.474	161.37627
669.917	128.27477
670.36	229.55005
670.803	218.50757
671.245	114.22897
671.688	165.39076
672.13	208.45362
672.573	164.40327
673.015	196.45725
673.457	159.33668
673.899	182.42693
674.341	203.47219
674.783	167.38922
675.225	166.3976
675.666	228.53671
676.108	213.44234
676.549	166.37567
676.991	217.45728
677.432	173.33215
677.873	163.36159
678.314	178.41069
678.755	254.59907
679.196	159.35345
679.637	182.42176
680.078	242.54051
680.518	222.48887
680.959	193.44379
681.399	195.46644
681.839	215.50207
682.28	248.58991
682.72	211.46377
683.16	227.54421
683.6	271.58487
684.039	203.40218
684.479	218.51796
684.919	263.58923
685.358	233.55604
685.798	208.52237
686.237	271.61389
686.676	183.3997
687.115	242.54475
687.554	253.57755
687.993	264.55375
688.432	256.55546
688.871	279.60575
689.309	311.70306
689.748	262.5153
690.186	231.51648
690.625	242.54274
691.063	256.58145
691.501	373.85965
691.939	317.75328
692.377	241.55813
692.815	333.76473
693.253	282.63504
693.69	331.67541
694.128	245.56785
694.565	314.69898
695.003	340.81645
695.44	288.64483
695.877	295.65493
696.314	202.40703
696.751	286.61075
697.188	309.67316
697.625	305.6396
698.061	292.65998
698.498	296.65892
698.934	274.62006
699.371	303.67101
699.807	350.76942
700.243	323.73107
700.679	239.5063
701.115	343.74532
701.551	303.66093
701.987	323.65669
702.422	320.71647
702.858	334.74504
703.294	350.74612
703.729	338.76829
704.164	286.64405
704.599	364.75169
705.035	326.68198
705.47	339.76884
705.904	333.71897
706.339	362.76935
706.774	399.8596
707.209	355.76745
707.643	333.74419
708.078	368.8307
708.512	307.72503
708.946	341.752
709.38	376.82656
709.814	367.76655
710.248	343.78328
710.682	375.83458
711.116	388.87441
711.549	282.68106
711.983	325.7002
712.416	396.86577
712.85	321.74485
713.283	345.75731
713.716	333.77116
714.149	289.62826
714.582	336.70103
715.015	285.65871
715.448	359.84221
715.881	304.60749
716.313	333.7239
716.746	315.69758
717.178	265.60274
717.61	330.78642
718.043	242.56789
718.475	356.80231
718.907	285.67073
719.339	236.5077
719.77	281.63447
720.202	256.60776
720.634	282.6532
721.065	255.56801
721.497	265.61346
721.928	185.43405
722.359	238.5513
722.79	261.59076
723.221	230.54331
723.652	239.57756
724.083	227.48403
724.514	243.52826
724.945	191.42793
725.375	210.46846
725.806	168.3984
726.236	245.59473
726.666	267.59277
727.096	192.44968
727.526	232.57024
727.956	165.36282
728.386	201.47085
728.816	198.48632
729.246	231.54282
729.675	124.29327
730.105	179.41981
730.534	192.42725
730.964	181.43295
731.393	169.3976
731.822	209.51059
732.251	174.42469
732.68	135.30147
733.109	154.36647
733.537	205.47928
733.966	197.47122
734.395	134.29942
734.823	121.25846
735.251	138.32018
735.68	131.31228
736.108	108.26223
736.536	107.24309
736.964	104.23402
737.392	122.29545
737.82	109.25235
738.247	128.29462
738.675	126.28585
739.102	87.21168
739.53	116.29029
739.957	114.28714
740.384	64.15066
740.811	61.14853
741.238	133.31583
741.665	124.28257
742.092	-41.09401
742.519	86.20858
742.945	126.29696
743.372	103.2492
743.798	51.12816
744.225	35.08141
744.651	105.25509
745.077	74.18029
745.503	43.10188
745.929	115.27046
746.355	66.15682
746.781	48.11563
747.207	61.14212
747.632	94.22781
748.058	157.38156
748.483	88.1968
748.908	31.07613
749.334	66.15941
749.759	54.12638
750.184	102.23928
750.609	29.06993
751.033	34.07789
751.458	76.16484
751.883	46.11098
752.307	33.07643
752.732	113.28109
753.156	51.12307
753.58	32.0741
754.005	12.0297
754.429	49.11416
754.853	46.11261
755.277	41.09575
755.7	75.18173
756.124	20.04907
756.548	2.00467
756.971	45.10773
757.394	-2.00506
757.818	27.06868
758.241	42.10495
758.664	-6.01502
759.087	2.00447
759.51	-7.01708
759.933	9.02155
760.356	30.07635
760.778	40.09654
761.201	26.06173
761.623	22.05143
762.046	4.00921
762.468	59.13784
762.89	17.04081
763.312	81.19331
763.734	43.10176
764.156	19.04625
764.578	29.06479
765	48.11458
765.421	15.03783
765.843	26.06696
766.264	21.04881
766.686	9.02199
767.107	3.00718
767.528	6.01526
767.949	5.01252
768.37	98.23617
768.791	5.0118
769.212	0
769.632	-22.05123
770.053	-53.13799
770.473	-31.0741
770.894	-11.0267
771.314	-41.09597
771.734	-3.0069
772.154	-2.00503
772.575	-17.0387
772.994	8.01781
773.414	-12.02814
773.834	1.00245
774.254	-46.11157
774.673	78.18583
775.093	38.09286
775.512	10.02434
775.931	16.03995
776.351	24.05889
776.77	30.07238
777.189	3.00702
777.607	-4.01008
778.026	22.05384
778.445	6.01504
778.864	-24.0601
779.282	-27.0636
779.701	-18.04462
780.119	-7.01753
780.537	-30.07391
780.955	-19.0474
781.373	-5.01217
781.791	19.04241
782.209	-26.05783
782.627	-19.04952
783.045	-15.03358
783.462	17.04263
783.88	24.06106
784.297	-30.07475
784.715	3.00763
785.132	-19.04508
785.549	-31.07661
785.966	-6.01487
786.383	-4.00975
786.8	9.02047
787.217	58.1351
787.633	2.00497
788.05	32.07242
788.466	7.01594
788.883	12.03036
789.299	-31.07265
789.715	31.07396
790.131	8.01953
790.547	-16.03927
790.963	-11.02681
791.379	-13.03241
791.795	-41.09133
792.21	-37.08481
792.626	-24.05557
793.041	-1.00242
793.457	-62.15099
793.872	-18.04122
794.287	44.10398
794.702	-29.06921
795.117	-25.0616
795.532	-16.03985
795.947	-56.13137
796.362	-32.07357
796.776	-13.02922
797.191	-5.01204
797.605	-12.02807
798.02	-23.055
798.434	34.07343
798.848	29.07072
799.262	-36.0882
799.676	25.05944
800.09	16.03841
800.504	-38.09043
800.918	-47.10634
801.331	-57.14442
801.745	-25.05604
802.158	-34.08296
802.572	-12.02854
802.985	2.00468
803.398	-3.00697
803.811	-42.10419
804.224	-24.05788
804.637	2.00468
805.05	-17.03826
805.462	-6.01434
805.875	-44.11316
806.288	-23.05493
806.7	-59.14506
807.112	-21.04724
807.525	-39.09315
807.937	11.02663
808.349	-10.02435
808.761	9.02171
809.173	10.02376
809.584	38.09053
809.996	-25.06003
810.408	2.00512
810.819	-45.10447
811.231	21.05499
811.642	26.06306
812.053	43.10196
812.464	-57.13327
812.875	-45.11414
813.286	-21.05366
813.697	10.02211
814.108	-2.00474
814.519	18.03932
814.929	16.03963
815.34	-15.03521
815.75	-5.01256
816.16	-49.11869
816.571	22.05547
816.981	-63.14487
817.391	-49.11528
817.801	-26.0637
818.211	-21.04885
818.62	-23.0546
819.03	5.01191
819.44	-32.08066
819.849	-33.08074
820.259	-9.02227
820.668	-24.05817
821.077	19.0464
821.486	-22.05112
821.895	-12.02851
822.304	-23.05972
822.713	-24.05527
823.122	-13.03165
823.531	-32.07316
823.939	-15.03592
824.348	-12.02829
824.756	34.08203
825.164	5.01219
825.573	-22.05414
825.981	-1.0024
826.389	-10.02449
826.797	40.09891
827.205	-26.05887
827.612	-38.09147
828.02	-72.16593
828.428	-9.02237
828.835	9.0233
829.243	-57.13259
829.65	-28.06885
830.057	-47.11144
830.464	13.0312
830.871	8.0187
831.278	-25.05916
831.685	-6.01294
832.092	-37.08786
832.499	-4.00855
832.905	-49.12114
833.312	-46.10071
833.718	-9.02206
834.124	-33.07397
834.531	1.00243
834.937	16.0401
835.343	-8.01863
835.749	1.00223
836.155	-2.00512
836.561	-37.08939
836.966	-19.04517
837.372	-25.06196
837.777	-34.08339
838.183	16.03414
838.588	-45.11055
838.993	24.05663
839.399	-28.06735
839.804	-74.17853
840.209	16.04013
840.613	2.0043
841.018	-18.0443
841.423	-25.06289
841.828	-28.06977
842.232	-22.05225
842.637	35.08064
843.041	10.0251
843.445	-43.10502
843.849	-23.05594
844.253	-30.06941
844.657	-31.07706
845.061	-10.02248
845.465	-19.04482
845.869	-34.0772
846.272	-18.04305
846.676	-27.06258
847.079	-8.02003
847.483	-5.01211
847.886	18.04198
848.289	-6.01588
848.692	-45.11109
849.095	-30.07007
849.498	-13.03164
849.901	-31.06871
850.304	-11.02555
850.707	-49.12229
851.109	-26.06396
851.512	-25.06024
851.914	-35.08719
852.316	25.06205
852.718	-8.02073
853.121	3.00715
853.523	-54.12286
853.925	-26.06724
854.326	-7.01719
854.728	-48.12185
855.13	-17.04336
855.531	-79.18681
855.933	-31.07191
856.334	-9.02208
856.736	-11.02419
857.137	-4.00912
857.538	-35.08694
857.939	22.0535
858.34	-45.10624
858.741	-25.06377
859.142	-94.22197
859.542	-39.10189
859.943	-26.06311
860.343	-44.10772
860.744	13.03073
861.144	33.07852
861.544	-23.05479
861.945	-42.10488
862.345	-23.0546
862.745	-16.03911
863.145	-28.06396
863.544	-7.01731
863.944	-6.01376
864.344	-34.08147
864.743	29.06942
865.143	-6.01518
865.542	-34.07588
865.941	7.0169
866.34	-26.05989
866.74	-1.00262
867.139	-4.00945
867.537	-42.10374
867.936	4.00939
868.335	-44.10955
868.734	-28.0702
869.132	-70.15771
869.531	-31.07225
869.929	-47.10539
870.327	-20.04672
870.726	-17.04087
871.124	-16.03603
871.522	-43.10704
871.92	30.0715
872.318	-54.12851
872.715	-44.10499
873.113	-23.05432
873.511	-29.07035
873.908	-15.03763
874.306	32.07764
874.703	-32.07747
875.1	-70.17378
875.497	2.00463
875.894	46.11077
876.291	-41.09875
876.688	-19.04797
877.085	-18.04171
877.482	-32.07828
877.878	28.06604
878.275	-9.02236
878.671	-41.08602
879.068	2.00468
879.464	-6.01408
879.86	1.00229
880.256	-6.01415
880.652	-23.05713
881.048	-24.05736
881.444	-45.1031
881.84	-30.07445
882.236	-53.13064
882.631	5.01198
883.027	-15.03517
883.422	-49.12216
883.817	2.00493
884.213	-13.03256
884.608	36.08722
885.003	-70.16447
885.398	-40.09818
885.793	-58.14236
886.188	-49.11922
886.582	-15.03715
886.977	7.01595
887.371	-3.00732
887.766	-42.10301
888.16	-47.11286
888.554	3.00714
888.949	25.06067
889.343	-19.04493
889.737	-28.07391
890.131	-25.06126
890.525	37.09214
890.918	-1.00244
891.312	-14.03219
891.706	-17.04347
892.099	15.03688
892.492	-31.06446
892.886	-16.038
893.279	-34.08453
893.672	-20.05009
894.065	-3.00731
894.458	-46.11215
894.851	4.00943
895.244	-43.10759
895.637	-9.02114
896.029	5.01194
896.422	-55.13
896.814	-27.06528
897.206	-19.0447
897.599	22.05252
897.991	-29.06889
898.383	-25.05767
898.775	61.13318
899.167	1.0023
899.559	22.05338
899.951	-29.06591
900.342	-43.10603
900.734	-24.05963
901.125	-34.08674
901.517	-49.11811
901.908	-39.08982
902.299	-37.08874
902.69	20.046
903.082	-15.03533
903.473	-10.02367
903.863	-39.09684
904.254	28.06339
904.645	-2.00476
905.036	1.0024
905.426	-40.08779
905.817	-37.08807
906.207	-29.06653
906.597	10.02286
906.987	-47.11845
907.378	41.10065
907.768	-6.01553
908.158	-25.05925
908.547	37.09385
908.937	-40.0992
909.327	-31.07325
909.717	-8.01942
910.106	-7.01623
910.495	-12.02879
910.885	15.03693
911.274	-12.02914
911.663	-9.02201
912.052	3.00709
912.441	-28.07017
912.83	-4.00881
913.219	-8.02032
913.608	-2.00478
913.997	9.02212
914.385	14.03232
914.774	-25.05916
915.162	6.01401
915.55	-58.13638
915.939	-14.03473
916.327	-36.08705
916.715	23.05771
917.103	-28.06594
917.491	-8.01915
917.878	37.08736
918.266	-44.11138
918.654	14.035
919.041	8.0206
919.429	-41.09443
919.816	-16.03946
920.203	4.0095
920.591	1.00241
920.978	-26.06204
921.365	-22.05668
921.752	-91.21034
922.139	-49.10371
922.525	-28.06584
922.912	-19.04489
923.299	-20.04853
923.685	-31.07838
924.072	-36.07868
924.458	-32.07782
924.844	-52.12621
925.231	-49.11028
925.617	-26.06537
926.003	-11.02728
926.389	-36.08875
926.774	-24.0591
927.16	10.024
927.546	5.01262
927.931	-33.07984
928.317	-43.09579
928.702	-3.00683
929.088	6.01406
929.473	-20.05009
929.858	-19.04561
930.243	23.05388
930.628	17.04045
931.013	-9.02173
931.398	-35.07687
931.783	-57.14585
932.167	9.02155
932.552	5.01211
932.937	-26.06249
933.321	4.00983
933.705	-58.14178
934.09	-37.08939
934.474	-17.03878
934.858	-29.07376
935.242	-19.04259
935.626	-12.03011
936.009	-11.02888
936.393	23.05751
936.777	-5.01255
937.16	27.06865
937.544	-13.02917
937.927	-34.0849
938.311	20.04675
938.694	10.0258
939.077	1.00232
939.46	-40.09365
939.843	-48.09476
940.226	-1.00248
940.609	46.10249
940.991	-46.11395
941.374	-13.03111
941.757	-2.00476
942.139	8.0174
942.522	-30.0685
942.904	-40.09391
943.286	-20.04934
943.668	39.09874
944.05	-15.03598
944.432	-34.08153
944.814	4.00944
945.196	-19.04548
945.578	8.01874
945.959	-70.15906
946.341	-30.07029
946.722	-5.01129
947.104	-34.07926
947.485	-20.04521
947.866	7.01727
948.247	-20.04972
948.628	-32.07448
949.009	-22.055
949.39	-20.04812
949.771	-31.06831
950.152	5.01191
950.532	63.15317
950.913	-17.03976
951.293	-13.03467
951.674	-5.01173
952.054	22.05378
952.434	-11.0266
952.814	-34.07779
953.194	-29.07316
953.574	-4.0095
953.954	-27.06164
954.334	9.02196
954.714	-9.02142
955.093	43.10156
955.473	17.04164
955.853	1.00252
956.232	-15.04015
956.611	-28.0644
956.99	-19.04675
957.37	-32.0791
957.749	-75.17267
958.128	-21.05194
958.506	-25.06352
958.885	-16.03916
959.264	-9.02173
959.643	8.01768
960.021	-28.06822
960.4	-16.03506
960.778	-32.0756
961.156	-43.10498
961.535	-29.06495
961.913	28.06339
962.291	6.01516
962.669	-28.06967
963.047	-6.01499
963.424	21.05266
963.802	-55.13287
964.18	-21.05085
964.557	29.06372
964.935	5.01143
965.312	0
965.69	-37.08955
966.067	-45.10571
966.444	-17.03989
966.821	2.00502
967.198	-40.09343
967.575	-24.05698
967.952	-4.00909
968.329	15.03551
968.705	18.03729
969.082	27.06802
969.458	-4.00945
969.835	-4.00943
970.211	20.0503
970.587	23.05544
970.963	-50.12454
971.339	-23.059
971.715	23.05561
972.091	2.00476
972.467	-56.1347
972.843	2.00488
973.219	10.02292
973.594	-39.1
973.97	-69.15638
974.345	-17.03972
974.721	-46.10698
975.096	40.09387
975.471	-52.11993
975.846	-26.06025
976.221	-17.04214
976.596	43.10081
976.971	16.03849
977.346	-58.13073
977.72	-23.05682
978.095	-29.07316
978.469	-23.05306
978.844	16.03863
979.218	24.05639
979.593	-34.07889
979.967	-77.1806
980.341	-33.07427
980.715	-3.00736
981.089	-42.10267
981.463	-25.05571
981.837	13.03112
982.21	-32.07023
982.584	25.05847
982.957	-17.04161
983.331	-86.19661
983.704	29.06964
984.078	-27.06468
984.451	-5.01185
984.824	-16.03815
985.197	-33.07676
985.57	-65.15726
985.943	-46.10879
986.316	-36.08468
986.688	31.07171
987.061	30.06781
987.434	15.03846
987.806	-46.10719
988.179	-40.09152
988.551	3.00734
988.923	-26.06192
989.295	-18.04348
989.667	6.01409
990.039	6.01462
990.411	-20.04384
990.783	26.05656
991.155	-41.09665
991.527	-40.09405
991.898	3.00729
992.27	21.05071
992.641	-12.02904
993.012	-62.13866
993.384	-25.0576
993.755	18.0447
994.126	-1.00235
994.497	-5.01191
994.868	5.01092
995.239	-40.0942
995.61	-12.0294
995.98	-63.14966
996.351	1.00242
996.722	35.07887
997.092	-24.05555
997.462	-10.02294
997.833	-4.00907
998.203	-49.11412
998.573	-60.14716
998.943	3.00683
999.313	-32.07516
999.683	-9.02102
1000.053	-46.10045
1000.423	-4.00933
1000.792	-44.11031
1001.162	-36.08574
1001.531	-22.05288
1001.901	-27.06518
1002.27	-57.12138
1002.639	-61.15169
1003.009	-34.07845
1003.378	-26.065
1003.747	-33.07525
1004.116	-39.09072
1004.485	-27.06266
1004.853	-72.17659
1005.222	-53.12828
1005.591	19.04324
1005.959	-54.11927
1006.328	-41.09012
1006.696	-45.10538
1007.064	-58.14146
1007.433	-44.10648
1007.801	-19.04444
1008.169	-47.11474
1008.537	52.10936
1008.905	-47.1076
1009.273	-16.03805
1009.64	1.00234
1010.008	13.02979
1010.375	-4.00921
1010.743	-18.03884
1011.11	35.08119
1011.478	-19.04607
1011.845	-28.0635
1012.212	5.01104
1012.579	11.02614
1012.946	-41.09379
1013.313	39.08803
1013.68	-3.00645
1014.047	-24.05551
1014.414	7.01591
1014.78	-12.02909
1015.147	-32.07425
1015.513	-16.03739
1015.88	-27.06675
1016.246	-52.1237
1016.612	-31.06814
1016.978	28.06653
1017.344	-12.02885
1017.71	26.06052
1018.076	-70.15964
1018.442	33.08221
1018.808	40.0972
1019.174	-53.12924
1019.539	-89.19184
1019.905	-21.04833
1020.27	-32.07674
1020.636	-40.09196
1021.001	22.05086
1021.366	0
1021.731	42.10564
1022.096	-36.0896
1022.461	-17.03911
1022.826	23.05304
1023.191	-1.00255
1023.556	-49.11119
1023.92	-40.09486
1024.285	-31.07271
1024.649	-85.20333
1025.014	-47.11221
1025.378	-3.00737
1025.742	4.00952
1026.107	-32.06985
1026.471	3.0067
1026.835	-23.05544
1027.199	-15.0351
1027.562	-33.07357
1027.926	-59.14011
1028.29	-26.06417
1028.654	-29.06433
1029.017	4.00954
1029.381	-18.04186
1029.744	8.01978
1030.107	10.02278
1030.471	-4.00932
1030.834	-82.17944
1031.197	10.02318
1031.56	-13.02949
1031.923	-22.05557
1032.286	29.06527
1032.648	-36.0824
1033.011	-33.0747
1033.374	-22.04946
1033.736	-26.06687
1034.099	-20.04738
1034.461	-3.00742
1034.823	3.00727
1035.185	-12.02903
1035.548	7.01654
1035.91	-32.0743
1036.272	-14.03097
1036.634	5.0118
1036.995	-62.14106
1037.357	-56.13398
1037.719	-26.06156
1038.08	15.0346
1038.442	-31.07131
1038.803	-64.14761
1039.165	-50.12272
1039.526	18.04193
1039.887	-35.08132
1040.248	-10.02434
1040.609	-29.06887
1040.97	-27.06389
1041.331	14.03454
1041.692	-4.0092
1042.053	1.00217
1042.413	-39.08763
1042.774	-13.03072
1043.134	-39.08896
1043.495	-2.00487
1043.855	10.02369
1044.215	-30.072
1044.576	-2.00466
1044.936	-32.07062
1045.296	13.03131
1045.656	-47.11118
1046.016	-38.08865
1046.375	-33.07785
1046.735	-8.01785
1047.095	19.04275
1047.454	-18.03619
1047.814	-8.01863
1048.173	-16.0364
1048.533	5.01102
1048.892	-54.12722
1049.251	-14.03383
1049.61	-33.07921
1049.969	-25.05691
1050.328	4.00831
1050.687	-40.09409
1051.046	-45.10633
1051.405	-41.09841
1051.763	0
1052.122	-42.10202
1052.48	-26.06218
1052.839	40.09174
1053.197	-2.00454
1053.555	-25.05377
1053.914	-16.0378
1054.272	-64.14773
1054.63	-67.16094
1054.988	-4.00928
1055.345	-30.06134
1055.703	4.00931
1056.061	10.02523
1056.419	37.09401
1056.776	-49.11371
1057.134	-84.18685
1057.491	-11.02674
1057.848	-34.08187
1058.206	-67.15129
1058.563	-48.10233
1058.92	25.05488
1059.277	-48.11554
1059.634	-8.01788
1059.991	-8.01858
1060.348	-45.09929
1060.704	50.11683
1061.061	-34.07497
1061.418	-61.14491
1061.774	-57.13765
1062.131	-6.0157
1062.487	-53.11992
1062.843	-60.14629
1063.199	-36.08731
1063.555	0
1063.911	-32.07819
1064.267	65.12534
1064.623	-1.00238
1064.979	-68.15126
1065.335	-32.07351
1065.691	-63.1451
1066.046	-11.02319
1066.402	-64.1407
1066.757	-12.02943
1067.112	-39.09272
1067.468	-14.03248
1067.823	-60.13772
1068.178	-53.12411
1068.533	-16.03756
1068.888	-27.06219
1069.243	-41.09867
1069.598	-36.08445
1069.952	30.0662
1070.307	-17.0411
1070.662	26.06013
1071.016	6.01313
1071.371	-14.03093
1071.725	-16.03665
1072.079	-17.03972
1072.434	-38.09029
1072.788	-66.15131
1073.142	33.07809
1073.496	-93.21616
1073.85	-52.11706
1074.203	-5.01175
1074.557	44.11446
1074.911	-17.03893
1075.265	-55.1244
1075.618	22.05175
1075.971	-44.10168
1076.325	16.03965
1076.678	-20.04427
1077.031	-105.22827
1077.385	-48.10202
1077.738	-48.10491
1078.091	5.01105
1078.444	-12.02652
1078.796	7.01671
1079.149	8.01927
1079.502	-27.06238
1079.855	-3.00676
1080.207	-18.04284
1080.56	-5.01265
1080.912	-24.05656
1081.264	-1.00234
1081.617	-12.02846
1081.969	0
1082.321	-51.12102
1082.673	-15.03366
1083.025	-64.14726
1083.377	248.53282
1083.728	-8.01789
1084.08	-36.08692
1084.432	-13.0302
1084.783	-81.18178
1085.135	16.03892
1085.486	-20.04456
1085.838	-26.06249
1086.189	7.01656
1086.54	-12.02757
1086.891	47.11662
1087.242	62.14698
1087.593	-57.13322
1087.944	-17.03754
1088.295	-27.05915
1088.646	10.02387
1088.996	-24.05652
1089.347	-47.1117
1089.698	-10.02315
1090.048	-11.02759
1090.398	-15.03333
1090.749	-26.0597
1091.099	1.00247
1091.449	-26.0633
1091.799	-26.0633
1092.149	-25.06021
1092.499	8.01884
1092.849	-29.07198
1093.199	-6.01443
1093.548	9.02111
1093.898	-51.12414
1094.248	-23.05692
1094.597	-8.02013
1094.947	-63.16571
1095.296	-20.04827
1095.645	-14.03526
1095.994	-35.0817
1096.343	-14.03436
1096.692	14.03632
1097.041	32.08543
1097.39	-17.04115
1097.739	-45.11438
1098.088	-21.05451
1098.437	5.01297
1098.785	-61.16034
1099.134	-78.20053
1099.482	-6.01618
1099.83	-17.04358
1100.179	18.04644
1100.527	-42.10798
1100.875	-10.02599
1101.223	-15.03916
1101.571	-70.19015
1101.919	-36.09429
1102.267	-16.04456
1102.615	-5.01607
1102.962	-3.00963
1103.31	-4.01286
1103.658	-10.0321
