Data from N1 R1 sample 7_Subt2__5__11-28-17-373.txt Node

Date: Wed Sep 17 11:28:17 PDT 2025
User: uwsun
Spectrometer: HDX01956
Trigger mode: 0
Integration Time (sec): 5.000000E-1
Scans to average: 1
Nonlinearity correction enabled: true
Boxcar width: 0
Storing dark spectrum: false
XAxis mode: Wavelengths
Number of Pixels in Spectrum: 2068
>>>>>Begin Spectral Data<<<<<
194.03	-6.01743
194.578	6.01949
195.127	1.00321
195.676	-4.01288
196.225	-17.04553
196.773	-21.05888
197.321	-21.05899
197.87	-17.04467
198.418	-12.03173
198.966	11.02961
199.513	22.05713
200.061	-50.13136
200.609	-24.06503
201.156	-66.15101
201.704	-22.05699
202.251	18.0488
202.798	-43.11493
203.345	3.00763
203.892	-19.04942
204.438	-24.05878
204.985	-26.06384
205.532	-55.14933
206.078	-22.05537
206.624	2.00515
207.17	-2.00483
207.716	11.02768
208.262	-22.04543
208.808	12.03091
209.354	7.01777
209.899	-26.0674
210.445	-26.0671
210.99	2.00502
211.535	41.09875
212.08	-47.11333
212.625	3.00768
213.17	29.07543
213.715	-26.06159
214.259	17.04074
214.804	-62.15767
215.348	-25.05985
215.892	13.03237
216.436	-36.08511
216.98	-36.082
217.524	-21.05184
218.068	12.03099
218.612	47.12157
219.155	-25.06103
219.698	7.01708
220.242	-16.04053
220.785	24.05766
221.328	-41.10443
221.871	38.09844
222.414	-1.00253
222.956	-21.05161
223.499	-43.09919
224.041	-42.0991
224.583	-42.09172
225.126	-29.06564
225.668	-32.07994
226.21	7.01808
226.751	7.01599
227.293	-39.09101
227.835	-14.03516
228.376	-73.17228
228.918	-44.11261
229.459	5.01273
230	-5.0123
230.541	-19.04488
231.082	-22.05498
231.622	-53.12392
232.163	-26.06434
232.704	22.05603
233.244	-15.03809
233.784	-42.10465
234.324	73.16612
234.864	-33.07679
235.404	-26.06282
235.944	-34.08231
236.484	-12.03063
237.023	-22.0532
237.563	23.05449
238.102	-54.13186
238.641	-26.06689
239.18	-28.0676
239.719	-1.00255
240.258	-15.0346
240.797	14.0341
241.335	17.04204
241.874	12.02404
242.412	-4.00994
242.95	8.01974
243.488	-66.15362
244.026	-7.0167
244.564	-4.00847
245.102	48.11049
245.64	-31.07599
246.177	-48.11022
246.715	3.00736
247.252	-19.04427
247.789	27.05126
248.326	-12.02964
248.863	33.07403
249.4	11.02548
249.936	9.01937
250.473	22.05304
251.009	-53.12547
251.546	26.0593
252.082	-83.18688
252.618	-20.04605
253.154	-7.01725
253.69	-25.05772
254.226	19.04637
254.761	-4.00921
255.297	-64.14519
255.832	49.11815
256.367	-19.04583
256.903	5.0114
257.438	27.06439
257.972	-21.04813
258.507	-36.08511
259.042	-15.03359
259.576	-39.08939
260.111	-43.10188
260.645	-23.05123
261.179	-5.01201
261.713	13.02979
262.247	-24.05634
262.781	24.05177
263.315	-29.07219
263.849	-10.02561
264.382	-9.0212
264.915	22.0531
265.449	-46.1157
265.982	1.00233
266.515	6.01503
267.048	-30.06579
267.58	-54.12081
268.113	-38.08505
268.646	-7.01751
269.178	-62.14379
269.71	38.08568
270.243	27.06382
270.775	33.08598
271.307	-16.03898
271.838	-27.06552
272.37	-21.05275
272.902	-13.03024
273.433	19.04311
273.965	3.00744
274.496	-51.13018
275.027	21.05323
275.558	13.03239
276.089	20.0509
276.62	-29.07493
277.15	-9.02263
277.681	-19.04213
278.211	-27.06758
278.741	2.00456
279.272	-42.09941
279.802	-31.07916
280.332	18.04339
280.861	-1.00244
281.391	-1.00233
281.921	-43.10591
282.45	-46.1174
282.98	3.00797
283.509	38.08813
284.038	10.02344
284.567	-8.01913
285.096	-22.05486
285.625	-81.1899
286.153	19.04639
286.682	-26.06164
287.21	-10.0244
287.739	-11.02667
288.267	-14.035
288.795	9.02393
289.323	18.04321
289.851	-3.00724
290.378	-40.09226
290.906	-16.04021
291.433	-15.03833
291.961	-13.0306
292.488	-21.05343
293.015	22.05308
293.542	46.11999
294.069	-5.0127
294.596	-39.09814
295.122	25.06121
295.649	4.00899
296.175	2.00493
296.702	28.06982
297.228	11.02705
297.754	27.06211
298.28	19.04479
298.806	-25.06203
299.332	0
299.857	12.02799
300.383	-26.06715
300.908	-16.04044
301.433	-2.00503
301.958	-29.06868
302.483	-33.08417
303.008	46.11628
303.533	-9.02374
304.058	-39.09397
304.582	-14.03406
305.107	-37.09896
305.631	-27.06328
306.155	23.05483
306.679	3.00725
307.203	8.01907
307.727	-10.02438
308.251	-4.01012
308.775	72.17757
309.298	-36.0897
309.822	-15.03866
310.345	28.06842
310.868	1.00248
311.391	29.07285
311.914	-16.04119
312.437	10.0235
312.96	-11.0267
313.482	-45.10957
314.005	-35.09
314.527	-37.0989
315.049	39.10046
315.571	-2.00465
316.093	5.01269
316.615	-59.14693
317.137	0
317.659	-17.04241
318.18	-43.10607
318.702	-1.00241
319.223	-54.11542
319.744	18.04168
320.265	4.01001
320.786	4.01026
321.307	-10.0254
321.828	4.00931
322.348	18.04348
322.869	-6.01474
323.389	7.01429
323.909	-10.02361
324.43	-31.07661
324.95	-5.01182
325.47	32.08109
325.989	7.01709
326.509	29.06682
327.029	-1.00236
327.548	-46.10867
328.067	-3.0075
328.587	-19.04913
329.106	-30.07024
329.625	22.05842
330.144	12.02875
330.662	4.00969
331.181	29.07024
331.7	-22.05298
332.218	-5.01127
332.736	-29.07048
333.255	-17.04147
333.773	-9.02196
334.291	35.0895
334.808	2.00467
335.326	24.05555
335.844	59.14189
336.361	47.12337
336.879	0
337.396	23.05755
337.913	8.0191
338.43	-8.01873
338.947	-31.07692
339.464	6.01345
339.981	26.06337
340.497	22.05549
341.014	-10.02518
341.53	17.03962
342.046	84.21309
342.562	27.06894
343.078	-4.00975
343.594	-15.03695
344.11	34.08364
344.626	-8.02082
345.141	11.02604
345.657	21.04912
346.172	26.0645
346.687	-2.00476
347.202	98.228
347.717	-9.02223
348.232	27.06897
348.747	0
349.261	4.00914
349.776	86.20827
350.29	71.18104
350.805	57.14375
351.319	-23.05563
351.833	53.12537
352.347	21.05115
352.861	71.17036
353.374	24.05637
353.888	26.06537
354.401	13.03063
354.915	20.04683
355.428	67.17018
355.941	16.0385
356.454	-4.00926
356.967	-7.01693
357.48	-4.00942
357.993	20.05056
358.505	-27.06809
359.018	75.18718
359.53	68.16943
360.042	51.11765
360.554	54.13523
361.066	25.06251
361.578	81.1835
362.09	45.10986
362.602	8.01855
363.113	41.09927
363.625	31.07274
364.136	33.075
364.647	45.10961
365.158	-9.02176
365.669	14.03449
366.18	40.09676
366.691	13.02959
367.201	26.06412
367.712	86.20119
368.222	18.0429
368.733	17.03843
369.243	59.13578
369.753	21.05002
370.263	60.1482
370.773	12.03007
371.282	55.13457
371.792	81.19183
372.301	10.0249
372.811	61.1625
373.32	42.09416
373.829	28.06796
374.338	42.09637
374.847	58.13739
375.356	11.02678
375.865	78.17206
376.373	61.14245
376.882	85.21811
377.39	57.14055
377.898	21.053
378.407	66.15374
378.915	91.20389
379.423	55.13111
379.93	136.31916
380.438	43.1058
380.946	50.11935
381.453	94.22893
381.96	103.2493
382.468	94.22464
382.975	90.22351
383.482	65.14929
383.989	83.21558
384.495	118.27865
385.002	75.16201
385.509	114.27483
386.015	207.42393
386.521	151.34541
387.028	195.44103
387.534	99.21577
388.04	196.46802
388.546	141.31357
389.051	148.32756
389.557	209.47827
390.063	169.38051
390.568	217.5129
391.073	185.40817
391.578	212.50855
392.084	251.55841
392.589	217.46311
393.093	259.60267
393.598	303.67212
394.103	293.67316
394.607	381.87003
395.112	385.89684
395.616	407.9335
396.12	437.94024
396.624	442.98141
397.128	555.2305
397.632	583.25885
398.136	598.26122
398.639	693.46537
399.143	784.71823
399.646	859.76684
400.15	904.80491
400.653	1046.98097
401.156	1208.17202
401.659	1476.71382
402.162	1874.92389
402.664	2853.44189
403.167	5485.63465
403.67	16476.88303
404.172	52960.48979
404.674	62408.98257
405.176	63738.15102
405.678	63977.72923
406.18	64011.81569
406.682	63863.44694
407.184	24795.39335
407.686	9818.27434
408.187	5827.60475
408.688	3845.23094
409.19	2978.25943
409.691	2447.48786
410.192	2177.28949
410.693	1932.72719
411.194	1804.80364
411.694	1726.90705
412.195	1600.95726
412.696	1404.51825
413.196	1430.22464
413.696	1405.56936
414.196	1426.35462
414.696	1352.60122
415.196	1239.28858
415.696	972.8397
416.196	816.67267
416.695	659.40494
417.195	605.32982
417.694	622.1815
418.194	500.98944
418.693	491.04859
419.192	552.19869
419.691	468.01945
420.19	504.12584
420.688	455.04606
421.187	439.84493
421.685	405.89198
422.184	308.70124
422.682	259.5501
423.18	279.62121
423.678	237.5288
424.176	177.39901
424.674	182.39978
425.172	181.41869
425.669	155.37501
426.167	172.39368
426.664	130.29372
427.161	128.29298
427.659	101.24464
428.156	137.29124
428.652	103.25892
429.149	123.29725
429.646	91.20422
430.143	77.18553
430.639	111.26288
431.135	86.21537
431.632	45.10439
432.128	105.25222
432.624	107.27504
433.12	35.08119
433.616	90.19886
434.111	38.09144
434.607	35.08487
435.103	60.12758
435.598	79.16626
436.093	69.16183
436.588	71.16117
437.083	28.06383
437.578	57.13327
438.073	74.18572
438.568	72.17783
439.062	16.03498
439.557	51.12027
440.051	-28.0646
440.546	42.09652
441.04	44.10656
441.534	1.00255
442.028	49.11887
442.522	-4.00976
443.015	-28.06171
443.509	30.07363
444.002	19.04699
444.496	-23.05117
444.989	-21.05188
445.482	-14.0352
445.975	37.08641
446.468	7.01545
446.961	37.0814
447.454	0
447.947	8.01935
448.439	46.11337
448.931	28.06502
449.424	33.08441
449.916	55.13457
450.408	9.02089
450.9	-24.0593
451.392	-1.00257
451.884	-12.02807
452.375	-26.06539
452.867	-14.03207
453.358	12.02785
453.849	-7.01528
454.341	-13.02991
454.832	-56.12462
455.323	67.16667
455.814	-44.10302
456.304	-12.02823
456.795	-58.13595
457.285	-6.01344
457.776	23.05293
458.266	-9.02166
458.756	-38.09151
459.247	18.04341
459.737	22.05362
460.226	59.13486
460.716	-4.00968
461.206	35.08411
461.695	3.00748
462.185	41.0977
462.674	34.07823
463.163	48.10819
463.653	40.08587
464.142	28.06819
464.63	-9.02205
465.119	25.05854
465.608	7.01657
466.096	-5.01102
466.585	-12.02781
467.073	-3.00715
467.561	-12.02913
468.05	-36.08442
468.538	26.06375
469.026	-27.06498
469.513	-48.10389
470.001	-2.00465
470.489	-14.0337
470.976	29.06812
471.463	6.01503
471.951	32.07962
472.438	12.02839
472.925	-29.06934
473.412	-17.0417
473.899	8.01852
474.385	30.07361
474.872	-22.05203
475.359	58.1422
475.845	0
476.331	-44.09584
476.817	14.03425
477.303	-19.04477
477.789	-24.0579
478.275	-33.08296
478.761	-9.02159
479.247	-16.03621
479.732	-8.02013
480.218	34.08905
480.703	-12.02983
481.188	-17.03741
481.673	20.04627
482.158	-21.0462
482.643	66.16767
483.128	25.05861
483.612	62.14737
484.097	7.01699
484.581	32.0743
485.066	36.0883
485.55	4.00895
486.034	-15.03304
486.518	83.1974
487.002	-26.06398
487.486	0
487.969	-18.04421
488.453	4.01001
488.936	16.0363
489.42	73.16093
489.903	0
490.386	-29.06117
490.869	65.14227
491.352	-4.00971
491.835	-4.00831
492.318	-26.05937
492.8	18.03766
493.283	46.11719
493.765	12.02957
494.247	62.14391
494.73	16.03571
495.212	23.05472
495.694	84.19667
496.175	78.18633
496.657	118.27551
497.139	47.08115
497.62	96.22872
498.102	103.25351
498.583	75.18289
499.064	107.23598
499.545	181.40168
500.026	163.36069
500.507	166.37322
500.988	238.57351
501.469	182.44157
501.949	296.69621
502.43	310.70979
502.91	368.7289
503.39	325.76306
503.87	404.88922
504.35	356.78195
504.83	428.86203
505.31	454.00645
505.79	532.13606
506.269	557.14556
506.749	655.31175
507.228	689.41684
507.707	814.52969
508.187	931.84386
508.666	1002.03795
509.145	1008.90981
509.623	1140.09315
510.102	1245.32135
510.581	1436.54583
511.059	1455.71686
511.538	1661.04448
512.016	1756.83651
512.494	1937.98655
512.972	2147.10193
513.45	2262.02988
513.928	2535.34313
514.406	2776.44786
514.884	2989.80502
515.361	3294.28181
515.839	3383.01745
516.316	3700.29034
516.793	3881.5127
517.27	4217.9934
517.747	4398.43267
518.224	4649.44913
518.701	4816.06959
519.178	5044.86896
519.654	5157.3637
520.131	5225.68029
520.607	5289.52899
521.083	5371.93014
521.56	5263.26971
522.036	5228.74451
522.512	5325.60001
522.987	5132.51453
523.463	5019.45028
523.939	4882.89606
524.414	4671.39058
524.89	4527.77987
525.365	4384.46144
525.84	4123.0416
526.315	3904.19387
526.79	3804.73777
527.265	3609.97381
527.74	3458.34658
528.215	3214.12917
528.689	3017.79293
529.164	2883.69087
529.638	2761.65258
530.112	2597.17364
530.587	2513.68372
531.061	2348.25625
531.534	2280.20266
532.008	2195.2094
532.482	2017.84708
532.956	1949.27749
533.429	1864.01876
533.903	1693.45219
534.376	1687.47925
534.849	1588.53556
535.322	1497.53837
535.795	1403.51325
536.268	1409.53046
536.741	1306.34416
537.213	1240.17204
537.686	1253.37072
538.158	1184.07786
538.631	1152.20397
539.103	1112.97159
539.575	1007.63552
540.047	1003.74979
540.519	893.78663
540.991	909.85637
541.463	838.71086
541.934	783.50562
542.406	768.5919
542.877	722.40714
543.348	707.4937
543.82	651.40227
544.291	681.39283
544.762	700.45791
545.233	678.52315
545.703	575.14226
546.174	524.10154
546.645	563.23013
547.115	535.1728
547.585	496.03983
548.056	551.22973
548.526	498.08125
548.996	465.02339
549.466	469.0499
549.935	458.00986
550.405	363.74878
550.875	447.98323
551.344	369.82803
551.814	424.90228
552.283	347.71385
552.752	355.78582
553.221	327.68452
553.69	383.81167
554.159	352.83047
554.628	297.64345
555.096	314.76319
555.565	256.5448
556.033	342.77328
556.502	247.57565
556.97	294.62484
557.438	289.64934
557.906	271.61439
558.374	267.59548
558.842	266.61321
559.31	286.61261
559.777	249.58807
560.245	255.56331
560.712	206.45897
561.18	264.56158
561.647	220.47308
562.114	216.48085
562.581	256.60753
563.048	264.58136
563.514	331.79047
563.981	251.55424
564.448	265.5756
564.914	251.56188
565.381	254.55934
565.847	268.59956
566.313	238.53355
566.779	259.56065
567.245	208.46822
567.711	215.4999
568.176	263.56712
568.642	272.65865
569.108	278.65592
569.573	268.59536
570.038	293.58347
570.504	269.58354
570.969	296.70136
571.434	306.64694
571.899	309.69797
572.363	338.73367
572.828	363.78575
573.293	401.85798
573.757	383.83399
574.222	369.77688
574.686	390.84004
575.15	393.8873
575.614	469.01968
576.078	400.87784
576.542	363.7787
577.006	406.85533
577.469	429.98276
577.933	441.93049
578.396	406.89925
578.86	382.84398
579.323	397.8967
579.786	413.83239
580.249	445.97225
580.712	377.86229
581.175	377.87475
581.637	346.74559
582.1	386.78602
582.563	346.69238
583.025	383.87601
583.487	342.66345
583.95	324.65767
584.412	403.78684
584.874	389.8908
585.336	370.82635
585.797	379.77195
586.259	292.65325
586.721	303.67827
587.182	318.69673
587.643	325.7008
588.105	300.67668
588.566	272.54329
589.027	279.6561
589.488	299.65524
589.949	289.6722
590.41	246.46946
590.87	252.55633
591.331	316.65637
591.791	233.52245
592.252	275.6151
592.712	219.5094
593.172	240.52784
593.632	302.64045
594.092	194.42184
594.552	234.49039
595.011	199.4442
595.471	216.47586
595.931	242.52799
596.39	143.3384
596.849	194.44082
597.308	129.27184
597.768	215.53946
598.227	203.47498
598.685	157.35176
599.144	218.49916
599.603	120.27776
600.062	107.22429
600.52	177.39166
600.978	128.29886
601.437	155.34656
601.895	152.3208
602.353	78.17127
602.811	146.32462
603.269	98.2316
603.727	147.34733
604.184	161.36042
604.642	134.32487
605.099	164.37598
605.557	121.29087
606.014	134.28517
606.471	87.21713
606.928	123.27081
607.385	128.31661
607.842	68.15602
608.299	102.23675
608.755	111.26633
609.212	110.24356
609.668	117.2616
610.125	56.13506
610.581	128.29627
611.037	107.23786
611.493	86.19977
611.949	125.30083
612.405	69.14093
612.861	90.20583
613.316	97.2307
613.772	136.30703
614.227	141.33367
614.683	87.18374
615.138	19.04491
615.593	73.169
616.048	77.17564
616.503	12.02936
616.958	78.19435
617.412	21.05021
617.867	70.15648
618.321	41.08515
618.776	34.07535
619.23	73.17041
619.684	20.04499
620.138	86.19558
620.592	15.03662
621.046	86.20198
621.5	64.15359
621.954	3.00671
622.407	61.13476
622.861	70.1692
623.314	49.11101
623.768	106.24769
624.221	54.10651
624.674	46.10639
625.127	14.03278
625.58	20.04519
626.033	56.12234
626.485	49.11712
626.938	74.17529
627.39	33.0774
627.843	48.11066
628.295	28.06481
628.747	42.10022
629.199	3.00689
629.651	49.11231
630.103	1.00232
630.555	-41.08815
631.006	-12.02821
631.458	25.05902
631.909	9.02031
632.361	-1.00233
632.812	21.04883
633.263	59.12777
633.714	1.00214
634.165	9.02169
634.616	31.07339
635.067	-11.0245
635.518	23.05468
635.968	-34.0681
636.419	49.10698
636.869	28.06643
637.319	30.06977
637.769	51.1145
638.219	2.00475
638.669	-27.06496
639.119	-12.02896
639.569	26.06247
640.019	53.12212
640.468	-2.00452
640.918	-32.07685
641.367	-7.01583
641.816	21.04688
642.265	6.01409
642.714	10.02306
643.163	29.06719
643.612	23.05651
644.061	-9.01948
644.51	1.00231
644.958	39.08623
645.406	7.01682
645.855	-11.02692
646.303	12.02788
646.751	57.13149
647.199	23.05232
647.647	28.06517
648.095	-15.03458
648.543	30.06109
648.99	44.10555
649.438	-2.00466
649.885	33.08227
650.333	30.05853
650.78	-7.01705
651.227	-33.08176
651.674	-40.09277
652.121	21.05165
652.568	0
653.015	-40.10021
653.461	-7.01678
653.908	-4.00926
654.354	2.00479
654.801	-28.06648
655.247	34.07371
655.693	-5.01307
656.139	10.02396
656.585	14.03355
657.031	0
657.477	32.07009
657.922	4.00915
658.368	69.16826
658.813	-85.19788
659.259	3.00731
659.704	23.05466
660.149	-23.05363
660.594	-18.04313
661.039	1.00229
661.484	23.05456
661.929	18.04218
662.373	-42.10666
662.818	-6.01492
663.262	23.05569
663.707	-21.05385
664.151	35.08519
664.595	-10.02436
665.039	17.04224
665.483	-17.04355
665.927	-11.02601
666.371	-22.05231
666.814	-51.12297
667.258	23.0555
667.701	16.03426
668.145	-18.04513
668.588	32.07918
669.031	-39.09293
669.474	-16.03869
669.917	-11.02432
670.36	32.07973
670.803	37.08922
671.245	-56.11689
671.688	0
672.13	-22.05032
672.573	-18.04574
673.015	31.07466
673.457	-57.12639
673.899	42.10122
674.341	5.01208
674.783	-17.04105
675.225	16.03942
675.666	-12.02956
676.108	-57.1255
676.549	-29.06823
676.991	-44.09803
677.432	-33.06651
677.873	-62.14396
678.314	-23.05519
678.755	13.03209
679.196	-5.01149
679.637	-14.0337
680.078	-12.02821
680.518	-13.03004
680.959	-1.00239
681.399	-25.0623
681.839	14.03398
682.28	30.07434
682.72	-61.14173
683.16	-23.05776
683.6	26.05906
684.039	-22.04588
684.479	-31.07717
684.919	11.02592
685.358	-27.06763
685.798	-60.1579
686.237	-39.0939
686.676	-38.08687
687.115	-7.01656
687.554	-18.04333
687.993	23.05081
688.432	-26.0598
688.871	13.02982
689.309	-25.06037
689.748	-12.02513
690.186	-18.04231
690.625	13.03053
691.063	-42.10114
691.501	13.0321
691.939	27.06773
692.377	-59.14473
692.815	28.06822
693.253	-12.02864
693.69	1.00219
694.128	-6.0146
694.565	-2.00474
695.003	-41.10554
695.44	-39.09318
695.877	13.03055
696.314	-25.05301
696.751	21.04742
697.188	64.14667
697.625	-32.0721
698.061	-40.0965
698.498	-86.20654
698.934	8.01908
699.371	-56.13327
699.807	-11.02601
700.243	4.00964
700.679	-39.08763
701.115	5.01164
701.551	-61.14329
701.987	-51.11252
702.422	-9.02151
702.858	18.04277
703.294	42.09552
703.729	-27.06589
704.164	-12.02867
704.599	-5.01118
705.035	-30.0677
705.47	-29.07067
705.904	-34.07917
706.339	-59.13686
706.774	-18.04224
707.209	-15.03499
707.643	7.01669
708.078	-23.05605
708.512	-49.12366
708.946	-39.09283
709.38	14.03311
709.814	-51.11638
710.248	-9.022
710.682	20.04778
711.116	36.08695
711.549	-51.13087
711.983	-46.10698
712.416	21.04954
712.85	-10.02472
713.283	-41.09729
713.716	8.01972
714.149	-31.07197
714.582	7.01567
715.015	-55.13567
715.448	31.07737
715.881	-8.01714
716.313	2.00465
716.746	10.02355
717.178	3.00718
717.61	3.0076
718.043	-52.129
718.475	-17.04122
718.907	11.02726
719.339	-10.02265
719.77	-3.00717
720.202	-22.05502
720.634	0
721.065	-36.08501
721.497	-10.02441
721.928	-56.13755
722.359	-27.06582
722.79	-41.09849
723.221	-28.06944
723.652	-3.00758
724.083	-23.0517
724.514	-26.05975
724.945	-34.0797
725.375	3.00698
725.806	-86.21389
726.236	7.01775
726.666	15.03504
727.096	-23.05613
727.526	9.02303
727.956	-43.09868
728.386	-2.00487
728.816	11.02795
729.246	17.04161
729.675	-43.10498
730.105	-41.10028
730.534	-2.00463
730.964	-16.03971
731.393	-21.05123
731.822	49.12327
732.251	-5.01261
732.68	-13.02992
733.109	-41.10121
733.537	42.10133
733.966	34.08385
734.395	-4.00919
734.823	-33.07284
735.251	-42.10091
735.68	-5.01223
736.108	-27.06721
736.536	-31.07239
736.964	-12.02764
737.392	2.00495
737.82	-10.0237
738.247	17.04
738.675	-56.13173
739.102	-14.03471
739.53	31.07877
739.957	18.04612
740.384	-47.11303
740.811	-53.13179
741.238	7.01703
741.665	37.0858
742.092	-65.14977
742.519	-17.04203
742.945	52.12432
743.372	9.02216
743.798	-1.00254
744.225	-59.13978
744.651	-22.05472
745.077	-9.02227
745.503	-24.0576
745.929	16.03835
746.355	-11.02652
746.781	-17.04146
747.207	-42.09983
747.632	33.08089
748.058	36.08947
748.483	-32.07333
748.908	16.0394
749.334	-8.01959
749.759	19.04477
750.184	25.05953
750.609	-13.0316
751.033	-14.03238
751.458	6.01321
751.883	14.03398
752.307	-38.08925
752.732	45.11332
753.156	-4.00975
753.58	-13.03037
754.005	-46.11507
754.429	8.01879
754.853	-18.04459
755.277	22.05157
755.7	-11.02708
756.124	-25.06185
756.548	-35.08235
756.971	12.02891
757.394	20.05038
757.818	-10.0256
758.241	27.06765
758.664	19.04733
759.087	-47.10613
759.51	-34.08339
759.933	5.01198
760.356	39.09909
760.778	-7.01704
761.201	-12.0287
761.623	0
762.046	-10.02309
762.468	30.07049
762.89	-13.03138
763.312	11.0266
763.734	29.06881
764.156	1.00244
764.578	7.01571
765	17.04082
765.421	-20.05075
765.843	32.08233
766.264	-11.02573
766.686	-43.10607
767.107	-2.00479
767.528	31.07849
767.949	-11.02762
768.37	42.10229
768.791	-25.05937
769.212	-4.00999
769.632	-24.0559
770.053	-30.0778
770.473	-19.04531
770.894	-27.06574
771.314	-44.10306
771.734	18.04122
772.154	-6.01511
772.575	13.02941
772.994	-59.13317
773.414	-22.05169
773.834	-58.14389
774.254	-15.03617
774.673	36.08646
775.093	11.02701
775.512	-11.02688
775.931	4.01001
776.351	16.03932
776.77	23.05556
777.189	-42.09918
777.607	-18.04548
778.026	-36.08905
778.445	1.00251
778.864	-29.07269
779.282	-7.01642
779.701	-2.00494
780.119	-47.11857
780.537	-4.00981
780.955	-9.02241
781.373	-28.06842
781.791	36.08008
782.209	-28.06231
782.627	-43.11253
783.045	-14.03134
783.462	2.00503
783.88	-6.01534
784.297	-11.02731
784.715	-10.02549
785.132	-10.02369
785.549	-35.08656
785.966	-14.03476
786.383	22.05336
786.8	17.03861
787.217	7.01647
787.633	16.03962
788.05	-9.02054
788.466	0
788.883	7.01772
789.299	-49.11524
789.715	13.03112
790.131	9.02196
790.547	-40.09862
790.963	23.05571
791.379	-6.01494
791.795	-34.07563
792.21	5.01136
792.626	-47.10933
793.041	-6.01451
793.457	4.00962
793.872	-14.03203
794.287	24.05694
794.702	-38.09085
795.117	-10.02457
795.532	0
795.947	-5.01161
796.362	-60.13871
796.776	13.02907
797.191	6.01442
797.605	-42.09883
798.02	-31.07424
798.434	-34.0745
798.848	43.10459
799.262	-18.04395
799.676	-4.00956
800.09	28.06707
800.504	11.02593
800.918	-13.02921
801.331	-51.12908
801.745	-41.0922
802.158	-22.05356
802.572	3.00711
802.985	-19.0446
803.398	-2.00465
803.811	-37.09171
804.224	-32.07729
804.637	-1.00234
805.05	-29.06543
805.462	-14.03351
805.875	-27.06923
806.288	-22.05254
806.7	-37.0906
807.112	-24.05403
807.525	-51.12209
807.937	-18.04382
808.349	5.01214
808.761	15.03614
809.173	21.04979
809.584	8.01917
809.996	-52.1255
810.408	7.0179
810.819	-39.09043
811.231	23.06021
811.642	27.06547
812.053	-2.00478
812.464	-37.08617
812.875	-4.01007
813.286	0
813.697	-34.07588
814.108	-19.04522
814.519	71.15337
814.929	13.03222
815.34	-33.07773
815.75	15.03754
816.16	19.04543
816.571	-23.05846
816.981	-38.08694
817.391	-22.05149
817.801	-8.01953
818.211	8.0185
818.62	-5.01183
819.03	-45.10818
819.44	-56.14176
819.849	-44.10788
820.259	-41.10207
820.668	-37.08989
821.077	28.06827
821.486	-26.06047
821.895	2.00474
822.304	-10.02591
822.713	-13.02987
823.122	-47.11517
823.531	-73.16826
823.939	9.02145
824.348	-11.02593
824.756	9.02182
825.164	-4.00977
825.573	-38.09379
825.981	-27.06518
826.389	14.03413
826.797	3.00747
827.205	8.01799
827.612	-18.04316
828.02	-46.10546
828.428	17.04206
828.835	20.05169
829.243	2.0046
829.65	36.08748
830.057	-2.0047
830.464	23.0551
830.871	51.11821
831.278	-39.09254
831.685	20.0429
832.092	-40.09504
832.499	12.02555
832.905	5.01224
833.312	-35.07645
833.718	64.15476
834.124	-4.00891
834.531	-32.07822
834.937	3.00754
835.343	0
835.749	-10.02236
836.155	-26.0668
836.561	-36.08695
836.966	2.00474
837.372	-3.00741
837.777	-27.06614
838.183	-29.06248
838.588	21.05096
838.993	-13.0309
839.399	34.08082
839.804	-37.08864
840.209	-6.01511
840.613	-17.03671
841.018	-45.11129
841.423	6.01501
841.828	-26.06476
842.232	-43.10255
842.637	21.04852
843.041	2.00503
843.445	-55.13462
843.849	-10.02426
844.253	3.0069
844.657	-16.03966
845.061	22.04914
845.465	-36.08521
845.869	-35.07948
846.272	-23.05506
846.676	-45.10468
847.079	-2.005
847.483	5.01209
847.886	-7.01641
848.289	31.08154
848.692	-66.16355
849.095	-39.09126
849.498	-16.03897
849.901	-41.09107
850.304	-7.01624
850.707	-50.12481
851.109	-3.00735
851.512	-15.03607
851.914	-39.09723
852.316	37.09164
852.718	16.04129
853.121	-27.06473
853.523	-33.07476
853.925	-11.02837
854.326	-12.0295
854.728	-3.00755
855.13	7.01778
855.531	-25.0585
855.933	-14.03237
856.334	-5.01226
856.736	-11.02419
857.137	46.10385
857.538	-4.00988
857.939	-2.00489
858.34	-34.0801
858.741	-13.03309
859.142	-35.0817
859.542	-23.05992
859.943	14.03373
860.343	-24.05854
860.744	5.01184
861.144	22.05246
861.544	-26.06197
861.945	-18.04475
862.345	-3.00709
862.745	-30.07353
863.145	-24.05478
863.544	13.03202
863.944	-3.00688
864.344	-48.11532
864.743	21.05035
865.143	20.05036
865.542	-54.12101
865.941	4.00966
866.34	-2.00459
866.74	-11.02892
867.139	19.04468
867.537	-21.05167
867.936	12.02812
868.335	-43.10704
868.734	-2.00499
869.132	-30.06704
869.531	-41.09575
869.929	1.00222
870.327	-29.06786
870.726	-42.10145
871.124	-15.03377
871.522	18.04431
871.92	0
872.318	-52.1237
872.715	-22.05227
873.113	-45.10674
873.511	25.06003
873.908	-25.06282
874.306	6.01463
874.703	-16.03862
875.1	-44.10872
875.497	6.01388
875.894	-44.10776
876.291	-6.01436
876.688	-18.04544
877.085	-15.03474
877.482	-20.04882
877.878	-8.019
878.275	-9.02236
878.671	-109.23212
879.068	-6.01406
879.464	-1.00234
879.86	-24.05529
880.256	-43.10211
880.652	1.00247
881.048	-50.12008
881.444	-75.17287
881.84	-22.05452
882.236	8.0195
882.631	4.00958
883.027	4.00934
883.422	-56.13979
883.817	-47.11687
884.213	-23.05771
884.608	2.00488
885.003	-41.09579
885.398	-60.14781
885.793	-52.12749
886.188	-74.18089
886.582	0
886.977	-22.05044
887.371	-30.07361
887.766	-38.09313
888.16	-42.10076
888.554	-50.12022
888.949	-47.1156
889.343	16.03758
889.737	-25.06596
890.131	-25.06126
890.525	44.10943
890.918	-53.13079
891.312	-27.06224
891.706	-45.11563
892.099	2.00493
892.492	20.04112
892.886	-10.02372
893.279	-47.11713
893.672	11.02739
894.065	-13.03175
894.458	-16.03879
894.851	0
895.244	-47.11768
895.637	-17.04
896.029	58.13707
896.422	-71.16834
896.814	-10.0241
897.206	-19.0447
897.599	8.01915
897.991	-22.05219
898.383	4.00917
898.775	50.10942
899.167	22.0503
899.559	-23.05628
899.951	-28.06363
900.342	-4.00979
900.734	6.01483
901.125	-24.06112
901.517	-48.11567
901.908	-41.09447
902.299	-29.06945
902.69	47.10751
903.082	56.13008
903.473	20.04706
903.863	-32.07936
904.254	28.06339
904.645	-13.03103
905.036	10.02396
905.426	-30.06571
905.817	-53.12654
906.207	-55.12683
906.597	48.1089
906.987	-27.0678
907.378	-18.04467
907.768	12.03097
908.158	34.07967
908.547	10.02549
908.937	-12.02961
909.327	-11.02589
909.717	-65.15945
910.106	-46.10749
910.495	-13.03119
910.885	1.00247
911.274	-53.12968
911.663	-48.11825
912.052	-58.13861
912.441	5.01246
912.83	-18.03977
913.219	-8.02032
913.608	-14.03351
913.997	-19.04694
914.385	2.00463
914.774	-1.00236
915.162	26.06049
915.55	-2.00465
915.939	9.02223
916.327	-41.09924
916.715	4.01007
917.103	-47.1111
917.491	39.09254
917.878	1.00238
918.266	0
918.654	16.03998
919.041	23.05906
919.429	-6.01372
919.816	14.03434
920.203	-24.05731
920.591	21.05046
920.978	13.03079
921.365	-11.02829
921.752	-83.19154
922.139	18.03754
922.525	9.02101
922.912	-45.10686
923.299	-5.0121
923.685	-46.11661
924.072	-47.10296
924.458	-13.0315
924.844	-22.0531
925.231	-9.02009
925.617	9.02249
926.003	24.05915
926.389	-49.12109
926.774	3.00735
927.16	23.05506
927.546	5.01262
927.931	2.00481
928.317	-20.04434
928.702	13.02952
929.088	39.09083
929.473	26.06457
929.858	-21.05043
930.243	-28.06625
930.628	28.06648
931.013	-7.01689
931.398	7.01524
931.783	-32.08152
932.167	-6.01441
932.552	29.0699
932.937	-27.06491
933.321	-6.01478
933.705	-48.11712
934.09	-25.06026
934.474	-28.06401
934.858	-6.0152
935.242	-4.00894
935.626	-12.03011
936.009	11.02878
936.393	20.05003
936.777	-22.05537
937.16	36.09139
937.544	-6.01345
937.927	12.02972
938.311	-4.00939
938.694	8.02065
939.077	-43.10054
939.46	-12.02794
939.843	-35.06889
940.226	-53.13266
940.609	29.06484
940.991	-47.11645
941.374	-4.00956
941.757	-34.0815
942.139	-23.05036
942.522	-1.00227
942.904	-20.04677
943.286	-32.07912
943.668	5.01274
944.05	7.01672
944.432	-41.09845
944.814	-54.12885
945.196	-39.09372
945.578	7.0164
945.959	-33.07442
946.341	-33.07737
946.722	28.06277
947.104	-5.01159
947.485	5.01124
947.866	16.0394
948.247	29.07146
948.628	-71.16652
949.009	-53.13323
949.39	-33.0796
949.771	-37.08164
950.152	-18.04305
950.532	18.04413
950.913	-21.04916
951.293	-47.12604
951.674	-10.02348
952.054	31.07565
952.434	14.0337
952.814	-18.04105
953.194	-9.02262
953.574	-28.06684
953.954	-24.05476
954.334	32.07773
954.714	-73.17589
955.093	-11.02625
955.473	-4.00984
955.853	-3.00756
956.232	-36.09668
956.611	-28.0644
956.99	7.01714
957.37	-56.13903
957.749	-52.11917
958.128	1.00246
958.506	-9.0228
958.885	-37.0909
959.264	-31.07517
959.643	-17.03778
960.021	-8.01942
960.4	55.1187
960.778	-5.01175
961.156	-30.07306
961.535	-42.09432
961.913	9.02046
962.291	-15.03805
962.669	0
963.047	33.08185
963.424	26.06514
963.802	-54.13043
964.18	-35.08497
964.557	3.00663
964.935	4.00914
965.312	-2.0051
965.69	22.05266
966.067	-61.14374
966.444	-61.14435
966.821	9.02255
967.198	-39.09108
967.575	-13.0308
967.952	-27.06161
968.329	7.0166
968.705	43.08858
969.082	6.01517
969.458	-34.08076
969.835	-14.03309
970.211	8.02016
970.587	-2.00484
970.963	-63.15729
971.339	6.01531
971.715	63.15116
972.091	-14.03346
972.467	-36.08626
972.843	5.01218
973.219	31.07074
973.594	-60.15442
973.97	-42.09466
974.345	-28.06556
974.721	-53.12343
975.096	-12.02845
975.471	-6.01371
975.846	-58.13526
976.221	-21.05209
976.596	50.11706
976.971	33.07912
977.346	0
977.72	-36.08915
978.095	-24.06049
978.469	-7.0161
978.844	15.03622
979.218	9.02121
979.593	-20.04627
979.967	-66.15446
980.341	31.06886
980.715	45.10945
981.089	-16.03892
981.463	13.02874
981.837	0
982.21	-29.06361
982.584	-53.12586
982.957	-18.04407
983.331	-25.05645
983.704	47.11247
984.078	-19.04545
984.451	-24.05707
984.824	-33.07894
985.197	-52.12141
985.57	-40.09632
985.943	-25.05889
986.316	5.01167
986.688	10.02323
987.061	-1.00227
987.434	31.07927
987.806	-47.10954
988.179	-41.09383
988.551	-16.0393
988.923	-21.04997
989.295	-29.07019
989.667	-11.02592
990.039	34.08243
990.411	-56.12369
990.783	-12.02632
991.155	-19.0446
991.527	8.01863
991.898	-2.00486
992.27	19.0459
992.641	-30.07284
993.012	-51.1138
993.384	-43.09943
993.755	-19.04751
994.126	-32.07568
994.497	-65.15655
994.868	-2.00437
995.239	-18.04221
995.61	-30.07374
995.98	-28.06607
996.351	-17.04127
996.722	-12.0273
997.092	5.01151
997.462	-20.04596
997.833	-27.06154
998.203	-99.23283
998.573	-17.04136
998.943	-23.05268
999.313	-2.00467
999.683	-34.07979
1000.053	-54.11812
1000.423	-12.02804
1000.792	-57.14324
1001.162	-38.09053
1001.531	19.04531
1001.901	-44.10656
1002.27	-65.13866
1002.639	-81.20215
1003.009	7.01602
1003.378	-15.03742
1003.747	3.00679
1004.116	-45.1048
1004.485	2.00461
1004.853	-70.17162
1005.222	-86.20944
1005.591	13.02962
1005.959	-18.03946
1006.328	-11.02403
1006.696	-71.16711
1007.064	-44.10704
1007.433	-41.09916
1007.801	-43.10105
1008.169	-33.08035
1008.537	0
1008.905	11.02489
1009.273	-34.08113
1009.64	15.035
1010.008	-9.02071
1010.375	15.03441
1010.743	-49.10644
1011.11	14.03261
1011.478	25.06012
1011.845	-11.02486
1012.212	17.03745
1012.579	-22.05262
1012.946	18.04069
1013.313	-1.00228
1013.68	-14.03018
1014.047	-16.03695
1014.414	-57.13123
1014.78	-46.11224
1015.147	-10.0231
1015.513	-3.00699
1015.88	-30.07421
1016.246	-21.04966
1016.612	1.00218
1016.978	0
1017.344	-38.09182
1017.71	26.06052
1018.076	-30.06787
1018.442	8.02002
1018.808	9.022
1019.174	-32.07773
1019.539	-72.15463
1019.905	-12.02757
1020.27	-64.15441
1020.636	-32.07345
1021.001	14.03242
1021.366	-5.01168
1021.731	36.09064
1022.096	-26.0646
1022.461	-13.02988
1022.826	37.08508
1023.191	-17.04352
1023.556	-46.10432
1023.92	-23.05437
1024.285	-42.09872
1024.649	-27.06387
1025.014	-69.16543
1025.378	-20.04927
1025.742	-35.08388
1026.107	19.04102
1026.471	2.00447
1026.835	-2.0048
1027.199	-26.06097
1027.562	-32.07133
1027.926	-17.04004
1028.29	-51.12645
1028.654	-1.00221
1029.017	-21.05031
1029.381	1.00232
1029.744	4.0099
1030.107	-1.00228
1030.471	25.0579
1030.834	-68.14837
1031.197	26.06009
1031.56	-13.02949
1031.923	-13.03279
1032.286	35.07868
1032.648	-12.02733
1033.011	-5.01125
1033.374	-16.03593
1033.736	-45.11612
1034.099	-3.00708
1034.461	7.01728
1034.823	-14.03403
1035.185	-39.09482
1035.548	23.05418
1035.91	-19.044
1036.272	27.05922
1036.634	2.00472
1036.995	-22.04965
1037.357	-10.02372
1037.719	-34.08063
1038.08	37.08498
1038.442	-68.15758
1038.803	-71.16398
1039.165	-45.11035
1039.526	11.02566
1039.887	15.03451
1040.248	2.00486
1040.609	2.00472
1040.97	-58.13808
1041.331	17.04192
1041.692	40.09119
1042.053	-13.02836
1042.413	-22.04926
1042.774	34.0796
1043.134	-29.06602
1043.495	-2.00487
1043.855	30.07079
1044.215	-47.11316
1044.576	-37.08678
1044.936	-29.06396
1045.296	-20.04847
1045.656	-44.10402
1046.016	-46.10749
1046.375	-28.06599
1046.735	37.08181
1047.095	21.04723
1047.454	16.03191
1047.814	-29.0678
1048.173	-29.06615
1048.533	-17.03763
1048.892	-66.15585
1049.251	-20.04838
1049.61	-23.0551
1049.969	-12.02725
1050.328	-14.02921
1050.687	-30.07043
1051.046	-6.01407
1051.405	-36.08633
1051.763	0
1052.122	-69.16845
1052.48	17.04032
1052.839	15.03458
1053.197	-35.0799
1053.555	1.00214
1053.914	-26.06154
1054.272	-45.10348
1054.63	-27.06436
1054.988	-2.00464
1055.345	-28.05723
1055.703	27.06256
1056.061	9.02271
1056.419	41.1041
1056.776	-57.13248
1057.134	-76.16877
1057.491	-8.01944
1057.848	-18.04321
1058.206	-21.04697
1058.563	-53.11311
1058.92	13.02861
1059.277	-16.03828
1059.634	-54.12186
1059.991	48.11026
1060.348	-14.03069
1060.704	-10.02364
1061.061	2.00438
1061.418	-35.08273
1061.774	-39.09386
1062.131	-26.06826
1062.487	-44.09937
1062.843	-40.09716
1063.199	28.06709
1063.555	-21.04759
1063.911	-13.03165
1064.267	-17.03343
1064.623	-40.09585
1064.979	-85.18974
1065.335	-13.02975
1065.691	-59.13578
1066.046	15.03144
1066.402	-26.0567
1066.757	-11.02697
1067.112	-40.09512
1067.468	-26.06047
1067.823	-73.168
1068.178	-33.07697
1068.533	26.06054
1068.888	-17.03908
1069.243	-9.02153
1069.598	-33.07737
1069.952	29.06401
1070.307	-18.04353
1070.662	3.00697
1071.016	-25.05507
1071.371	-35.07768
1071.725	-39.08975
1072.079	28.06484
1072.434	-30.07117
1072.788	-52.11888
1073.142	37.08749
1073.496	-46.10592
1073.85	-49.11024
1074.203	-9.02116
1074.557	-11.02888
1074.911	-1.00228
1075.265	-13.02915
1075.618	23.05409
1075.971	-51.11802
1076.325	-33.08251
1076.678	-9.01987
1077.031	-76.1642
1077.385	-16.03377
1077.738	-63.13813
1078.091	-22.0489
1078.444	-25.05539
1078.796	-31.07452
1079.149	-12.02902
1079.502	-11.02533
1079.855	-14.03161
1080.207	-15.03568
1080.56	-19.04817
1080.912	-31.07316
1081.264	2.00467
1081.617	-20.0475
1081.969	-11.02713
1082.321	-17.04007
1082.673	-7.01568
1083.025	-41.0939
1083.377	235.50631
1083.728	-26.05836
1084.08	-11.02643
1084.432	-33.07697
1084.783	-40.08901
1085.135	-17.04161
1085.486	-13.02892
1085.838	-6.01437
1086.189	18.04249
1086.54	-34.07845
1086.891	10.02498
1087.242	64.15166
1087.593	-35.08145
1087.944	1.0022
1088.295	7.01522
1088.646	26.06187
1088.996	-28.06599
1089.347	-42.09972
1089.698	-6.01388
1090.048	-35.08817
1090.398	-20.04449
1090.749	-56.12936
1091.099	-29.07204
1091.449	-24.05841
1091.799	9.02177
1092.149	-17.04088
1092.499	-63.15041
1092.849	-26.0645
1093.199	-16.03854
1093.548	-18.04244
1093.898	-46.11186
1094.248	-29.07185
1094.597	-20.05043
1094.947	-2.00521
1095.296	19.04552
1095.645	-6.01509
1095.994	-21.04889
1096.343	-24.05902
1096.692	-1.0026
1097.041	-2.00537
1097.39	-41.09968
1097.739	1.00252
1098.088	-7.01813
1098.437	10.02592
1098.785	-27.07056
1099.134	-44.11245
1099.482	-8.02158
1099.83	0
1100.179	28.07211
1100.527	-41.10539
1100.875	7.01814
1101.223	9.0234
1101.571	-46.12447
1101.919	11.02858
1102.267	-37.10339
1102.615	3.00964
1102.962	-2.00642
1103.31	3.00964
1103.658	-10.0321
