Data from N1 R1 sample 2_Subt2__4__12-10-24-317.txt Node

Date: Wed Sep 17 12:10:24 PDT 2025
User: uwsun
Spectrometer: HDX01956
Trigger mode: 0
Integration Time (sec): 5.000000E-1
Scans to average: 1
Nonlinearity correction enabled: true
Boxcar width: 0
Storing dark spectrum: false
XAxis mode: Wavelengths
Number of Pixels in Spectrum: 2068
>>>>>Begin Spectral Data<<<<<
194.03	-8.02325
194.578	15.04868
195.127	4.01282
195.676	10.03214
196.225	9.024
196.773	-15.04202
197.321	7.01958
197.87	19.04962
198.418	66.17222
198.966	93.24693
199.513	60.15479
200.061	34.08805
200.609	34.09125
201.156	14.03152
201.704	49.12538
202.251	22.05961
202.798	17.04499
203.345	65.1634
203.892	44.1132
204.438	12.02919
204.985	18.04384
205.532	9.02418
206.078	42.1045
206.624	101.25571
207.17	80.19031
207.716	30.07524
208.262	29.0592
208.808	60.15323
209.354	91.2276
209.899	37.09488
210.445	45.1147
210.99	44.10955
211.535	66.15821
212.08	52.12303
212.625	51.12949
213.17	65.16801
213.715	64.14896
214.259	88.20805
214.804	37.09244
215.348	47.11097
215.892	55.13592
216.436	73.16894
216.98	50.11191
217.524	98.23661
218.068	82.2092
218.612	88.226
219.155	97.23141
219.698	28.06804
220.242	37.09284
220.785	85.20185
221.328	61.15257
221.871	127.32394
222.414	3.00758
222.956	-14.03436
223.499	-15.03441
224.041	12.02802
224.583	15.03236
225.126	55.12237
225.668	55.13522
226.21	39.10018
226.751	76.17116
227.293	12.02772
227.835	36.0896
228.376	38.08775
228.918	26.06572
229.459	74.18605
230	72.17456
230.541	40.09339
231.082	31.07672
231.622	22.05068
232.163	31.07591
232.704	104.26101
233.244	37.09308
233.784	43.10548
234.324	111.25064
234.864	4.00924
235.404	36.08597
235.944	17.04076
236.484	59.14869
237.023	41.09796
237.563	54.12717
238.102	34.08166
238.641	52.13196
239.18	19.04547
239.719	40.1014
240.258	5.01149
240.797	25.06076
241.335	40.09851
241.874	93.18278
242.412	72.17653
242.95	52.1273
243.488	-14.03225
244.026	44.10394
244.564	45.09429
245.102	118.26781
245.64	55.13267
246.177	3.00682
246.715	42.10232
247.252	28.06463
247.789	23.04371
248.326	51.12451
248.863	62.13825
249.4	82.18724
249.936	81.17159
250.473	74.17664
251.009	47.10911
251.546	13.02973
252.082	-4.00886
252.618	29.06612
253.154	49.11949
253.69	35.07984
254.226	41.09965
254.761	38.08673
255.297	25.05569
255.832	39.09422
256.367	36.08593
256.903	98.21925
257.438	71.16789
257.972	59.13306
258.507	-1.00235
259.042	67.14752
259.576	76.17017
260.111	33.07704
260.645	40.08794
261.179	49.11645
261.713	73.16524
262.247	6.014
262.781	45.09662
263.315	33.08122
263.849	45.11414
264.382	60.13943
264.915	85.2027
265.449	25.06208
265.982	54.12435
266.515	74.18304
267.048	63.13545
267.58	58.12676
268.113	63.13807
268.646	31.077
269.178	69.15587
269.71	95.21171
270.243	90.21014
270.775	57.1479
271.307	9.02182
271.838	70.16677
272.37	42.10431
272.902	67.15339
273.433	70.15719
273.965	62.15218
274.496	21.05292
275.027	89.22284
275.558	72.17744
276.089	55.1391
276.62	69.17526
277.15	63.15638
277.681	31.06802
278.211	80.19636
278.741	66.14857
279.272	61.1415
279.802	42.10586
280.332	57.1364
280.861	50.12109
281.391	84.19258
281.921	55.13302
282.45	33.08305
282.98	78.20457
283.509	116.26487
284.038	88.20312
284.567	79.18579
285.096	71.17404
285.625	37.08474
286.153	66.15971
286.682	40.09361
287.21	14.03401
287.739	59.14119
288.267	64.15773
288.795	60.15816
289.323	90.2131
289.851	101.2391
290.378	31.07049
290.906	59.14629
291.433	92.23065
291.961	79.1826
292.488	60.15048
293.015	66.15791
293.542	89.23044
294.069	49.12327
294.596	11.02743
295.122	69.16757
295.649	82.18134
296.175	58.14136
296.702	98.24125
297.228	67.16308
297.754	72.16414
298.28	136.31329
298.806	47.11508
299.332	116.26113
299.857	53.1226
300.383	58.1476
300.908	110.27179
301.433	92.2274
301.958	106.24447
302.483	52.13065
303.008	105.26262
303.533	54.14095
304.058	70.16517
304.582	85.20294
305.107	48.12657
305.631	104.23747
306.155	71.16769
306.679	59.14102
307.203	71.16717
307.727	59.14199
308.251	75.18711
308.775	106.25979
309.298	71.17346
309.822	75.19029
310.345	125.29992
310.868	114.27649
311.391	143.35183
311.914	97.2448
312.437	84.19451
312.96	102.24236
313.482	56.13378
314.005	68.17171
314.527	71.18637
315.049	108.27484
315.571	138.3118
316.093	111.27642
316.615	5.01231
317.137	118.25931
317.659	124.30142
318.18	87.20946
318.702	133.31291
319.223	80.16603
319.744	103.23448
320.265	109.26759
320.786	136.34058
321.307	85.21221
321.828	120.27279
322.348	77.18391
322.869	125.29958
323.389	398.7404
323.909	124.28508
324.43	127.30472
324.95	95.22028
325.47	140.34794
325.989	136.32401
326.509	140.31541
327.029	162.37035
327.548	83.19116
328.067	145.35279
328.587	189.47099
329.106	80.18326
329.625	136.35426
330.144	161.37479
330.662	148.34881
331.181	138.32739
331.7	111.26054
332.218	168.36515
332.736	125.295
333.255	169.39791
333.773	126.29961
334.291	163.40738
334.808	132.30019
335.326	129.29235
335.844	94.22455
336.361	202.51621
336.879	196.45941
337.396	191.46331
337.913	176.40672
338.43	183.41237
338.947	188.44772
339.464	168.36391
339.981	191.45111
340.497	161.39596
341.014	175.42594
341.53	127.28958
342.046	207.51359
342.562	193.47833
343.078	170.40065
343.594	209.49342
344.11	216.51341
344.626	191.47994
345.141	193.44077
345.657	202.45565
346.172	187.4502
346.687	170.39098
347.202	268.60253
347.717	216.51123
348.232	219.54038
348.747	255.58094
349.261	226.4933
349.776	232.54634
350.29	244.60305
350.805	264.64097
351.319	198.45883
351.833	229.52319
352.347	251.58498
352.861	270.62318
353.374	214.4839
353.888	317.75502
354.401	225.50825
354.915	270.60105
355.428	264.64697
355.941	242.55722
356.454	249.54729
356.967	213.49369
357.48	242.54252
357.993	252.61046
358.505	196.47446
359.018	296.70893
359.53	289.69098
360.042	278.61218
360.554	297.71092
361.066	266.63588
361.578	305.65937
362.09	243.57123
362.602	267.5871
363.113	353.80416
363.625	326.72058
364.136	268.58001
364.647	305.70661
365.158	265.60738
365.669	289.67564
366.18	299.68776
366.691	254.54994
367.201	322.75056
367.712	328.73075
368.222	336.75167
368.733	299.63699
369.243	315.68768
369.753	357.79518
370.263	388.90009
370.773	307.72812
371.282	385.88377
371.792	340.76469
372.301	317.74487
372.811	405.01405
373.32	391.81342
373.829	333.76167
374.338	378.8086
374.847	438.96081
375.356	411.92528
375.865	443.9023
376.373	444.95838
376.882	421.01384
377.39	506.14147
377.898	470.08771
378.407	524.10783
378.915	542.09938
379.423	535.15506
379.93	624.32189
380.438	553.22911
380.946	618.31144
381.453	681.4726
381.96	721.53793
382.468	722.51443
382.975	789.70416
383.482	809.57808
383.989	854.91558
384.495	839.70014
385.002	897.59565
385.509	962.94122
386.015	1002.6844
386.521	1107.04099
387.028	1110.03891
387.534	1081.86555
388.04	1219.33303
388.546	1260.151
389.051	1283.16772
389.557	1384.41669
390.063	1462.42241
390.568	1571.73439
391.073	1548.44887
391.578	1661.8785
392.084	1706.66174
392.589	1762.52645
393.093	1917.01078
393.598	2122.96821
394.103	2261.18997
394.607	2543.35628
395.112	2707.51364
395.616	2894.47577
396.12	3085.1362
396.624	3411.27994
397.128	3712.35336
397.632	4108.05723
398.136	4468.73829
398.639	4720.75663
399.143	5232.86172
399.646	5832.21691
400.15	6637.84422
400.653	7321.7947
401.156	8281.40371
401.659	9699.9657
402.162	11802.03091
402.664	15745.54503
403.167	22388.12454
403.67	43939.55274
404.172	61420.2474
404.674	63858.43483
405.176	63738.15102
405.678	63977.72923
406.18	64011.81569
406.682	63863.44694
407.184	63926.60148
407.686	63841.39382
408.187	64025.8516
408.688	39443.05891
409.19	27628.26676
409.691	22229.82238
410.192	18565.79116
410.693	16298.37139
411.194	14608.36752
411.694	13863.35489
412.195	12866.61709
412.696	11660.23118
413.196	10765.71386
413.696	10662.87086
414.196	10681.19266
414.696	10514.27857
415.196	9864.39357
415.696	8937.3197
416.196	7202.8857
416.695	5593.28002
417.195	4913.78985
417.694	4686.00435
418.194	4259.30312
418.693	4067.87253
419.192	3870.15349
419.691	3829.07418
420.19	3825.29496
420.688	3684.47399
421.187	3477.43313
421.685	3234.2146
422.184	2984.31503
422.682	2480.84622
423.18	2216.00657
423.678	1961.84387
424.176	1773.70668
424.674	1715.5697
425.172	1614.67186
425.669	1476.67215
426.167	1436.45059
426.664	1244.17
427.161	1152.08994
427.659	1107.16493
428.156	1079.82465
428.652	989.0801
429.149	967.95888
429.646	944.74493
430.143	825.70141
430.639	811.6568
431.135	783.70848
431.632	689.3914
432.128	673.43854
432.624	720.64726
433.12	675.36433
433.616	632.23613
434.111	614.31257
434.607	563.2265
435.103	511.97974
435.598	561.05376
436.093	458.99198
436.588	533.09415
437.083	475.98463
437.578	442.95488
438.073	447.04358
438.568	414.95773
439.062	382.77044
439.557	371.8202
440.051	339.72471
440.546	342.73856
441.04	330.75587
441.534	339.81297
442.028	320.7365
442.522	282.65139
443.015	265.54811
443.509	340.78627
444.002	315.73642
444.496	308.63804
444.989	270.63111
445.482	245.58714
445.975	288.63925
446.468	319.65802
446.961	322.66585
447.454	239.51935
447.947	228.52855
448.439	255.60411
448.931	287.63213
449.424	283.69185
449.916	245.57818
450.408	236.52297
450.9	206.48738
451.392	251.61546
451.884	212.4741
452.375	185.44758
452.867	232.5051
453.358	263.58
453.849	265.54492
454.341	239.522
454.832	209.43945
455.323	289.68966
455.814	237.5242
456.304	172.39004
456.795	216.47905
457.285	211.45148
457.776	190.42262
458.266	221.50857
458.756	190.43767
459.247	196.45672
459.737	211.49602
460.226	260.57015
460.716	192.4474
461.206	196.45654
461.695	169.40857
462.185	187.43308
462.674	167.37401
463.163	183.40105
463.653	215.4441
464.142	157.37311
464.63	165.39121
465.119	197.44573
465.608	205.46666
466.096	100.21559
466.585	146.32772
467.073	138.32018
467.561	154.3621
468.05	165.37166
468.538	159.38019
469.026	111.26013
469.513	135.28073
470.001	150.33822
470.489	131.30664
470.976	167.3817
471.463	148.36124
471.951	157.3817
472.438	143.32974
472.925	154.35532
473.412	104.24939
473.899	139.31335
474.385	122.29422
474.872	127.29168
475.359	151.36381
475.845	117.23961
476.331	103.21734
476.817	106.25486
477.303	121.27734
477.789	61.1448
478.275	90.22123
478.761	60.14202
479.247	118.25975
479.732	63.15649
480.218	104.26914
480.703	71.17385
481.188	130.27726
481.673	108.24551
482.158	101.21649
482.643	93.23512
483.128	139.3186
483.612	153.3573
484.097	67.16076
484.581	90.20658
485.066	109.26372
485.55	138.3002
486.034	88.18964
486.518	161.37716
487.002	41.09965
487.486	77.1856
487.969	51.12367
488.453	53.13146
488.936	59.13268
489.42	76.16744
489.903	57.14128
490.386	2.00419
490.869	88.19168
491.352	61.1462
491.835	15.03101
492.318	12.02719
492.8	77.15898
493.283	79.20009
493.765	0
494.247	57.13243
494.73	35.0778
495.212	38.09015
495.694	54.12717
496.175	28.06753
496.657	72.16963
497.139	23.03997
497.62	53.12731
498.102	30.07483
498.583	-30.07459
499.064	23.05162
499.545	68.15446
500.026	50.11325
500.507	20.04631
500.988	82.20342
501.469	4.01003
501.949	54.13298
502.43	53.1276
502.91	98.20638
503.39	44.10896
503.87	72.1695
504.35	20.04703
504.83	46.10079
505.31	10.02425
505.79	-6.01432
506.269	11.02544
506.749	40.09159
507.228	52.12237
507.707	74.16453
508.187	42.10049
508.666	60.14825
509.145	8.01886
509.623	79.18391
510.102	52.12565
510.581	62.14919
511.059	86.21483
511.538	75.19211
512.016	74.17651
512.494	46.11056
512.972	75.17872
513.45	55.12824
513.928	76.18384
514.406	95.23097
514.884	59.15171
515.361	86.20442
515.839	139.31489
516.316	85.20527
516.793	59.14853
517.27	77.18419
517.747	88.22411
518.224	44.10156
518.701	69.15211
519.178	92.2284
519.654	77.18144
520.131	102.25017
520.607	21.05155
521.083	75.16921
521.56	54.12722
522.036	91.19674
522.512	76.18675
522.987	120.28546
523.463	86.20253
523.939	104.25564
524.414	85.19334
524.89	57.13593
525.365	44.09966
525.84	34.08203
526.315	78.18804
526.79	78.17523
527.265	113.25828
527.74	25.06096
528.215	30.07029
528.689	33.07272
529.164	19.0411
529.638	39.09895
530.112	35.0826
530.587	64.13691
531.061	23.05598
531.534	38.09182
532.008	25.06112
532.482	34.07851
532.956	4.01028
533.429	61.14909
533.903	30.06615
534.376	34.07557
534.849	24.05553
535.322	24.05696
535.795	14.03404
536.268	73.17609
536.741	-3.0072
537.213	32.07392
537.686	37.0908
538.158	33.07549
538.631	7.0171
539.103	33.07497
539.575	30.06223
540.047	-5.01105
540.519	32.0768
540.991	56.13648
541.463	-14.03411
541.934	-22.05054
542.406	51.12269
542.877	7.01597
543.348	49.11851
543.82	40.09753
544.291	79.18376
544.762	23.05514
545.233	99.24895
545.703	38.08505
546.174	40.09317
546.645	61.14759
547.115	50.12095
547.585	32.07407
548.056	99.24187
548.526	64.15201
548.996	41.09841
549.466	90.21754
549.935	73.17422
550.405	82.17982
550.875	95.22438
551.344	51.1219
551.814	101.23002
552.283	93.20227
552.752	109.25365
553.221	83.18313
553.69	127.28419
554.159	160.39154
554.628	153.34167
555.096	145.36358
555.565	91.20061
556.033	174.40689
556.502	92.22095
556.97	151.33092
557.438	137.31742
557.906	158.36643
558.374	159.36254
558.842	154.36295
559.31	158.3478
559.777	158.37974
560.245	101.23029
560.712	154.34681
561.18	170.36902
561.647	166.36111
562.114	222.49359
562.581	206.49359
563.048	200.44634
563.514	274.6615
563.981	222.49318
564.448	259.56328
564.914	244.547
565.381	259.56975
565.847	275.61433
566.313	225.50576
566.779	273.58918
567.245	238.53245
567.711	248.57286
568.176	242.52419
568.642	306.73622
569.108	305.71584
569.573	286.63297
570.038	321.63506
570.504	349.74415
570.969	330.77677
571.434	374.77892
571.899	405.89684
572.363	376.80954
572.828	433.92323
573.293	387.83053
573.757	409.88568
574.222	421.87621
574.686	427.91241
575.15	431.96553
575.614	477.03535
576.078	425.92778
576.542	416.88217
577.006	363.77198
577.469	427.97858
577.933	468.9816
578.396	469.02314
578.86	410.90053
579.323	474.05174
579.786	449.89746
580.249	481.04095
580.712	453.01818
581.175	416.95777
581.637	423.89643
582.1	407.82483
582.563	455.88753
583.025	395.90127
583.487	493.92196
583.95	354.71364
584.412	470.90308
584.874	475.06685
585.336	436.96045
585.797	424.85476
586.259	399.87288
586.721	384.84521
587.182	383.82762
587.643	452.94805
588.105	364.81027
588.566	371.72401
589.027	414.94784
589.488	412.88132
589.949	396.90155
590.41	385.70998
590.87	438.92923
591.331	379.77616
591.791	392.85014
592.252	378.82747
592.712	388.87226
593.172	400.8501
593.632	471.96194
594.092	337.71045
594.552	353.7203
595.011	323.70246
595.471	348.7454
595.931	342.73033
596.39	357.80966
596.849	361.79243
597.308	293.59516
597.768	357.8727
598.227	334.76135
598.685	317.68677
599.144	344.76766
599.603	295.65901
600.062	250.50747
600.52	339.72471
600.978	318.71463
601.437	371.79242
601.895	336.68047
602.353	342.70911
602.811	333.71158
603.269	324.73199
603.727	354.80269
604.184	356.76484
604.642	304.71335
605.099	352.77641
605.557	318.7357
606.014	320.65341
606.471	328.78256
606.928	324.6832
607.385	365.8633
607.842	344.74542
608.299	341.75389
608.755	352.80561
609.212	334.7049
609.668	332.70929
610.125	335.76501
610.581	376.82726
611.037	319.67782
611.493	314.69638
611.949	385.88058
612.405	345.66048
612.861	335.72824
613.316	359.81056
613.772	344.74351
614.227	375.84702
614.683	330.65975
615.138	352.77804
615.593	347.75946
616.048	364.78202
616.503	337.77423
616.958	284.68097
617.412	343.76938
617.867	305.64864
618.321	345.66784
618.776	286.60042
619.23	324.71885
619.684	319.67339
620.138	308.66884
620.592	295.68236
621.046	342.76288
621.5	280.6442
621.954	291.61186
622.407	342.71101
622.861	298.68916
623.314	288.62062
623.768	300.67419
624.221	211.40081
624.674	295.64839
625.127	312.68762
625.58	273.58489
626.033	302.62534
626.485	198.45974
626.938	294.66666
627.39	260.58263
627.843	279.61348
628.295	304.66494
628.747	314.70998
629.199	293.63397
629.651	240.52895
630.103	256.56256
630.555	267.53591
631.006	265.58906
631.458	299.66822
631.909	199.43151
632.361	240.53183
632.812	245.54438
633.263	272.56221
633.714	257.51917
634.165	273.62496
634.616	270.60951
635.067	299.62314
635.518	263.59626
635.968	288.53388
636.419	311.64123
636.869	337.75157
637.319	293.64589
637.769	322.68256
638.219	319.71114
638.669	305.68725
639.119	287.6533
639.569	293.66804
640.019	342.74235
640.468	298.63279
640.918	330.73764
641.367	300.63565
641.816	336.70103
642.265	416.89834
642.714	334.72036
643.163	377.81291
643.612	393.89887
644.061	347.6939
644.51	331.71465
644.958	398.81378
645.406	340.765
645.855	341.77965
646.303	403.86337
646.751	389.8377
647.199	345.73338
647.647	369.80078
648.095	346.73983
648.543	386.72236
648.99	380.85288
649.438	394.8461
649.885	418.96851
650.333	427.75472
650.78	386.87061
651.227	395.90127
651.674	368.78414
652.121	390.89327
652.568	378.86649
653.015	350.81453
653.461	333.74603
653.908	385.82197
654.354	387.85842
654.801	342.75373
655.247	360.72607
655.693	378.92247
656.139	366.81708
656.585	353.79083
657.031	307.68326
657.477	392.79316
657.922	332.70898
658.368	334.77393
658.813	356.75627
659.259	391.88351
659.704	345.76878
660.149	359.77377
660.594	362.80415
661.039	339.72502
661.484	372.82258
661.929	357.78068
662.373	336.7955
662.818	354.82221
663.262	408.91571
663.707	420.99276
664.151	402.91076
664.595	389.87648
665.039	410.94509
665.483	391.92906
665.927	396.86211
666.371	396.8654
666.814	378.83689
667.258	442.98141
667.701	404.79235
668.145	426.98157
668.588	438.00028
669.031	374.8201
669.474	387.86413
669.917	383.7769
670.36	427.98681
670.803	425.94896
671.245	376.70956
671.688	372.84555
672.13	437.90667
672.573	397.93388
673.015	486.06679
673.457	417.83311
673.899	458.01407
674.341	392.87764
674.783	375.83803
675.225	452.02112
675.666	469.0499
676.108	434.85682
676.549	450.95926
676.991	439.87991
677.432	471.83947
677.873	416.87409
678.314	505.08693
678.755	499.11855
679.196	484.00121
679.637	425.9372
680.078	493.04195
680.518	431.9074
680.959	467.01274
681.399	483.08928
681.839	495.09
682.28	497.12319
682.72	452.94302
683.16	527.18868
683.6	460.95247
684.039	460.85662
684.479	455.02937
684.919	506.07484
685.358	440.00607
685.798	483.15024
686.237	488.05455
686.676	482.98597
687.115	498.06012
687.554	546.17054
687.993	559.0944
688.432	526.07368
688.871	562.1447
689.309	553.18633
689.748	542.99584
690.186	498.05
690.625	553.15877
691.063	540.15367
691.501	576.27156
691.939	570.28606
692.377	573.23723
692.815	633.36403
693.253	582.22797
693.69	576.10832
694.128	579.25073
694.565	598.25073
695.003	605.37705
695.44	599.2531
695.877	613.26885
696.314	617.12333
696.751	620.22637
697.188	671.34756
697.625	648.25431
698.061	595.25955
698.498	608.26382
698.934	608.2801
699.371	607.25697
699.807	650.33684
700.243	663.39452
700.679	689.31442
701.115	645.30957
701.551	643.29956
701.987	620.17369
702.422	710.45975
702.858	692.42717
703.294	704.3837
703.729	652.38549
704.164	709.45606
704.599	726.37609
705.035	673.29813
705.47	682.43673
705.904	688.37063
706.339	678.34003
706.774	757.50375
707.209	710.41649
707.643	743.51774
708.078	728.52032
708.512	662.45311
708.946	660.35622
709.38	707.44412
709.814	705.36061
710.248	717.51154
710.682	756.54747
711.116	720.51023
711.549	631.42066
711.983	698.38156
712.416	779.56333
712.85	685.47243
713.283	723.45882
713.716	672.4491
714.149	672.33995
714.582	675.30075
715.015	656.40186
715.448	697.52456
715.881	684.24526
716.313	691.38587
716.746	687.40131
717.178	612.29192
717.61	648.44737
718.043	659.4177
718.475	641.35825
718.907	592.30747
719.339	569.13453
719.77	657.36733
720.202	558.24511
720.634	575.25215
721.065	576.19561
721.497	563.2239
721.928	520.13772
722.359	511.11729
722.79	494.06298
723.221	430.97616
723.652	515.17716
724.083	507.0135
724.514	525.0709
724.945	465.98284
725.375	474.99945
725.806	443.99445
726.236	498.14897
726.666	454.96862
727.096	455.00846
727.526	480.12317
727.956	451.93196
728.386	405.91066
728.816	424.99756
729.246	431.97307
729.675	337.764
730.105	388.87262
730.534	369.79088
730.964	367.8465
731.393	349.79216
731.822	342.8147
732.251	386.90465
732.68	349.74479
733.109	341.78216
733.537	343.78012
733.966	326.76048
734.395	346.73919
734.823	321.6559
735.251	276.6228
735.68	281.6505
736.108	245.57952
736.536	283.61992
736.964	251.54774
737.392	284.66669
737.82	239.53899
738.247	284.63326
738.675	304.66466
739.102	211.50143
739.53	262.63826
739.957	266.65162
740.384	205.4693
740.811	196.46516
741.238	214.50023
741.665	233.51923
742.092	138.30505
742.519	175.41732
742.945	252.57932
743.372	211.50007
743.798	168.41325
744.225	157.35639
744.651	134.32377
745.077	166.39745
745.503	213.48801
745.929	203.4692
746.355	149.34836
746.781	151.35664
747.207	170.38754
747.632	213.50462
748.058	247.59013
748.483	133.29467
748.908	166.39745
749.334	206.48436
749.759	175.39982
750.184	147.3418
750.609	163.38304
751.033	128.28767
751.458	161.34286
751.883	78.18704
752.307	140.31735
752.732	189.46362
753.156	101.24141
753.58	130.29516
754.005	121.29352
754.429	114.26219
754.853	140.33674
755.277	138.31612
755.7	146.34904
756.124	85.20604
756.548	78.17947
756.971	105.24848
757.394	68.1698
757.818	136.33923
758.241	117.28839
758.664	94.23098
759.087	80.17595
759.51	112.26724
759.933	83.19588
760.356	81.20427
760.778	77.18454
761.201	40.09471
761.623	79.1826
762.046	86.19479
762.468	114.26345
762.89	82.19439
763.312	110.26106
763.734	105.24549
764.156	91.21851
764.578	70.15506
765	129.30314
765.421	62.15504
765.843	50.12823
766.264	12.02794
766.686	62.14998
767.107	52.12327
767.528	76.19088
767.949	60.14874
768.37	98.23617
768.791	61.14245
769.212	67.16515
769.632	87.19821
770.053	24.06166
770.473	14.03318
770.894	-2.00485
771.314	58.13313
771.734	64.14519
772.154	30.07508
772.575	35.07884
772.994	26.05767
773.414	60.13871
773.834	8.01961
774.254	35.0836
774.673	72.17174
775.093	50.12191
775.512	2.00488
775.931	55.13637
776.351	67.16308
776.77	17.04112
777.189	26.06059
777.607	15.03768
778.026	67.16259
778.445	6.01504
778.864	28.06946
779.282	53.1229
779.701	4.00988
780.119	15.03742
780.537	-18.04425
780.955	48.11829
781.373	32.07732
781.791	97.21303
782.209	16.03528
782.627	16.04145
783.045	36.07975
783.462	50.12463
783.88	48.12159
784.297	9.02227
784.715	23.05827
785.132	13.03066
785.549	30.07331
785.966	35.08611
786.383	35.08468
786.8	48.10832
787.217	37.08654
787.633	49.1206
788.05	-20.04574
788.466	3.00683
788.883	16.04044
789.299	-34.07973
789.715	72.17042
790.131	43.10427
790.547	20.04876
790.963	36.08699
791.379	-7.01743
791.795	15.03303
792.21	-18.0411
792.626	-12.02772
793.041	44.10543
793.457	16.0384
793.872	9.0205
794.287	42.0993
794.702	-18.04287
795.117	15.03669
795.532	3.00745
795.947	-16.03724
796.362	-32.07357
796.776	35.0779
797.191	2.00481
797.605	20.0465
798.02	-17.0406
798.434	20.04332
798.848	81.19561
799.262	-1.00243
799.676	29.06889
800.09	37.08847
800.504	28.06579
800.918	-2.00448
801.331	-46.11632
801.745	10.02225
802.158	14.03385
802.572	37.08715
802.985	1.00234
803.398	9.02087
803.811	-14.03455
804.224	-20.0482
804.637	6.01403
805.05	-17.03826
805.462	16.03808
805.875	8.02039
806.288	-25.05973
806.7	-33.08074
807.112	12.02681
807.525	-33.07873
807.937	5.01212
808.349	-6.0146
808.761	35.08401
809.173	16.03797
809.584	18.04305
809.996	-33.07936
810.408	19.04848
810.819	-13.02999
811.231	64.16637
811.642	12.02918
812.053	25.05948
812.464	3.00693
812.875	33.08254
813.286	52.13116
813.697	12.02653
814.108	24.05665
814.519	70.15124
814.929	22.05444
815.34	-9.0211
815.75	46.11449
816.16	-36.08699
816.571	17.0429
816.981	43.09678
817.391	-17.03975
817.801	-13.03177
818.211	64.14637
818.62	16.0377
819.03	24.05694
819.44	-63.15968
819.849	-7.01704
820.259	-10.02475
820.668	-1.00241
821.077	33.08038
821.486	-17.03947
821.895	19.04488
822.304	-11.0285
822.713	30.06834
823.122	18.04357
823.531	-29.06626
823.939	31.07359
824.348	-1.00235
824.756	-3.00729
825.164	1.00244
825.573	-4.00981
825.981	33.07876
826.389	18.04385
826.797	69.1697
827.205	-18.04069
827.612	5.01194
828.02	-48.11009
828.428	8.01982
828.835	35.09022
829.243	54.12286
829.65	-4.00979
830.057	-20.04717
830.464	41.09789
830.871	23.05361
831.278	19.04458
831.685	16.03435
832.092	0
832.499	65.13679
832.905	30.07309
833.312	-19.04136
833.718	80.19286
834.124	15.03329
834.531	6.01456
834.937	8.02008
835.343	3.00697
835.749	-16.03583
836.155	32.08138
836.561	23.05493
836.966	-2.00474
837.372	15.03691
837.777	3.00731
838.183	10.02137
838.588	33.0799
838.993	30.07071
839.399	22.05241
839.804	-30.07178
840.209	65.16158
840.613	26.05562
841.018	4.0098
841.423	26.06481
841.828	11.02721
842.232	10.02361
842.637	57.13076
843.041	6.01507
843.445	29.06987
843.849	-27.06572
844.253	34.07767
844.657	28.06885
845.061	68.15044
845.465	17.03983
845.869	-16.0362
846.272	-4.00954
846.676	-26.06025
847.079	27.06719
847.483	41.09845
847.886	41.09518
848.289	16.04219
848.692	-8.01961
849.095	11.02549
849.498	-4.00972
849.901	-12.02649
850.304	5.01158
850.707	22.0542
851.109	29.07061
851.512	25.05967
851.914	-23.05717
852.316	32.07933
852.718	25.06442
853.121	14.0333
853.523	-22.04973
853.925	-4.01031
854.326	15.03669
854.728	4.01006
855.13	2.00508
855.531	-3.00699
855.933	8.01841
856.334	35.08516
856.736	65.14065
857.137	48.10832
857.538	-11.0272
857.939	17.04138
858.34	-18.04228
858.741	-7.0178
859.142	-10.02323
859.542	35.09028
859.943	-4.00967
860.343	-3.00729
860.744	70.16363
861.144	37.08797
861.544	3.00711
861.945	-6.01488
862.345	-5.01183
862.745	3.00731
863.145	7.01588
863.544	16.03939
863.944	31.07057
864.344	-31.07424
864.743	31.07418
865.143	47.11777
865.542	17.03754
865.941	46.11022
866.34	4.00916
866.74	16.04188
867.139	22.05171
867.537	-14.0344
867.936	9.0211
868.335	-19.04709
868.734	9.02241
869.132	-17.03789
869.531	34.07823
869.929	-3.00667
870.327	-7.01631
870.726	6.01436
871.124	-35.07913
871.522	-5.01236
871.92	19.04538
872.318	0
872.715	2.00473
873.113	16.0375
873.511	23.05525
873.908	5.0125
874.306	-11.0269
874.703	-9.02169
875.1	1.00245
875.497	14.03233
875.894	46.11077
876.291	26.06183
876.688	-53.13462
877.085	-10.02314
877.482	56.13475
877.878	32.07542
878.275	19.04695
878.671	-26.05437
879.068	44.10209
879.464	27.06295
879.86	0
880.256	-17.04017
880.652	-2.00495
881.048	-19.04536
881.444	-10.02275
881.84	8.01972
882.236	5.01219
882.631	71.16795
883.027	40.09277
883.422	-1.00247
883.817	-30.07437
884.213	33.08197
884.608	63.15185
885.003	-7.01624
885.398	-19.04645
885.793	2.00485
886.188	5.01204
886.582	-10.02474
886.977	17.03867
887.371	24.0583
887.766	-34.08327
888.16	-21.05018
888.554	1.00238
888.949	25.06067
889.343	7.01647
889.737	-12.03159
890.131	-9.02199
890.525	34.08472
890.918	-31.07619
891.312	29.0661
891.706	-13.03322
892.099	46.11245
892.492	37.07577
892.886	-6.01422
893.279	2.00494
893.672	26.06457
894.065	42.10152
894.458	-8.01937
894.851	19.04465
895.244	-21.05233
895.637	37.08614
896.029	64.15107
896.422	-12.02813
896.814	24.05746
897.206	41.09533
897.599	45.10694
897.991	44.10306
898.383	44.1001
898.775	50.10942
899.167	10.02292
899.559	-13.03175
899.951	25.0562
900.342	-21.05157
900.734	34.08358
901.125	-12.0305
901.517	28.0665
901.908	-3.00686
902.299	13.03088
902.69	90.20409
903.082	56.13008
903.473	39.09144
903.863	-21.05197
904.254	29.06564
904.645	22.05215
905.036	49.11654
905.426	2.00435
905.817	-16.03793
906.207	-6.0137
906.597	40.09089
906.987	12.02992
907.378	75.18296
907.768	-12.0311
908.158	3.00707
908.547	35.0888
908.937	-15.03703
909.327	2.0047
909.717	-7.01699
910.106	-13.03018
910.495	-2.00479
910.885	41.10047
911.274	8.01935
911.663	-16.03918
912.052	9.02123
912.441	60.14798
912.83	30.06562
913.219	23.05811
913.608	12.02858
913.997	-20.04942
914.385	28.06445
914.774	43.10042
915.162	18.04194
915.55	-4.00931
915.939	35.08605
916.327	-15.03613
916.715	59.14709
917.103	-3.00703
917.491	63.1488
917.878	16.03793
918.266	7.01756
918.654	27.06734
919.041	40.10241
919.429	3.00685
919.816	23.05632
920.203	48.11304
920.591	21.05046
920.978	20.0473
921.365	31.07913
921.752	-25.05703
922.139	50.10353
922.525	47.1089
922.912	6.01411
923.299	19.04576
923.685	-37.09365
924.072	-23.05013
924.458	5.01207
924.844	6.0144
925.231	1.00223
925.617	5.0125
926.003	2.00495
926.389	-2.0049
926.774	-12.02949
927.16	56.13321
927.546	21.05285
927.931	-8.01926
928.317	33.07235
928.702	9.02046
929.088	50.11619
929.473	23.05715
929.858	10.02387
930.243	23.05388
930.628	40.09475
931.013	3.00723
931.398	5.01089
931.783	-3.0076
932.167	58.1376
932.552	-20.04865
932.937	25.05951
933.321	28.06852
933.705	-30.07295
934.09	-8.01922
934.474	-11.02506
934.858	24.06047
935.242	-18.04034
935.626	34.08459
936.009	17.04443
936.393	21.05252
936.777	14.03501
937.16	51.12912
937.544	10.02234
937.927	-5.01242
938.311	-7.01645
938.694	39.10011
939.077	12.02775
939.46	-28.0654
939.843	9.01753
940.226	-16.03978
940.609	25.05594
940.991	-12.02954
941.374	-6.01434
941.757	-19.04541
942.139	38.08214
942.522	8.01813
942.904	32.07407
943.286	22.05386
943.668	53.13385
944.05	-8.01916
944.432	-35.08395
944.814	2.00472
945.196	-28.06714
945.578	45.10463
945.959	-25.05629
946.341	-6.01399
946.722	14.03148
947.104	16.03693
947.485	12.02695
947.866	61.14898
948.247	23.05674
948.628	-41.0956
949.009	-5.01246
949.39	-10.02402
949.771	-37.08164
950.152	47.11101
950.532	30.07339
950.913	29.06722
951.293	-2.00532
951.674	13.03038
952.054	52.1264
952.434	21.05048
952.814	-4.0091
953.194	-36.09094
953.574	35.08254
953.954	15.03395
954.334	31.07531
954.714	-3.00713
955.093	9.0214
955.473	44.10724
955.853	30.07518
956.232	-13.03478
956.611	-3.00687
956.99	20.04885
957.37	-7.01722
957.749	-57.13076
958.128	16.0393
958.506	-13.03296
958.885	-1.00244
959.264	3.00723
959.643	21.04629
960.021	9.02178
960.4	18.03916
960.778	-20.04714
961.156	-29.07061
961.535	-51.11474
961.913	57.12829
962.291	0
962.669	-9.02232
963.047	35.08678
963.424	57.142
963.802	11.02624
964.18	-5.01207
964.557	9.01986
964.935	45.10203
965.312	39.09878
965.69	-4.00962
966.067	-39.09151
966.444	-9.02108
966.821	1.00251
967.198	3.00695
967.575	45.10542
967.952	17.03845
968.329	13.03079
968.705	73.14937
969.082	43.10802
969.458	10.02355
969.835	-1.00236
970.211	11.02771
970.587	18.04343
970.963	17.04183
971.339	-14.03586
971.715	51.12265
972.091	-3.00715
972.467	-20.04778
972.843	38.09203
973.219	58.13163
973.594	-2.0051
973.97	-37.08331
974.345	22.051
974.721	-5.01153
975.096	-9.02132
975.471	27.06129
975.846	-16.03701
976.221	16.03942
976.596	38.08918
976.971	31.07435
977.346	6.01335
977.72	11.027
978.095	13.03255
978.469	5.01147
978.844	15.03622
979.218	15.0353
979.593	63.14336
979.967	-43.10018
980.341	4.00893
980.715	27.06589
981.089	7.01696
981.463	-6.01332
981.837	27.06446
982.21	-18.03939
982.584	9.02112
982.957	21.05104
983.331	-14.03154
983.704	17.04091
984.078	5.01191
984.451	-49.11708
984.824	11.02609
985.197	-35.08145
985.57	11.02623
985.943	11.02573
986.316	-4.00935
986.688	61.14027
987.061	32.0723
987.434	33.08435
987.806	33.0757
988.179	-25.05703
988.551	-2.0049
988.923	-45.10756
989.295	29.06942
989.667	-71.16925
990.039	65.15667
990.411	-59.13039
990.783	-14.03071
991.155	5.01168
991.527	52.12008
991.898	14.03393
992.27	32.07712
992.641	13.03131
993.012	-16.03544
993.384	0
993.755	-5.01247
994.126	14.03282
994.497	-17.04057
994.868	-2.00437
995.239	-16.0375
995.61	8.01953
995.98	15.0351
996.351	-8.01939
996.722	53.11899
997.092	-21.04858
997.462	13.02968
997.833	38.08547
998.203	-12.02774
998.573	-5.01214
998.943	-29.0665
999.313	49.11326
999.683	27.06261
1000.053	-49.10707
1000.423	-8.01868
1000.792	-32.08005
1001.162	-58.13871
1001.531	-24.05771
1001.901	2.0048
1002.27	-18.03801
1002.639	1.00246
1003.009	18.0411
1003.378	-17.04243
1003.747	-11.02497
1004.116	-43.1001
1004.485	-15.03473
1004.853	-5.01211
1005.222	-74.17981
1005.591	-12.02748
1005.959	-9.01969
1006.328	38.08214
1006.696	-24.05597
1007.064	-40.09723
1007.433	9.02156
1007.801	-4.00933
1008.169	-32.0779
1008.537	62.13011
1008.905	27.06089
1009.273	5.01184
1009.64	-11.0258
1010.008	8.01835
1010.375	6.01379
1010.743	18.03854
1011.11	61.14077
1011.478	41.0983
1011.845	-4.00903
1012.212	55.12018
1012.579	30.07104
1012.946	19.04294
1013.313	16.03628
1013.68	19.04067
1014.047	-36.08346
1014.414	-28.06409
1014.78	5.01208
1015.147	23.05278
1015.513	-3.00699
1015.88	43.10494
1016.246	2.00471
1016.612	0
1016.978	32.07598
1017.344	9.02155
1017.71	-2.00468
1018.076	-15.03383
1018.442	52.1291
1018.808	46.11165
1019.174	-21.0509
1019.539	-34.07242
1019.905	-12.02757
1020.27	-29.0695
1020.636	34.07701
1021.001	37.08529
1021.366	35.08113
1021.731	56.1405
1022.096	-10.02477
1022.461	50.11348
1022.826	39.08964
1023.191	-8.02045
1023.556	2.00449
1023.92	11.02583
1024.285	-41.09635
1024.649	-23.05437
1025.014	-9.02133
1025.378	29.0708
1025.742	16.03797
1026.107	26.05605
1026.471	17.03784
1026.835	23.05495
1027.199	-42.0988
1027.562	-39.08706
1027.926	-7.01646
1028.29	-10.02461
1028.654	32.07009
1029.017	42.09941
1029.381	8.01851
1029.744	35.08611
1030.107	45.10178
1030.471	65.14935
1030.834	-15.03236
1031.197	5.0116
1031.56	-39.08893
1031.923	-8.02016
1032.286	54.12091
1032.648	-10.02277
1033.011	14.03139
1033.374	-23.05172
1033.736	-6.01538
1034.099	11.0259
1034.461	5.01235
1034.823	-4.00971
1035.185	-26.06306
1035.548	22.05183
1035.91	5.01153
1036.272	20.04393
1036.634	48.11238
1036.995	-20.04511
1037.357	6.01419
1037.719	8.01882
1038.08	42.09637
1038.442	-34.07826
1038.803	4.0091
1039.165	-30.07336
1039.526	-22.05165
1039.887	12.02762
1040.248	14.03393
1040.609	3.00708
1040.97	8.0188
1041.331	41.10065
1041.692	32.07307
1042.053	47.10122
1042.413	31.06866
1042.774	-11.02598
1043.134	16.03609
1043.495	15.0364
1043.855	36.08485
1044.215	-8.01912
1044.576	-31.07262
1044.936	16.03495
1045.296	37.08871
1045.656	-15.03526
1046.016	22.05072
1046.375	-21.04943
1046.735	63.13853
1047.095	-18.0408
1047.454	-3.00601
1047.814	0
1048.173	11.02489
1048.533	-44.09795
1048.892	-4.00933
1049.251	-8.01931
1049.61	-17.04068
1049.969	11.02486
1050.328	23.04759
1050.687	1.00233
1051.046	-2.00469
1051.405	-10.02386
1051.763	11.02463
1052.122	-21.05081
1052.48	10.02375
1052.839	49.11218
1053.197	-47.10756
1053.555	12.0256
1053.914	6.01411
1054.272	-22.05036
1054.63	-13.03091
1054.988	39.08972
1055.345	14.02834
1055.703	0
1056.061	50.12526
1056.419	55.1393
1056.776	-26.06006
1057.134	-48.10597
1057.491	25.06037
1057.848	-4.00958
1058.206	15.0333
1058.563	21.0441
1058.92	36.07885
1059.277	10.02381
1059.634	-16.03583
1059.991	38.08747
1060.348	-10.0219
1060.704	40.09365
1061.061	8.01748
1061.418	-4.0094
1061.774	20.04759
1062.131	30.07801
1062.487	-20.04495
1062.843	11.02646
1063.199	23.05517
1063.555	-7.01582
1063.911	29.07006
1064.267	6.01173
1064.623	46.10842
1064.979	-16.03521
1065.335	-21.04813
1065.691	-6.01366
1066.046	33.0689
1066.402	-28.06109
1066.757	34.08268
1067.112	11.0259
1067.468	22.05068
1067.823	6.01359
1068.178	3.00695
1068.533	-16.03756
1068.888	35.07961
1069.243	-14.03352
1069.598	12.02789
1069.952	50.10988
1070.307	-2.00482
1070.662	54.1242
1071.016	51.11054
1071.371	34.07437
1071.725	-39.08975
1072.079	-32.07498
1072.434	0
1072.788	-51.11657
1073.142	50.11793
1073.496	1.00228
1073.85	-7.01561
1074.203	18.04209
1074.557	56.14538
1074.911	30.06806
1075.265	35.07771
1075.618	42.09841
1075.971	31.07057
1076.325	14.03471
1076.678	-32.071
1077.031	-20.04269
1077.385	12.02517
1077.738	10.02159
1078.091	5.01105
1078.444	-16.03538
1078.796	9.02147
1079.149	36.08626
1079.502	43.09797
1079.855	19.04261
1080.207	7.01658
1080.56	2.00505
1080.912	41.09541
1081.264	24.05582
1081.617	12.02833
1081.969	-3.00739
1082.321	2.0047
1082.673	45.09974
1083.025	-36.08237
1083.377	267.57129
1083.728	5.01115
1084.08	-55.13327
1084.432	2.00463
1084.783	-16.03543
1085.135	17.04135
1085.486	17.03759
1085.838	-3.00718
1086.189	37.08702
1086.54	9.02059
1086.891	34.08456
1087.242	58.1376
1087.593	12.02767
1087.944	11.02415
1088.295	41.08853
1088.646	13.03101
1088.996	12.02806
1089.347	-10.0236
1089.698	-5.01156
1090.048	15.03745
1090.398	-20.04449
1090.749	-13.02977
1091.099	-22.05458
1091.449	18.04346
1091.799	13.03142
1092.149	-9.02161
1092.499	-9.02127
1092.849	6.0148
1093.199	6.01439
1093.548	-3.00705
1093.898	-29.0703
1094.248	-3.0074
1094.597	-43.10887
1094.947	7.01819
1095.296	48.11436
1095.645	-10.02517
1095.994	38.08743
1096.343	-12.02944
1096.692	19.04925
1097.041	20.0535
1097.39	20.04807
1097.739	-33.0837
1098.088	-13.0337
1098.437	18.04658
1098.785	-13.03389
1099.134	-56.14342
1099.482	-7.01888
1099.83	24.06108
1100.179	13.03357
1100.527	-17.04352
1100.875	38.09793
1101.223	23.05966
1101.571	-48.12992
1101.919	29.07512
1102.267	28.07745
1102.615	-3.00964
1102.962	-7.02248
1103.31	7.02247
1103.658	-8.02567
