Data from N1 R1 sample 9_Subt2__5__11-25-32-877.txt Node

Date: Wed Sep 17 11:25:32 PDT 2025
User: uwsun
Spectrometer: HDX01956
Trigger mode: 0
Integration Time (sec): 5.000000E-1
Scans to average: 1
Nonlinearity correction enabled: true
Boxcar width: 0
Storing dark spectrum: false
XAxis mode: Wavelengths
Number of Pixels in Spectrum: 2068
>>>>>Begin Spectral Data<<<<<
194.03	-20.05823
194.578	-2.0065
195.127	-14.04496
195.676	-5.0161
196.225	-2.00534
196.773	-52.14649
197.321	-21.05899
197.87	17.04441
198.418	32.08399
198.966	41.1098
199.513	14.03641
200.061	-10.02609
200.609	30.08057
201.156	2.00451
201.704	-1.00258
202.251	12.03257
202.798	15.03971
203.345	16.04057
203.892	-6.01557
204.438	2.00487
204.985	-5.01223
205.532	-7.01886
206.078	-12.03015
206.624	46.1176
207.17	35.08398
207.716	12.03019
208.262	16.03276
208.808	10.02576
209.354	36.09094
209.899	7.01804
210.445	-10.02574
210.99	28.06992
211.535	40.09636
212.08	7.01671
212.625	-20.05142
213.17	51.13214
213.715	78.18104
214.259	37.08834
214.804	-6.01511
215.348	17.04037
215.892	41.10158
216.436	-6.0141
216.98	-45.10269
217.524	54.13146
218.068	33.08492
218.612	58.14974
219.155	16.03876
219.698	34.08252
220.242	-27.06853
220.785	27.06483
221.328	26.06544
221.871	72.18543
222.414	30.07546
222.956	-45.11109
223.499	-11.02521
224.041	-42.0991
224.583	-24.05221
225.126	-10.02255
225.668	18.04456
226.21	41.10528
226.751	48.10872
227.293	-22.05116
227.835	20.04992
228.376	-32.07492
228.918	-18.04586
229.459	17.04318
230	39.09514
230.541	-3.00706
231.082	50.12331
231.622	-41.09564
232.163	-19.04695
232.704	55.13925
233.244	35.08808
233.784	-4.0099
234.324	50.11431
234.864	-8.01852
235.404	3.00721
235.944	-17.04102
236.484	35.08858
237.023	18.0432
237.563	5.01189
238.102	22.05296
238.641	3.00768
239.18	1.0024
239.719	20.05088
240.258	6.01378
240.797	10.02437
241.335	9.02229
241.874	32.0638
242.412	51.12553
242.95	18.04434
243.488	-15.03456
244.026	60.1413
244.564	32.06724
245.102	26.06011
245.64	33.07993
246.177	16.03627
246.715	53.12886
247.252	-16.03725
247.789	3.00573
248.326	-7.01727
248.863	7.01579
249.4	-10.02326
249.936	14.03009
250.473	30.07221
251.009	5.0117
251.546	50.11348
252.082	-25.05562
252.618	47.10678
253.154	25.06124
253.69	19.04348
254.226	69.16682
254.761	-7.01612
255.297	-6.01345
255.832	16.03882
256.367	7.0168
256.903	58.13083
257.438	53.12576
257.972	44.09954
258.507	17.03978
259.042	-9.02013
259.576	90.20094
260.111	-20.04717
260.645	6.01329
261.179	48.1141
261.713	12.0275
262.247	-21.04927
262.781	13.02811
263.315	-24.05969
263.849	41.10406
264.382	44.10257
264.915	46.11052
265.449	-46.1157
265.982	33.07631
266.515	69.17083
267.048	13.02825
267.58	-10.02217
268.113	17.03762
268.646	1.0025
269.178	24.05471
269.71	94.20952
270.243	78.18255
270.775	36.09375
271.307	-7.01703
271.838	18.04331
272.37	21.05235
272.902	13.03008
273.433	65.14611
273.965	34.08388
274.496	39.09797
275.027	23.05827
275.558	61.15064
276.089	15.03821
276.62	2.00514
277.15	34.08484
277.681	-13.02879
278.211	16.03974
278.741	19.04318
279.272	-41.09703
279.802	24.06069
280.332	12.02896
280.861	43.10427
281.391	9.02094
281.921	-8.01958
282.45	40.10053
282.98	25.06616
283.509	56.12941
284.038	-18.04242
284.567	56.13229
285.096	88.21503
285.625	19.04367
286.153	64.15493
286.682	87.20173
287.21	-33.08086
287.739	35.08414
288.267	47.11619
288.795	34.09002
289.323	12.02884
289.851	74.1761
290.378	19.04331
290.906	16.03998
291.433	36.09116
291.961	41.09548
292.488	26.06561
293.015	42.10095
293.542	92.23809
294.069	51.12825
294.596	38.0943
295.122	84.20342
295.649	40.08923
296.175	36.0881
296.702	87.21461
297.228	25.06133
297.754	20.04607
298.28	91.21151
298.806	8.01973
299.332	29.06645
299.857	46.10656
300.383	37.09451
300.908	61.15207
301.433	39.09733
301.958	-14.03306
302.483	-5.01269
303.008	76.19108
303.533	46.12024
304.058	-1.00239
304.582	30.07238
305.107	24.06354
305.631	32.07413
306.155	14.03343
306.679	38.09119
307.203	32.07592
307.727	54.13008
308.251	80.1994
308.775	130.31719
309.298	63.15415
309.822	19.04869
310.345	63.15294
310.868	37.09103
311.391	62.15482
311.914	52.13229
312.437	78.18083
312.96	44.10571
313.482	20.04811
314.005	30.07627
314.527	62.163
315.049	76.1945
315.571	38.08761
316.093	68.17066
316.615	12.0295
317.137	46.10262
317.659	51.12567
318.18	11.02686
318.702	84.19951
319.223	29.06087
319.744	76.17396
320.265	109.26759
320.786	62.15734
321.307	41.10318
321.828	86.19685
322.348	33.07948
322.869	115.27614
323.389	73.14679
323.909	68.15808
324.43	77.18651
324.95	75.1746
325.47	100.25034
325.989	93.2234
326.509	106.24047
327.029	87.20189
327.548	58.13425
328.067	110.26939
328.587	148.37156
329.106	26.0602
329.625	89.2337
330.144	96.22634
330.662	96.22854
331.181	138.32739
331.7	69.16329
332.218	95.20969
332.736	102.2418
333.255	81.19398
333.773	97.23194
334.291	180.44848
334.808	103.23561
335.326	86.19661
335.844	122.28988
336.361	148.38181
336.879	123.29242
337.396	191.46331
337.913	126.29407
338.43	115.26275
338.947	116.28007
339.464	103.22621
339.981	127.30367
340.497	153.37685
341.014	124.30469
341.53	132.30067
342.046	180.44881
342.562	160.39894
343.078	167.39381
343.594	140.33495
344.11	142.34233
344.626	193.48479
345.141	137.31641
345.657	146.3331
346.172	158.38248
346.687	148.34188
347.202	192.4384
347.717	165.39438
348.232	163.40635
348.747	188.4341
349.261	180.39672
349.776	215.50798
350.29	185.46219
350.805	193.47483
351.319	157.36678
351.833	201.46181
352.347	184.43449
352.861	207.48377
353.374	174.39666
353.888	205.49876
354.401	191.43444
354.915	174.39506
355.428	262.6423
355.941	207.47997
356.454	186.41424
356.967	162.37928
357.48	205.46307
357.993	220.53615
358.505	153.37337
359.018	257.62011
359.53	236.56999
360.042	245.54325
360.554	263.63363
361.066	172.41856
361.578	250.54683
362.09	200.4741
362.602	225.49912
363.113	303.69724
363.625	216.48842
364.136	253.5493
364.647	278.64751
365.158	276.63119
365.669	264.62023
366.18	242.563
366.691	246.53353
367.201	303.70892
367.712	293.65751
368.222	279.6315
368.733	264.56671
369.243	296.64881
369.753	273.61867
370.263	290.68582
370.773	256.61314
371.282	322.74849
371.792	336.75631
372.301	283.66939
372.811	339.86089
373.32	340.71536
373.829	322.73814
374.338	333.71928
374.847	372.82739
375.356	333.76167
375.865	380.78508
376.373	391.85357
376.882	420.01162
377.39	413.95105
377.898	388.91431
378.407	453.97424
378.915	513.04733
379.423	516.11849
379.93	571.22342
380.438	501.12534
380.946	572.22583
381.453	601.32157
381.96	680.46323
382.468	671.42313
382.975	730.59646
383.482	672.35298
383.989	708.63533
384.495	776.59489
385.002	786.43788
385.509	896.83516
386.015	940.60647
386.521	1000.89371
387.028	1036.93915
387.534	1039.81279
388.04	1082.13831
388.546	1076.92729
389.051	1264.14637
389.557	1298.31671
390.063	1321.2719
390.568	1348.48137
391.073	1420.32667
391.578	1542.75431
392.084	1580.55251
392.589	1650.44539
393.093	1905.00185
393.598	1950.86972
394.103	2146.13146
394.607	2424.31697
395.112	2464.44152
395.616	2650.43731
396.12	2844.14488
396.624	3152.32108
397.128	3444.42471
397.632	3729.2112
398.136	4139.90681
398.639	4631.8061
399.143	5330.80661
399.646	5784.23923
400.15	6423.88467
400.653	7310.79149
401.156	8186.30395
401.659	9820.26134
402.162	12654.98682
402.664	19567.7268
403.167	40716.86094
403.67	60810.29665
404.172	63919.58413
404.674	63858.43483
405.176	63738.15102
405.678	63977.72923
406.18	64011.81569
406.682	63863.44694
407.184	63926.60148
407.686	59278.25035
408.187	35454.97678
408.688	24119.19266
409.19	18919.69969
409.691	15639.11285
410.192	13564.9062
410.693	12174.56136
411.194	11722.7341
411.694	10667.8902
412.195	9907.4831
412.696	9340.14207
413.196	9139.66595
413.696	9367.21305
414.196	9163.73348
414.696	8756.23924
415.196	7645.01442
415.696	6069.77782
416.196	4858.65188
416.695	4187.04336
417.195	4034.24374
417.694	3823.46187
418.194	3612.60874
418.693	3453.1036
419.192	3346.30895
419.691	3163.24948
420.19	3076.45121
420.688	2923.56262
421.187	2878.58525
421.685	2537.19076
422.184	2282.16992
422.682	1802.56888
423.18	1707.68698
423.678	1529.50457
424.176	1454.42353
424.674	1448.3389
425.172	1329.36924
425.669	1171.28177
426.167	1098.04096
426.664	993.84619
427.161	950.81198
427.659	847.75853
428.156	791.44086
428.652	729.6214
429.149	792.66798
429.646	719.40294
430.143	653.39815
430.639	617.3153
431.135	608.37524
431.632	483.02077
432.128	551.20844
432.624	523.24326
433.12	521.08969
433.616	519.04185
434.111	448.99349
434.607	449.00133
435.103	449.87375
435.598	465.89541
436.093	418.91308
436.588	417.87986
437.083	361.76739
437.578	358.78733
438.073	345.82326
438.568	348.81562
439.062	305.62603
439.557	283.63716
440.051	272.58992
440.546	253.55678
441.04	287.66307
441.534	280.67904
442.028	271.62984
442.522	208.48754
443.015	208.43571
443.509	253.5952
444.002	223.53075
444.496	226.47677
444.989	231.54409
445.482	207.49967
445.975	258.57624
446.468	196.41548
446.961	224.47338
447.454	162.3578
447.947	219.5086
448.439	222.52929
448.931	238.5296
449.424	244.60084
449.916	246.58043
450.408	194.43367
450.9	149.35641
451.392	142.35522
451.884	183.41169
452.375	183.44291
452.867	147.32582
453.358	159.35829
453.849	182.38125
454.341	180.39805
454.832	123.26353
455.323	222.53658
455.814	147.33125
456.304	185.41841
456.795	117.26484
457.285	115.25118
457.776	120.2708
458.266	92.21717
458.756	95.22299
459.247	145.34127
459.737	158.37527
460.226	176.39278
460.716	161.37745
461.206	136.32053
461.695	119.2904
462.185	129.3022
462.674	124.28017
463.163	138.3053
463.653	99.20982
464.142	122.29189
464.63	91.21884
465.119	135.30931
465.608	116.26882
466.096	115.24713
466.585	79.17977
467.073	68.15995
467.561	133.31401
468.05	99.22601
468.538	136.32662
469.026	52.12327
469.513	74.15598
470.001	95.21661
470.489	76.17982
470.976	143.32843
471.463	101.24868
471.951	85.20944
472.438	87.20285
472.925	65.15263
473.412	109.26113
473.899	115.26052
474.385	67.16326
474.872	54.12583
475.359	107.25995
475.845	56.11627
476.331	68.14459
476.817	73.17662
477.303	89.20531
477.789	61.1448
478.275	55.13607
478.761	21.05008
479.247	45.10057
479.732	42.10473
480.218	80.20789
480.703	16.03958
481.188	65.14059
481.673	34.07845
482.158	15.03275
482.643	98.24754
483.128	81.18782
483.612	131.30724
484.097	47.1132
484.581	35.08122
485.066	66.16098
485.55	71.15665
486.034	20.04373
486.518	102.24171
487.002	4.00979
487.486	19.0463
487.969	50.12127
488.453	1.0025
488.936	3.00682
489.42	42.09319
489.903	15.03746
490.386	-83.17714
490.869	53.1163
491.352	-2.00485
491.835	8.01657
492.318	0
492.8	11.02305
493.283	21.05374
493.765	22.05412
494.247	27.0631
494.73	27.06012
495.212	-22.0528
495.694	-4.00953
496.175	26.06273
496.657	52.12299
497.139	-6.01051
497.62	33.07957
498.102	5.01253
498.583	-73.18291
499.064	4.00901
499.545	18.0413
500.026	20.04558
500.507	-37.08664
500.988	56.13958
501.469	-12.03017
501.949	15.03721
502.43	18.04362
502.91	45.09587
503.39	-20.0501
503.87	41.0971
504.35	24.05639
504.83	-13.02884
505.31	8.01941
505.79	-77.1863
506.269	-1.00232
506.749	-30.06966
507.228	9.02136
507.707	46.10287
508.187	29.06956
508.666	-8.02001
509.145	-14.03315
509.623	-19.04508
510.102	10.02435
510.581	8.01945
511.059	39.09825
511.538	14.03624
512.016	-2.00484
512.494	11.02661
512.972	0
513.45	-48.11418
513.928	-31.0765
514.406	-13.03224
514.884	-26.06784
515.361	-17.04121
515.839	3.00698
516.316	23.05619
516.793	15.03806
517.27	-38.09289
517.747	26.06694
518.224	-9.02099
518.701	-44.09929
519.178	20.0503
519.654	-41.09882
520.131	-6.01501
520.607	-15.03707
521.083	-45.10401
521.56	-7.01669
522.036	-35.07771
522.512	42.10385
522.987	23.05573
523.463	-36.08679
523.939	47.11675
524.414	-24.05579
524.89	25.05998
525.365	-27.06204
525.84	-11.02676
526.315	-15.0368
526.79	-38.0874
527.265	7.01634
527.74	-20.04918
528.215	-43.10219
528.689	-98.22187
529.164	-78.1722
529.638	-58.14969
530.112	-6.01427
530.587	-23.05013
531.061	-28.0688
531.534	-29.07096
532.008	-16.03942
532.482	-1.00233
532.956	-14.03609
533.429	32.07863
533.903	-29.06473
534.376	14.03124
534.849	-52.12213
535.322	-19.04547
535.795	-6.01465
536.268	-10.0245
536.741	-48.11616
537.213	-19.04434
537.686	-10.02475
538.158	30.06867
538.631	-30.0738
539.103	-31.07134
539.575	-47.09917
540.047	-73.16369
540.519	19.04571
540.991	15.03684
541.463	-25.06103
541.934	-49.11317
542.406	-3.00729
542.877	-32.0736
543.348	3.00732
543.82	-11.02707
544.291	44.10306
544.762	-6.01446
545.233	43.10922
545.703	6.01352
546.174	27.06305
546.645	-2.0049
547.115	2.00488
547.585	15.03484
548.056	27.06685
548.526	80.18943
548.996	30.07216
549.466	45.1097
549.935	51.12223
550.405	43.09507
550.875	25.05985
551.344	-23.05575
551.814	46.10592
552.283	70.15299
552.752	66.15489
553.221	75.16575
553.69	86.19407
554.159	46.11495
554.628	80.18134
555.096	88.22292
555.565	47.10457
556.033	65.15525
556.502	62.14975
556.97	56.12519
557.438	45.10616
557.906	114.26669
558.374	96.22168
558.842	100.23815
559.31	110.24458
559.777	91.2215
560.245	84.19219
560.712	91.20758
561.18	106.23324
561.647	94.20761
562.114	120.27246
562.581	155.37501
563.048	127.28771
563.514	215.52485
563.981	119.27002
564.448	184.40656
564.914	177.40227
565.381	173.38744
565.847	169.38581
566.313	154.35121
566.779	184.40469
567.245	129.29509
567.711	157.36923
568.176	167.36753
568.642	196.48141
569.108	179.43046
569.573	189.42676
570.038	216.43785
570.504	214.46968
570.969	209.50354
571.434	215.46362
571.899	229.52572
572.363	270.59457
572.828	250.55422
573.293	192.42937
573.757	300.66478
574.222	247.53399
574.686	319.69759
575.15	252.58534
575.614	348.77755
576.078	275.61941
576.542	293.63803
577.006	295.63666
577.469	275.64947
577.933	296.64443
578.396	261.59557
578.86	265.59981
579.323	292.67368
579.786	282.58549
580.249	313.70296
580.712	277.64632
581.175	269.63752
581.637	264.57892
582.1	229.48299
582.563	267.54408
583.025	251.58935
583.487	246.48817
583.95	228.47296
584.412	274.55135
584.874	293.68392
585.336	271.61764
585.797	253.53009
586.259	195.44498
586.721	233.52911
587.182	226.50478
587.643	226.49768
588.105	183.42264
588.566	171.34957
589.027	234.55511
589.488	220.49016
589.949	225.52996
590.41	206.39694
590.87	229.50799
591.331	255.53688
591.791	188.42545
592.252	177.4039
592.712	193.45123
593.172	196.43506
593.632	240.51586
594.092	126.27794
594.552	206.43439
595.011	158.35567
595.471	201.44421
595.931	158.35086
596.39	153.36136
596.849	147.33721
597.308	88.18712
597.768	192.48375
598.227	138.32701
598.685	142.31913
599.144	135.31427
599.603	93.21641
600.062	105.2202
600.52	138.30785
600.978	103.24167
601.437	99.22391
601.895	110.2343
602.353	120.26116
602.811	141.31383
603.269	73.17335
603.727	53.12751
604.184	116.26209
604.642	118.28694
605.099	85.19795
605.557	77.18665
606.014	85.18282
606.471	83.20729
606.928	116.25578
607.385	87.21681
607.842	41.09458
608.299	100.2322
608.755	104.24987
609.212	101.22405
609.668	96.21558
610.125	107.25556
610.581	65.15233
611.037	8.01815
611.493	26.06111
611.949	73.17742
612.405	77.15698
612.861	38.08782
613.316	45.1081
613.772	86.19613
614.227	82.19626
614.683	16.03432
615.138	18.04256
615.593	50.11628
616.048	50.11468
616.503	18.04398
616.958	32.0804
617.412	25.05973
617.867	71.15868
618.321	52.10772
618.776	25.05551
619.23	16.03777
619.684	31.06957
620.138	65.14845
620.592	-5.01225
621.046	73.17188
621.5	0
621.954	-48.10845
622.407	58.12821
622.861	14.0342
623.314	-11.02522
623.768	33.07821
624.221	-13.02604
624.674	-4.00934
625.127	48.11163
625.58	5.01133
626.033	57.1245
626.485	-4.00966
626.938	59.14016
627.39	9.02121
627.843	18.04175
628.295	13.03018
628.747	43.10258
629.199	4.00919
629.651	-1.00232
630.103	42.09644
630.555	12.0255
631.006	27.06298
631.458	33.07779
631.909	17.03829
632.361	-40.0938
632.812	-10.02339
633.263	38.08266
633.714	-4.00856
634.165	-9.02177
634.616	-6.01431
635.067	-21.04688
635.518	0
635.968	23.04546
636.419	46.10049
636.869	51.12046
637.319	34.07901
637.769	13.02941
638.219	17.04026
638.669	-1.00239
639.119	-22.0532
639.569	18.04331
640.019	8.0186
640.468	10.02257
640.918	26.06175
641.367	-16.03624
641.816	-5.01122
642.265	105.24183
642.714	-18.04175
643.163	44.10164
643.612	12.02954
644.061	54.11532
644.51	17.03917
644.958	38.08403
645.406	12.02881
645.855	-29.07122
646.303	16.03714
646.751	19.04416
647.199	27.06137
647.647	49.11358
648.095	54.12276
648.543	16.03269
648.99	27.06498
649.438	6.01396
649.885	46.11441
650.333	77.14855
650.78	32.07738
651.227	33.08077
651.674	36.08224
652.121	59.14409
652.568	49.11971
653.015	8.01987
653.461	4.00957
653.908	11.02539
654.354	57.1351
654.801	38.08907
655.247	41.08875
655.693	10.02607
656.139	-2.0048
656.585	25.05978
657.031	56.13111
657.477	37.08095
657.922	7.016
658.368	40.09807
658.813	-27.06214
659.259	66.15899
659.704	114.26617
660.149	29.06693
660.594	51.1206
661.039	23.05255
661.484	23.05456
661.929	60.13943
662.373	-2.00504
662.818	35.0864
663.262	78.1869
663.707	30.07624
664.151	68.16449
664.595	33.07975
665.039	31.07683
665.483	27.06863
665.927	93.21548
666.371	68.15889
666.814	49.11591
667.258	52.12479
667.701	56.11887
668.145	83.20429
668.588	59.14527
669.031	15.03537
669.474	53.12649
669.917	53.11561
670.36	74.18297
670.803	95.22655
671.245	13.02672
671.688	91.21859
672.13	36.08137
672.573	56.14044
673.015	48.11524
673.457	68.14686
673.899	81.19376
674.341	77.18356
674.783	65.15453
675.225	89.2163
675.666	109.26253
676.108	62.13309
676.549	26.06052
676.991	56.12218
677.432	48.09494
677.873	52.11802
678.314	71.1673
678.755	119.28802
679.196	26.05939
679.637	0
680.078	100.2299
680.518	51.11634
680.959	68.16027
681.399	61.14964
681.839	44.1062
682.28	58.14299
682.72	49.11137
683.16	115.28158
683.6	38.0861
684.039	42.08635
684.479	86.20952
684.919	70.16305
685.358	57.1406
685.798	54.13936
686.237	30.07128
686.676	48.10783
687.115	78.18147
687.554	92.21683
687.993	33.07275
688.432	86.19336
688.871	96.21655
689.309	59.14022
689.748	28.05811
690.186	48.11137
690.625	52.12117
691.063	95.22281
691.501	92.22389
691.939	107.26452
692.377	46.11064
692.815	136.32463
693.253	67.15751
693.69	73.15769
694.128	85.20325
694.565	53.12435
695.003	92.23131
695.44	90.20972
695.877	111.25585
696.314	47.09809
696.751	59.13219
697.188	121.27411
697.625	41.09099
698.061	46.10917
698.498	24.05643
698.934	99.23201
699.371	57.13269
699.807	59.13762
700.243	68.16188
700.679	64.14076
701.115	120.27312
701.551	55.12627
701.987	22.0478
702.422	86.20182
702.858	46.10871
703.294	145.32286
703.729	84.20074
704.164	63.14834
704.599	84.18436
705.035	103.22611
705.47	52.12479
705.904	47.10769
706.339	96.21584
706.774	66.15234
707.209	86.19661
707.643	93.21812
708.078	92.21936
708.512	64.15825
708.946	80.18605
709.38	98.228
709.814	35.07848
710.248	114.27233
710.682	124.29031
711.116	80.19162
711.549	82.2055
711.983	55.12536
712.416	85.19803
712.85	84.20404
713.283	81.18767
713.716	91.22083
714.149	39.08929
714.582	102.22387
715.015	56.13531
715.448	117.28744
715.881	56.11835
716.313	69.15841
716.746	47.10989
717.178	57.1351
717.61	105.261
718.043	52.12655
718.475	78.18576
718.907	83.203
719.339	63.14057
719.77	81.19035
720.202	58.14294
720.634	37.08986
721.065	-24.05654
721.497	72.17305
721.928	21.05085
722.359	41.09867
722.79	18.04275
723.221	38.0931
723.652	61.15235
724.083	56.12384
724.514	53.11987
724.945	41.09469
725.375	56.1289
725.806	10.02444
726.236	71.17797
726.666	27.06293
727.096	75.17968
727.526	62.15717
727.956	52.11706
728.386	70.16818
728.816	88.22054
729.246	40.09749
729.675	4.00968
730.105	35.08439
730.534	39.08954
730.964	31.07627
731.393	40.09647
731.822	61.15312
732.251	36.09012
732.68	23.05255
733.109	7.01713
733.537	98.23393
733.966	82.20045
734.395	39.08885
734.823	31.06751
735.251	-10.02388
735.68	27.06565
736.108	20.04936
736.536	17.03933
736.964	44.10023
737.392	23.05674
737.82	7.01653
738.247	-24.05692
738.675	14.03248
739.102	36.08843
739.53	55.13915
739.957	23.05887
740.384	-15.03585
740.811	-46.11424
741.238	67.16113
741.665	29.06735
742.092	-109.25335
742.519	-30.07434
742.945	71.16912
743.372	24.05893
743.798	44.11071
744.225	-4.00938
744.651	-16.03975
745.077	21.05167
745.503	12.0286
745.929	51.12144
746.355	22.05272
746.781	-34.08317
747.207	-19.04496
747.632	46.11249
748.058	60.14847
748.483	46.10376
748.908	-8.01979
749.334	76.18322
749.759	19.04477
750.184	40.09497
750.609	-3.00728
751.033	7.01612
751.458	39.08525
751.883	0
752.307	-32.07507
752.732	27.06821
753.156	24.05821
753.58	25.05797
754.005	-31.07734
754.429	45.10492
754.853	-18.04459
755.277	-13.03068
755.7	-11.02708
756.124	14.03439
756.548	-39.09183
756.971	28.06725
757.394	4.0101
757.818	0
758.241	5.01258
758.664	11.02744
759.087	-29.06524
759.51	-30.07353
759.933	19.0454
760.356	1.00256
760.778	10.02427
761.201	7.01668
761.623	-37.08749
762.046	10.023
762.468	29.06815
762.89	12.02883
763.312	34.08187
763.734	-2.00477
764.156	37.08976
764.578	-5.01125
765	40.09563
765.421	-12.03041
765.843	-33.08586
766.264	-15.03511
766.686	4.00978
767.107	-24.05773
767.528	24.06084
767.949	3.00751
768.37	60.14563
768.791	6.01416
769.212	18.04477
769.632	10.02314
770.053	-17.04399
770.473	-28.06689
770.894	-52.12721
771.314	3.00696
771.734	-13.02995
772.154	-31.07843
772.575	5.01133
772.994	-24.05378
773.414	-16.03755
773.834	-24.05917
774.254	7.01681
774.673	38.09123
775.093	3.00738
775.512	2.00488
775.931	13.03248
776.351	-32.07933
776.77	1.00243
777.189	21.04898
777.607	3.00755
778.026	-3.00738
778.445	-5.01256
778.864	-12.02999
779.282	-11.02583
779.701	-6.01484
780.119	-41.10333
780.537	-8.01963
780.955	12.02977
781.373	-26.06351
781.791	31.06903
782.209	-22.0489
782.627	-12.03124
783.045	-14.03134
783.462	1.00251
783.88	-59.15229
784.297	-5.0124
784.715	4.01017
785.132	-40.0953
785.549	-19.04685
785.966	-3.00743
786.383	-34.08333
786.8	29.0657
787.217	29.06794
787.633	-18.04485
788.05	-21.04804
788.466	28.06347
788.883	42.10567
789.299	-31.07265
789.715	8.01917
790.131	-10.02449
790.547	-17.04173
790.963	-12.02926
791.379	-21.05243
791.795	-3.00663
792.21	-8.01823
792.626	-16.03699
793.041	1.00242
793.457	-1.00241
793.872	-59.13621
794.287	9.02141
794.702	-75.18057
795.117	10.02448
795.532	2.00497
795.947	-9.02092
796.362	-17.03897
796.776	13.02907
797.191	-39.09454
797.605	-14.03277
798.02	-69.16644
798.434	25.0541
798.848	36.08767
799.262	-10.02438
799.676	5.01193
800.09	6.01443
800.504	-44.10483
800.918	-41.09266
801.331	-63.15979
801.745	-39.08767
802.158	-34.08296
802.572	-7.01663
802.985	9.02101
803.398	27.06238
803.811	-48.11921
804.224	-17.04094
804.637	-22.05173
805.05	-29.06543
805.462	-14.03351
805.875	-6.01533
806.288	-55.13217
806.7	-66.16248
807.112	-17.03821
807.525	-36.08593
807.937	-20.04871
808.349	-25.06106
808.761	-15.03635
809.173	5.01189
809.584	-43.10404
809.996	-41.09875
810.408	10.02556
810.819	-35.08109
811.231	33.08624
811.642	27.06547
812.053	31.07367
812.464	-23.05342
812.875	-5.01259
813.286	32.081
813.697	-42.09389
814.108	-10.02376
814.519	19.0415
814.929	7.01737
815.34	-40.09435
815.75	-13.0327
816.16	-28.06755
816.571	-16.04062
816.981	-35.08003
817.391	10.02326
817.801	-45.11064
818.211	-19.04418
818.62	-34.08088
819.03	16.03802
819.44	-47.11878
819.849	-9.02192
820.259	-22.05458
820.668	-16.03872
821.077	37.09006
821.486	-8.01854
821.895	-38.09074
822.304	17.04384
822.713	-8.01836
823.122	-19.04632
823.531	-55.12632
823.939	13.03097
824.348	2.0047
824.756	-22.05364
825.164	-5.01222
825.573	-23.05661
825.981	-5.01202
826.389	-27.06633
826.797	-7.01746
827.205	-2.00451
827.612	-12.02874
828.02	-49.1124
828.428	-15.03733
828.835	-33.08607
829.243	-46.10677
829.65	-24.05897
830.057	-42.09949
830.464	11.02641
830.871	11.0257
831.278	-43.10211
831.685	-20.04327
832.092	-76.18183
832.499	6.01279
832.905	-39.09624
833.312	-50.10956
833.718	9.02199
834.124	-8.01784
834.531	-38.09299
834.937	7.01757
835.343	-36.08429
835.749	17.03781
836.155	-12.03075
836.561	36.08577
836.966	-25.05951
837.372	-17.04207
837.777	-33.08092
838.183	-28.06031
838.588	-4.00975
838.993	-16.03805
839.399	-20.04803
839.804	-20.04776
840.209	17.04263
840.613	-32.06932
841.018	-34.08392
841.423	-8.02006
841.828	-11.02732
842.232	-22.05225
842.637	17.03931
843.041	8.02009
843.445	-7.01698
843.849	-12.02913
844.253	12.02753
844.657	-48.11969
845.061	34.07575
845.465	-19.04482
845.869	-8.01807
846.272	-22.05266
846.676	-81.18975
847.079	17.04238
847.483	15.0362
847.886	12.02802
848.289	30.07892
848.692	-55.13602
849.095	0
849.498	7.01697
849.901	-6.01323
850.304	10.02313
850.707	-18.04467
851.109	11.02687
851.512	-1.0024
851.914	-16.03972
852.316	12.02986
852.718	28.07211
853.121	-34.08163
853.523	-28.06337
853.925	-9.02321
854.326	-28.06903
854.728	-25.06321
855.13	11.02792
855.531	-4.00932
855.933	25.05735
856.334	-13.03191
856.736	10.02189
857.137	12.02728
857.538	-29.07196
857.939	-10.02446
858.34	-48.11339
858.741	-19.04841
859.142	6.01389
859.542	27.06974
859.943	-12.02905
860.343	-24.05854
860.744	-14.03327
861.144	8.01913
861.544	-12.02852
861.945	-22.05474
862.345	-30.07131
862.745	-3.00732
863.145	-65.14959
863.544	7.01726
863.944	-21.04831
864.344	-12.02863
864.743	8.01923
865.143	-22.05581
865.542	-52.11648
865.941	26.06254
866.34	-67.1556
866.74	-9.02366
867.139	18.04234
867.537	-51.12617
867.936	33.077
868.335	-8.01979
868.734	-16.04003
869.132	-46.10313
869.531	-25.0582
869.929	-27.06029
870.327	-16.03734
870.726	0
871.124	-13.02926
871.522	-20.04958
871.92	42.09987
872.318	-26.06154
872.715	-72.17272
873.113	-6.01412
873.511	-30.07279
873.908	-8.02004
874.306	0
874.703	-16.03862
875.1	-57.14117
875.497	-27.06286
875.894	10.02424
876.291	-18.04316
876.688	-4.01007
877.085	-16.03706
877.482	-14.03413
877.878	24.05665
878.275	-4.00993
878.671	-79.16714
879.068	-32.07536
879.464	-36.08498
879.86	-39.09011
880.256	-55.13091
880.652	-23.05713
881.048	-53.12736
881.444	-85.19632
881.84	-46.11449
882.236	-5.01222
882.631	9.02155
883.027	-25.05873
883.422	-54.13475
883.817	-8.01975
884.213	-21.05268
884.608	15.03648
885.003	-48.11229
885.398	-13.03175
885.793	-59.14484
886.188	-52.12659
886.582	-3.00741
886.977	20.04547
887.371	-36.08843
887.766	7.01701
888.16	-56.1347
888.554	32.07574
888.949	-17.04158
889.343	-1.00236
889.737	-19.05008
890.131	-48.11812
890.525	12.03002
890.918	3.00733
891.312	-31.07151
891.706	-17.04347
892.099	-3.0074
892.492	-35.07285
892.886	4.00946
893.279	-50.12467
893.672	13.03236
894.065	-26.06365
894.458	-12.02907
894.851	-1.00236
895.244	-22.05484
895.637	33.07688
896.029	10.02385
896.422	-39.0919
896.814	7.01681
897.206	18.04204
897.599	21.05014
897.991	-9.0213
898.383	-38.08789
898.775	29.06374
899.167	-12.02762
899.559	-1.00244
899.951	-13.02945
900.342	-69.17096
900.734	-12.02975
901.125	-9.02286
901.517	-40.09625
901.908	-6.01373
902.299	-19.04541
902.69	-1.00231
903.082	-15.03533
903.473	9.02122
903.863	-43.10685
904.254	6.01365
904.645	-22.0526
905.036	22.0526
905.426	-13.02837
905.817	-1.00236
906.207	-88.20425
906.597	-35.08074
906.987	-26.06528
907.378	24.0591
907.768	-6.01553
908.158	2.00472
908.547	8.0204
908.937	-69.17202
909.327	22.05145
909.717	-9.02185
910.106	-44.10277
910.495	-26.06254
910.885	-10.02474
911.274	-32.07799
911.663	-12.02937
912.052	-54.12895
912.441	23.05711
912.83	-22.04865
913.219	17.043
913.608	12.02858
913.997	23.05638
914.385	20.04611
914.774	-22.05203
915.162	-15.03518
915.55	-13.0303
915.939	-2.00495
916.327	-18.04338
916.715	29.07269
917.103	-19.04467
917.491	3.00717
917.878	12.02847
918.266	-15.03777
918.654	-24.06041
919.041	10.02574
919.429	-29.06663
919.816	5.01228
920.203	14.03319
920.591	-15.03629
920.978	1.00237
921.365	-22.05668
921.752	-58.13318
922.139	-1.00209
922.525	-10.02343
922.912	-7.0165
923.299	-31.07537
923.685	-61.15505
924.072	-78.17199
924.458	-8.01937
924.844	-5.01203
925.231	-38.08533
925.617	-8.02005
926.003	-1.00248
926.389	-24.05904
926.774	2.0049
927.16	-5.01203
927.546	4.0101
927.931	-19.04585
928.317	-23.05102
928.702	15.03405
929.088	62.14374
929.473	24.05963
929.858	22.05239
930.243	5.01175
930.628	-11.02631
931.013	-46.11182
931.398	-15.0328
931.783	-19.04829
932.167	10.02394
932.552	-71.17436
932.937	-6.01437
933.321	-8.01971
933.705	-26.06318
934.09	1.0024
934.474	-34.07782
934.858	-31.07888
935.242	-30.0674
935.626	-29.07298
936.009	27.07044
936.393	4.01004
936.777	6.01503
937.16	12.03059
937.544	-48.1085
937.927	-8.01988
938.311	12.0281
938.694	20.05151
939.077	-18.04188
939.46	-38.08893
939.843	-66.13085
940.226	-39.09737
940.609	5.01123
940.991	-40.09898
941.374	-8.01913
941.757	-15.03583
942.139	-22.04816
942.522	-1.00227
942.904	-6.01399
943.286	-4.00984
943.668	13.03307
944.05	-1.00239
944.432	-44.10571
944.814	-50.11922
945.196	-42.10099
945.578	-10.0235
945.959	-109.24964
946.341	-8.01866
946.722	11.02475
947.104	-17.0395
947.485	15.03366
947.866	-39.09702
948.247	-14.03477
948.628	-66.15464
949.009	-25.06253
949.39	-17.04088
949.771	-44.09722
950.152	5.01191
950.532	0
950.913	-9.02102
951.293	-7.01865
951.674	-41.09684
952.054	11.02694
952.434	-32.0777
952.814	-9.02049
953.194	-37.09348
953.574	-17.04049
953.954	-56.12859
954.334	10.02439
954.714	-25.05969
955.093	27.06397
955.473	-21.0518
955.853	-26.06582
956.232	8.02133
956.611	-40.09222
956.99	6.01469
957.37	-45.11149
957.749	-17.03868
958.128	13.03195
958.506	-11.02788
958.885	-46.1132
959.264	-5.01207
959.643	12.0265
960.021	-16.03889
960.4	-7.01531
960.778	-19.04477
961.156	-70.17175
961.535	-14.03126
961.913	-7.01596
962.291	-1.00253
962.669	-33.08218
963.047	0
963.424	22.05515
963.802	-14.03356
964.18	-6.01449
964.557	-35.07793
964.935	19.04331
965.312	19.04829
965.69	-39.09443
966.067	-19.04441
966.444	-49.11569
966.821	-14.03523
967.198	-8.01857
967.575	-13.0308
967.952	-6.01363
968.329	-10.02379
968.705	43.08858
969.082	19.04793
969.458	-49.11672
969.835	-26.06159
970.211	5.01261
970.587	-22.05348
970.963	1.00247
971.339	-16.04099
971.715	-5.01215
972.091	-8.0191
972.467	-13.03101
972.843	0
973.219	-36.08326
973.594	-23.05881
973.97	-7.01566
974.345	-30.07027
974.721	-35.08122
975.096	-15.03558
975.471	4.00912
975.846	-26.06025
976.221	-9.02227
976.596	-1.00236
976.971	21.05046
977.346	-43.09662
977.72	-10.02464
978.095	-16.04027
978.469	11.0252
978.844	-13.03156
979.218	1.00236
979.593	-24.05557
979.967	-39.09079
980.341	17.03787
980.715	11.02692
981.089	-23.05602
981.463	-19.04229
981.837	-5.01201
982.21	-60.13246
982.584	15.03515
982.957	1.00244
983.331	-86.19661
983.704	34.08156
984.078	-19.04545
984.451	-14.03323
984.824	-33.07894
985.197	-18.04175
985.57	-29.06969
985.943	-65.1543
986.316	-27.0634
986.688	34.0786
987.061	26.05882
987.434	-8.0206
987.806	-41.09545
988.179	-56.12854
988.551	-33.08131
988.923	-14.03327
989.295	-2.00482
989.667	-17.04011
990.039	38.09206
990.411	-41.09027
990.783	-62.1374
991.155	-52.12284
991.527	0
991.898	-3.00729
992.27	-15.03647
992.641	-4.00967
993.012	-62.13866
993.384	-41.09477
993.755	22.0546
994.126	-4.00941
994.497	-48.11524
994.868	-34.07487
995.239	-32.07524
995.61	-2.00489
995.98	-41.09699
996.351	-40.09753
996.722	-11.02502
997.092	-25.05788
997.462	-24.0552
997.833	-6.01362
998.203	-51.11882
998.573	-38.09282
998.943	-14.03201
999.313	-21.04922
999.683	-27.06328
1000.053	-86.18939
1000.423	2.00466
1000.792	-81.20442
1001.162	-61.14597
1001.531	41.09736
1001.901	-30.07246
1002.27	-40.08487
1002.639	-34.08413
1003.009	-57.13212
1003.378	-9.02243
1003.747	-30.06836
1004.116	-32.07433
1004.485	6.01383
1004.853	-69.16914
1005.222	-59.14296
1005.591	24.05456
1005.959	16.03482
1006.328	-12.02622
1006.696	-85.2006
1007.064	-60.1464
1007.433	-30.07241
1007.801	-47.11054
1008.169	-82.20149
1008.537	-1.00213
1008.905	-24.05469
1009.273	-13.0309
1009.64	-14.03285
1010.008	-17.03919
1010.375	-6.01382
1010.743	-31.06708
1011.11	11.02564
1011.478	-5.01209
1011.845	-24.05438
1012.212	34.07462
1012.579	-25.05983
1012.946	-41.09379
1013.313	-49.11258
1013.68	-41.08891
1014.047	-65.15156
1014.414	-58.13356
1014.78	3.00725
1015.147	-36.08359
1015.513	-1.00233
1015.88	-5.01231
1016.246	-21.04966
1016.612	22.04782
1016.978	16.03811
1017.344	48.1141
1017.71	-42.09907
1018.076	-14.03157
1018.442	41.10199
1018.808	-7.01716
1019.174	-53.12924
1019.539	-76.16336
1019.905	-24.05527
1020.27	-16.03825
1020.636	-46.10588
1021.001	24.05546
1021.366	-18.04216
1021.731	25.06307
1022.096	-17.04217
1022.461	3.00687
1022.826	26.05992
1023.191	-3.00766
1023.556	-19.04285
1023.92	-11.02594
1024.285	-40.09398
1024.649	-15.0354
1025.014	-10.02371
1025.378	-30.07404
1025.742	-14.03342
1026.107	-2.00434
1026.471	-19.04261
1026.835	-28.06755
1027.199	-60.14163
1027.562	-50.11186
1027.926	-29.06847
1028.29	-28.06913
1028.654	-35.07774
1029.017	30.07117
1029.381	-18.04186
1029.744	3.00742
1030.107	23.05225
1030.471	-35.08203
1030.834	-54.11747
1031.197	-9.02094
1031.56	-59.13507
1031.923	-22.05557
1032.286	-8.01814
1032.648	-61.14032
1033.011	1.00225
1033.374	-15.03368
1033.736	-25.06428
1034.099	-5.01181
1034.461	-10.02476
1034.823	8.01937
1035.185	-48.1169
1035.548	23.05418
1035.91	-6.01386
1036.272	-26.05767
1036.634	-21.04983
1036.995	-7.01575
1037.357	-30.07142
1037.719	11.02586
1038.08	21.04839
1038.442	-51.11779
1038.803	-7.01596
1039.165	-33.08074
1039.526	-1.00234
1039.887	-14.03239
1040.248	2.00486
1040.609	0
1040.97	-21.04964
1041.331	-2.00495
1041.692	-13.02995
1042.053	3.00652
1042.413	-31.06954
1042.774	-25.05921
1043.134	-52.11893
1043.495	-32.07834
1043.855	20.04728
1044.215	-62.1497
1044.576	-19.04441
1044.936	9.01969
1045.296	-2.00483
1045.656	-15.03526
1046.016	9.0208
1046.375	-44.10402
1046.735	9.02002
1047.095	12.02704
1047.454	-19.03821
1047.814	-26.06075
1048.173	-47.1076
1048.533	-34.07553
1048.892	-7.01634
1049.251	4.00963
1049.61	-6.01433
1049.969	5.01131
1050.328	6.01246
1050.687	-30.07043
1051.046	-29.06831
1051.405	-70.16895
1051.763	21.04692
1052.122	-60.14623
1052.48	-15.0358
1052.839	25.05751
1053.197	-41.09371
1053.555	14.02986
1053.914	-23.05441
1054.272	-81.1876
1054.63	-48.11489
1054.988	-7.01625
1055.345	-57.11726
1055.703	11.02557
1056.061	57.14262
1056.419	32.08138
1056.776	-77.17968
1057.134	-90.20044
1057.491	-14.03406
1057.848	4.00956
1058.206	-58.13073
1058.563	-13.0275
1058.92	-6.01326
1059.277	-6.01433
1059.634	-23.05157
1059.991	22.0508
1060.348	15.03268
1060.704	26.06104
1061.061	-46.10168
1061.418	-14.03296
1061.774	-36.08659
1062.131	16.04171
1062.487	-62.14054
1062.843	-22.05326
1063.199	-7.01689
1063.555	-25.0567
1063.911	-43.10529
1064.267	21.04092
1064.623	0
1064.979	-67.149
1065.335	-5.01142
1065.691	-52.1195
1066.046	-30.06351
1066.402	-30.06548
1066.757	1.00245
1067.112	1.00236
1067.468	-2.00463
1067.823	-77.17734
1068.178	-10.02322
1068.533	-4.00937
1068.888	-30.06914
1069.243	-62.14981
1069.598	-11.02568
1069.952	11.02437
1070.307	-6.01448
1070.662	5.01161
1071.016	-40.08838
1071.371	-10.02208
1071.725	8.01824
1072.079	-16.03737
1072.434	9.02119
1072.788	-66.15131
1073.142	34.08044
1073.496	-72.16665
1073.85	-39.08756
1074.203	-46.10892
1074.557	16.04182
1074.911	-14.03204
1075.265	7.01563
1075.618	29.06812
1075.971	-17.03908
1076.325	-35.08754
1076.678	-66.14748
1077.031	-102.22161
1077.385	-2.00421
1077.738	-22.04782
1078.091	-29.06455
1078.444	-42.09338
1078.796	6.01432
1079.149	11.02648
1079.502	11.02522
1079.855	-42.09536
1080.207	6.01421
1080.56	10.02522
1080.912	-24.05656
1081.264	-3.00701
1081.617	3.00709
1081.969	-28.06928
1082.321	-35.08279
1082.673	-4.00896
1083.025	-41.0939
1083.377	217.46934
1083.728	-20.04484
1084.08	0
1084.432	-33.07697
1084.783	-58.12955
1085.135	-13.0318
1085.486	-38.08498
1085.838	-6.01437
1086.189	27.06362
1086.54	-14.03217
1086.891	7.0175
1087.242	19.04541
1087.593	-23.0534
1087.944	6.01319
1088.295	-25.05474
1088.646	46.10905
1088.996	-27.06362
1089.347	-66.15742
1089.698	-10.02315
1090.048	-13.03262
1090.398	7.01548
1090.749	-23.05278
1091.099	12.02958
1091.449	16.03865
1091.799	36.08662
1092.149	-60.14547
1092.499	-27.06402
1092.849	-17.0421
1093.199	-31.07489
1093.548	18.04214
1093.898	-37.08982
1094.248	0
1094.597	10.02508
1094.947	-3.00781
1095.296	12.02879
1095.645	-26.06563
1095.994	-27.06293
1096.343	9.022
1096.692	-6.01562
1097.041	-13.03496
1097.39	-20.04843
1097.739	8.02014
1098.088	-44.11466
1098.437	21.05432
1098.785	-21.05483
1099.134	-20.0509
1099.482	15.0403
1099.83	-13.0333
1100.179	23.05929
1100.527	-83.21491
1100.875	-12.03119
1101.223	-2.00521
1101.571	-37.09997
1101.919	11.02858
1102.267	4.01111
1102.615	-5.01607
1102.962	4.01283
1103.31	3.00964
1103.658	-8.02567
