Data from N1 R1 sample 9_Subt2__3__11-25-30-877.txt Node

Date: Wed Sep 17 11:25:30 PDT 2025
User: uwsun
Spectrometer: HDX01956
Trigger mode: 0
Integration Time (sec): 5.000000E-1
Scans to average: 1
Nonlinearity correction enabled: true
Boxcar width: 0
Storing dark spectrum: false
XAxis mode: Wavelengths
Number of Pixels in Spectrum: 2068
>>>>>Begin Spectral Data<<<<<
194.03	-10.02907
194.578	4.013
195.127	-9.02889
195.676	1.00322
196.225	-49.13192
196.773	-6.01678
197.321	-38.10702
197.87	1.00262
198.418	24.06307
198.966	21.05643
199.513	31.08038
200.061	13.03379
200.609	35.09392
201.156	-9.02036
201.704	16.04118
202.251	13.03527
202.798	14.03707
203.345	57.14349
203.892	9.0233
204.438	-12.02932
204.985	14.03412
205.532	4.01076
206.078	0
206.624	58.14797
207.17	60.14328
207.716	6.01511
208.262	28.05717
208.808	47.12031
209.354	39.09846
209.899	17.04374
210.445	40.10205
210.99	33.08233
211.535	24.05799
212.08	21.04998
212.625	9.02302
213.17	27.07025
213.715	39.09122
214.259	45.10727
214.804	10.02511
215.348	18.04274
215.892	51.12613
216.436	12.02811
216.98	-17.03857
217.524	28.0685
218.068	49.12573
218.612	100.25628
219.155	58.1394
219.698	25.06078
220.242	3.00757
220.785	28.06722
221.328	8.0202
221.871	51.13183
222.414	26.06544
222.956	-4.0098
223.499	-29.06671
224.041	-7.01641
224.583	-69.15154
225.126	-20.04519
225.668	3.00745
226.21	12.03097
226.751	13.02965
227.293	14.03233
227.835	29.07227
228.376	11.02554
228.918	21.05313
229.459	16.04065
230	74.17934
230.541	-2.00471
231.082	31.07672
231.622	-36.08389
232.163	1.00246
232.704	28.07123
233.244	12.03032
233.784	-8.01981
234.324	63.14365
234.864	11.02538
235.404	-33.07984
235.944	-10.0241
236.484	52.13121
237.023	9.02164
237.563	27.06392
238.102	40.09596
238.641	9.02301
239.18	26.06213
239.719	25.06354
240.258	44.10031
240.797	10.02437
241.335	11.02723
241.874	25.04992
242.412	37.0913
242.95	39.09571
243.488	-30.06933
244.026	3.00714
244.564	74.15405
245.102	37.08535
245.64	10.02433
246.177	-54.12415
246.715	52.12645
247.252	39.08982
247.789	-8.01532
248.326	18.04421
248.863	-20.04535
249.4	14.03241
249.936	79.16743
250.473	69.16486
251.009	0
251.546	60.1359
252.082	-47.10504
252.618	10.02289
253.154	33.08071
253.69	50.11371
254.226	-31.07636
254.761	45.10257
255.297	-24.05401
255.832	37.08942
256.367	58.13787
256.903	51.11521
257.438	10.02393
257.972	53.11968
258.507	-31.07322
259.042	22.0489
259.576	76.17017
260.111	-6.01411
260.645	-2.00444
261.179	28.06681
261.713	9.02064
262.247	-3.00701
262.781	-24.0523
263.315	-5.01239
263.849	59.14927
264.382	52.12103
264.915	39.09383
265.449	-36.09038
265.982	52.11979
266.515	57.14143
267.048	-23.05036
267.58	5.01105
268.113	46.10117
268.646	-23.05769
269.178	-7.01606
269.71	53.11914
270.243	65.15251
270.775	51.13246
271.307	12.02908
271.838	49.11721
272.37	32.07962
272.902	-20.04659
273.433	94.21004
273.965	46.11324
274.496	6.01516
275.027	48.12107
275.558	65.1604
276.089	30.07621
276.62	-3.00772
277.15	53.13179
277.681	6.01324
278.211	1.00249
278.741	66.14857
279.272	36.08392
279.802	10.02535
280.332	1.00242
280.861	-1.00244
281.391	32.07413
281.921	16.03898
282.45	13.03283
282.98	43.11345
283.509	42.09733
284.038	74.17128
284.567	38.09008
285.096	-10.02488
285.625	-13.03007
286.153	42.1021
286.682	32.07501
287.21	2.00487
287.739	30.07219
288.267	8.01992
288.795	30.07948
289.323	42.10037
289.851	60.14317
290.378	-12.02752
290.906	62.15364
291.433	70.17619
291.961	55.12774
292.488	32.08066
293.015	69.16499
293.542	77.19979
294.069	62.1556
294.596	51.12627
295.122	71.17236
295.649	29.06484
296.175	-4.00986
296.702	98.24125
297.228	40.09785
297.754	26.05982
298.28	69.16107
298.806	55.13447
299.332	41.09371
299.857	54.12489
300.383	53.135
300.908	51.12737
301.433	58.14425
301.958	14.03288
302.483	-9.02286
303.008	48.12129
303.533	26.06819
304.058	-13.03117
304.582	23.05556
305.107	16.04242
305.631	58.13366
306.155	8.01913
306.679	49.11735
307.203	56.13224
307.727	53.1277
308.251	58.14515
308.775	105.25738
309.298	18.04441
309.822	42.10719
310.345	62.15054
310.868	78.19046
311.391	78.19421
311.914	20.05117
312.437	76.17626
312.96	52.12474
313.482	41.09823
314.005	69.1742
314.527	30.0793
315.049	68.17427
315.571	73.16712
316.093	66.1657
316.615	22.05398
317.137	46.10262
317.659	73.17914
318.18	40.09716
318.702	71.16906
319.223	12.02528
319.744	24.05551
320.265	85.20959
320.786	110.27676
321.307	101.25143
321.828	56.12895
322.348	85.2027
322.869	85.20527
323.389	19.03868
323.909	14.03289
324.43	62.1506
324.95	68.15852
325.47	93.23311
325.989	95.22811
326.509	95.216
327.029	78.18133
327.548	69.15936
328.067	92.22606
328.587	120.30279
329.106	41.09466
329.625	127.33133
330.144	77.18222
330.662	99.23555
331.181	119.28335
331.7	102.23984
332.218	92.2032
332.736	115.27193
333.255	119.28291
333.773	73.17535
334.291	139.34891
334.808	104.23785
335.326	100.22797
335.844	159.3751
336.361	151.38935
336.879	119.28313
337.396	174.42343
337.913	124.28952
338.43	121.27612
338.947	104.25167
339.464	86.18955
339.981	117.2803
340.497	112.27795
341.014	97.23954
341.53	129.29402
342.046	191.47528
342.562	133.33325
343.078	158.37324
343.594	168.39978
344.11	152.36574
344.626	148.37477
345.141	157.36116
345.657	172.39036
346.172	159.38483
346.687	144.33291
347.202	179.40979
347.717	173.41287
348.232	160.39909
348.747	174.4029
349.261	167.36907
349.776	180.42817
350.29	207.51509
350.805	188.46296
351.319	179.41637
351.833	187.43085
352.347	160.37958
352.861	168.39563
353.374	180.40984
353.888	253.61
354.401	170.38832
354.915	213.47977
355.428	252.61894
355.941	152.35628
356.454	244.53687
356.967	161.37701
357.48	183.41524
357.993	189.46328
358.505	179.4347
359.018	240.58096
359.53	211.51202
360.042	229.50947
360.554	248.59919
361.066	249.59718
361.578	282.61265
362.09	215.50818
362.602	254.56004
363.113	273.63198
363.625	241.54217
364.136	256.55546
364.647	240.56319
365.158	293.66777
365.669	261.61354
366.18	213.49838
366.691	269.58055
367.201	270.63581
367.712	259.58528
368.222	274.62081
368.733	250.53828
369.243	332.72218
369.753	286.64642
370.263	307.72362
370.773	234.56281
371.282	318.73978
371.792	357.80012
372.301	261.61999
372.811	332.84416
373.32	321.67821
373.829	322.73814
374.338	295.64239
374.847	381.84582
375.356	344.78509
375.865	383.79074
376.373	380.8315
376.882	426.02494
377.39	400.92351
377.898	372.87934
378.407	456.98006
378.915	504.03102
379.423	398.88594
379.93	613.30167
380.438	507.13745
380.946	557.19749
381.453	570.26144
381.96	665.43552
382.468	700.47534
382.975	694.52916
383.482	662.33588
383.989	753.72381
384.495	810.65214
385.002	776.42312
385.509	880.80885
386.015	976.65213
386.521	982.8677
387.028	1026.92511
387.534	1004.76763
388.04	1109.17802
388.546	1100.9583
389.051	1248.12814
389.557	1279.29375
390.063	1315.26512
390.568	1365.50218
391.073	1455.36145
391.578	1515.72445
392.084	1604.57432
392.589	1642.43922
393.093	1860.96812
393.598	1972.88356
394.103	2136.12591
394.607	2369.29549
395.112	2469.44341
395.616	2648.43684
396.12	2950.14496
396.624	3155.3208
397.128	3442.42512
397.632	3719.21463
398.136	4032.95679
398.639	4571.83902
399.143	5263.84423
399.646	5761.25013
400.15	6310.91432
400.653	7254.77644
401.156	8245.36493
401.659	9743.0697
402.162	12704.30407
402.664	19571.78509
403.167	40726.95437
403.67	60808.26833
404.172	63919.58413
404.674	63858.43483
405.176	63738.15102
405.678	63977.72923
406.18	64011.81569
406.682	63863.44694
407.184	63926.60148
407.686	59292.43275
408.187	35578.9774
408.688	24135.42473
409.19	18946.05365
409.691	15744.18828
410.192	13617.30231
410.693	12311.3855
411.194	11662.42466
411.694	10899.76599
412.195	9891.44243
412.696	9295.04951
413.196	9165.72192
413.696	9246.97278
414.196	9159.72529
414.696	8594.03381
415.196	7660.02196
415.696	6138.75467
416.196	4887.63543
416.695	4226.02454
417.195	3999.25849
417.694	3942.40594
418.194	3486.65486
418.693	3435.1083
419.192	3378.30272
419.691	3181.24733
420.19	3232.44032
420.688	2927.56296
421.187	2792.59364
421.685	2503.1821
422.184	2210.13632
422.682	1938.65107
423.18	1796.75745
423.678	1618.58682
424.176	1466.43571
424.674	1400.29115
425.172	1330.37043
425.669	1134.22878
426.167	1089.02868
426.664	1009.86858
427.161	936.79127
427.659	873.8021
428.156	804.45978
428.652	735.63273
429.149	751.59575
429.646	671.32401
430.143	680.44757
430.639	629.33743
431.135	637.43243
431.632	600.23608
432.128	535.17724
432.624	516.22824
433.12	566.17221
433.616	557.1085
434.111	464.02354
434.607	469.04171
435.103	407.79993
435.598	464.8937
436.093	430.93691
436.588	364.77697
437.083	371.78693
437.578	355.78123
438.073	336.80317
438.568	330.77616
439.062	233.48603
439.557	265.59884
440.051	279.6042
440.546	274.60034
441.04	293.67612
441.534	277.67214
442.028	308.71059
442.522	238.55457
443.015	192.40362
443.509	249.58625
444.002	266.62785
444.496	231.48678
444.989	236.55532
445.482	224.53896
445.975	203.45856
446.468	219.4619
446.961	254.53325
447.454	193.4235
447.947	223.51747
448.439	216.51558
448.931	212.47429
449.424	231.5702
449.916	167.40008
450.408	227.50397
450.9	165.39348
451.392	228.56145
451.884	188.42251
452.375	155.37712
452.867	203.44469
453.358	173.38872
453.849	184.38527
454.341	176.38953
454.832	124.26561
455.323	199.48308
455.814	143.3225
456.304	159.36151
456.795	140.31541
457.285	120.26182
457.776	212.4694
458.266	167.38845
458.756	100.23449
459.247	112.2653
459.737	169.40054
460.226	179.39923
460.716	130.30662
461.206	121.28601
461.695	74.1821
462.185	138.32271
462.674	125.28237
463.163	158.34809
463.653	156.3265
464.142	121.28955
464.63	140.33354
465.119	141.32267
465.608	143.32961
466.096	64.13905
466.585	110.24874
467.073	64.15066
467.561	87.20724
468.05	107.24388
468.538	113.27257
469.026	62.14669
469.513	64.13519
470.001	92.2099
470.489	80.18913
470.976	105.24299
471.463	137.33507
471.951	89.21913
472.438	87.20285
472.925	71.16652
473.412	69.16656
473.899	97.22055
474.385	77.18728
474.872	72.16718
475.359	101.24565
475.845	64.13264
476.331	71.15087
476.817	72.17423
477.303	87.20077
477.789	74.17522
478.275	37.09184
478.761	51.12092
479.247	35.07839
479.732	17.04258
480.218	67.1745
480.703	66.16176
481.188	41.08913
481.673	48.11044
482.158	51.1105
482.643	71.18021
483.128	94.2174
483.612	80.1895
484.097	18.04359
484.581	91.20883
485.066	77.18742
485.55	50.1108
486.034	9.01972
486.518	105.24867
487.002	-4.0098
487.486	26.06327
487.969	14.03418
488.453	-8.02006
488.936	33.07461
489.42	63.13918
489.903	14.03497
490.386	-87.18584
490.869	54.11847
491.352	9.02178
491.835	10.0207
492.318	3.00681
492.8	-31.06556
493.283	32.08172
493.765	-2.00494
494.247	29.06775
494.73	13.02903
495.212	-21.05039
495.694	27.06392
496.175	25.06033
496.657	46.10892
497.139	8.01396
497.62	6.01454
498.102	43.10701
498.583	-27.06709
499.064	13.02923
499.545	33.07549
500.026	4.00914
500.507	0
500.988	87.21563
501.469	-39.09853
501.949	37.0914
502.43	30.07254
502.91	40.08531
503.39	-12.03002
503.87	24.05703
504.35	2.00472
504.83	-15.03329
505.31	25.06046
505.79	-51.12279
506.269	-22.05121
506.749	-15.03473
507.228	-6.01428
507.707	-15.03397
508.187	31.07432
508.666	19.0473
509.145	21.04939
509.623	2.00473
510.102	-27.06621
510.581	13.03157
511.059	5.01267
511.538	-4.01039
512.016	12.02896
512.494	-20.04867
512.972	4.00966
513.45	-37.08783
513.928	-40.09887
514.406	20.04931
514.884	-15.03907
515.361	-26.06313
515.839	-2.00466
516.316	-20.04925
516.793	-22.05619
517.27	-33.08059
517.747	23.05925
518.224	-37.08678
518.701	-26.05846
519.178	-28.07103
519.654	-14.03357
520.131	-2.005
520.607	-36.08931
521.083	-71.16496
521.56	-43.10321
522.036	-23.05094
522.512	4.00996
522.987	8.01944
523.463	-23.05531
523.939	59.14623
524.414	-41.09564
524.89	0
525.365	-10.0229
525.84	-10.02433
526.315	6.01466
526.79	3.00684
527.265	43.09967
527.74	-35.0863
528.215	-66.15755
528.689	-31.06923
529.164	-65.14311
529.638	-7.01791
530.112	-25.05969
530.587	-36.07868
531.061	-34.08364
531.534	-26.06358
532.008	31.07571
532.482	-9.02096
532.956	-75.1954
533.429	75.18282
533.903	-34.07597
534.376	-5.0112
534.849	-48.11265
535.322	7.01667
535.795	-72.1779
536.268	-3.00734
536.741	-49.1186
537.213	4.00929
537.686	22.05414
538.158	-17.03928
538.631	-5.01224
539.103	-29.06671
539.575	-23.04828
540.047	-23.05104
540.519	-5.01208
540.991	-5.01232
541.463	-13.03167
541.934	-42.09687
542.406	16.03875
542.877	-66.15283
543.348	43.10412
543.82	-10.02461
544.291	-2.00473
544.762	16.03841
545.233	69.17445
545.703	18.04045
546.174	13.03044
546.645	4.00978
547.115	16.03895
547.585	46.10618
548.056	43.10615
548.526	-8.01926
548.996	12.02896
549.466	36.0879
549.935	59.14119
550.405	26.05769
550.875	56.13327
551.344	41.09819
551.814	31.0716
552.283	76.16589
552.752	48.11304
553.221	41.09126
553.69	80.18075
554.159	50.12485
554.628	55.12531
555.096	90.2279
555.565	76.16807
556.033	165.38653
556.502	77.18545
556.97	85.18887
557.438	62.14578
557.906	94.22077
558.374	118.27128
558.842	101.24049
559.31	109.2424
559.777	125.30231
560.245	99.22583
560.712	96.21876
561.18	109.23969
561.647	121.26574
562.114	144.32535
562.581	162.39142
563.048	137.30973
563.514	173.42563
563.981	158.35567
564.448	140.31218
564.914	121.27812
565.381	217.48157
565.847	150.34374
566.313	201.45404
566.779	209.45725
567.245	150.34167
567.711	198.46192
568.176	150.3313
568.642	200.49087
569.108	201.48134
569.573	198.44626
570.038	233.47047
570.504	244.53213
570.969	218.52433
571.434	268.57132
571.899	242.55411
572.363	262.57792
572.828	253.56052
573.293	253.55865
573.757	296.65646
574.222	250.54013
574.686	313.68534
575.15	309.70963
575.614	354.78997
576.078	307.68694
576.542	299.65027
577.006	278.60216
577.469	331.77321
577.933	299.65055
578.396	274.62359
578.86	305.68472
579.323	319.732
579.786	302.62422
580.249	345.76973
580.712	265.61979
581.175	285.67334
581.637	277.60576
582.1	261.54661
582.563	232.47652
583.025	271.63382
583.487	293.57505
583.95	227.47099
584.412	250.50584
584.874	291.67952
585.336	224.51537
585.797	249.52217
586.259	267.6004
586.721	201.45941
587.182	225.50265
587.643	222.48928
588.105	204.46917
588.566	166.33973
589.027	273.64275
589.488	251.55563
589.949	233.54794
590.41	198.38226
590.87	251.55424
591.331	264.55473
591.791	172.39052
592.252	204.46298
592.712	150.35366
593.172	194.4308
593.632	191.41487
594.092	164.35888
594.552	158.33669
595.011	165.3709
595.471	223.49056
595.931	158.35086
596.39	168.39563
596.849	159.36386
597.308	131.27594
597.768	150.38078
598.227	121.28767
598.685	136.30602
599.144	143.33237
599.603	75.17515
600.062	130.27112
600.52	148.32948
600.978	125.29202
601.437	98.22169
601.895	93.19882
602.353	95.20785
602.811	152.33754
603.269	69.16398
603.727	110.26177
604.184	103.23334
604.642	118.28694
605.099	169.38705
605.557	137.32833
606.014	58.12547
606.471	96.2392
606.928	133.29221
607.385	127.31419
607.842	65.14923
608.299	117.27076
608.755	78.18833
609.212	147.32297
609.668	85.19131
610.125	88.21094
610.581	77.18003
611.037	39.08792
611.493	34.07979
611.949	99.23943
612.405	114.23045
612.861	15.03482
613.316	46.11048
613.772	24.05542
614.227	94.22447
614.683	39.08323
615.138	65.15227
615.593	34.07932
616.048	43.09876
616.503	46.11182
616.958	49.12273
617.412	84.19844
617.867	26.05865
618.321	23.04796
618.776	13.02893
619.23	13.0307
619.684	38.08516
620.138	65.14845
620.592	48.11646
621.046	40.09479
621.5	31.07486
621.954	12.02678
622.407	43.09535
622.861	43.10447
623.314	9.02055
623.768	50.11812
624.221	-11.02203
624.674	29.0673
625.127	36.08392
625.58	33.07436
626.033	40.08768
626.485	-35.085
626.938	35.08353
627.39	71.16529
627.843	-29.06788
628.295	-2.00466
628.747	17.04076
629.199	34.07764
629.651	-12.02784
630.103	34.0782
630.555	17.03609
631.006	18.04206
631.458	20.04727
631.909	-34.07738
632.361	-18.04203
632.812	20.04651
633.263	54.11707
633.714	12.0256
634.165	-11.02661
634.616	-35.08391
635.067	-8.01781
635.518	4.00954
635.968	-38.07618
636.419	53.11561
636.869	28.06643
637.319	52.12041
637.769	76.16975
638.219	52.12232
638.669	18.04293
639.119	35.08372
639.569	2.00483
640.019	51.11756
640.468	36.08081
640.918	-18.04312
641.367	19.04273
641.816	32.07127
642.265	36.08405
642.714	-26.0604
643.163	6.01397
643.612	45.1101
644.061	49.10476
644.51	7.01616
644.958	24.05323
645.406	19.04555
645.855	-36.08853
646.303	17.03945
646.751	64.14743
647.199	38.08617
647.647	33.07673
648.095	8.01836
648.543	13.02658
648.99	64.15295
649.438	40.09244
649.885	64.15865
650.333	35.0682
650.78	51.12288
651.227	58.14131
651.674	41.09356
652.121	40.09803
652.568	37.0906
653.015	-2.00498
653.461	10.02389
653.908	15.03459
654.354	26.06199
654.801	-4.00945
655.247	41.08875
655.693	32.0831
656.139	-18.04336
656.585	33.07879
657.031	39.09161
657.477	64.13922
657.922	-25.05751
658.368	47.11508
658.813	41.09307
659.259	66.15899
659.704	106.24788
660.149	12.02779
660.594	64.15096
661.039	61.1383
661.484	58.13664
661.929	50.11642
662.373	35.08767
662.818	55.13527
663.262	56.13475
663.707	60.15167
664.151	54.13097
664.595	60.14426
665.039	66.16254
665.483	83.20887
665.927	67.15604
666.371	55.12885
666.814	100.23422
667.258	76.18155
667.701	120.25115
668.145	62.15319
668.588	89.21792
669.031	24.0565
669.474	48.11467
669.917	91.19691
670.36	61.15119
670.803	84.20074
671.245	0
671.688	108.25859
672.13	74.16597
672.573	59.14789
673.015	100.2377
673.457	114.24377
673.899	79.18905
674.341	60.1435
674.783	70.16626
675.225	38.09324
675.666	95.22941
676.108	48.10335
676.549	45.10435
676.991	53.11571
677.432	31.06156
677.873	59.13371
678.314	74.17427
678.755	135.32576
679.196	52.11816
679.637	81.19146
680.078	84.19374
680.518	72.16354
680.959	51.1206
681.399	64.15691
681.839	76.18232
682.28	89.21816
682.72	50.11362
683.16	105.25758
683.6	80.17972
684.039	67.13696
684.479	61.14931
684.919	95.2202
685.358	60.14792
685.798	16.04156
686.237	109.25505
686.676	24.05418
687.115	101.23392
687.554	106.24914
687.993	119.2576
688.432	117.26138
688.871	87.19661
689.309	156.3638
689.748	42.08689
690.186	70.1617
690.625	84.19451
691.063	38.09012
691.501	78.19031
691.939	91.22563
692.377	62.14868
692.815	148.35246
693.253	87.20373
693.69	58.12569
694.128	89.21265
694.565	103.23931
695.003	106.26584
695.44	101.23485
695.877	101.23327
696.314	52.1084
696.751	85.18942
697.188	109.24753
697.625	39.08659
698.061	56.13265
698.498	48.11234
698.934	62.14635
699.371	97.22403
699.807	73.16981
700.243	95.22499
700.679	54.11902
701.115	77.17678
701.551	37.08525
701.987	59.12717
702.422	123.28656
702.858	132.30674
703.294	138.30772
703.729	95.22655
704.164	110.25663
704.599	107.23371
705.035	90.19811
705.47	69.16505
705.904	68.15514
706.339	118.26411
706.774	103.23599
707.209	70.16055
707.643	91.21351
708.078	89.21232
708.512	69.17046
708.946	71.16542
709.38	100.23257
709.814	98.2169
710.248	96.23012
710.682	100.23523
711.116	141.3338
711.549	54.13601
711.983	69.15682
712.416	107.24821
712.85	81.19686
713.283	76.17626
713.716	87.21128
714.149	45.1029
714.582	99.21742
715.015	65.15679
715.448	82.20276
715.881	75.15784
716.313	115.26158
716.746	96.22229
717.178	95.22351
717.61	97.24147
718.043	73.17695
718.475	107.25341
718.907	73.17888
719.339	33.07409
719.77	112.2616
720.202	22.05458
720.634	121.28922
721.065	12.02807
721.497	98.23438
721.928	19.04602
722.359	35.08433
722.79	66.15531
723.221	36.08823
723.652	82.20402
724.083	31.06891
724.514	60.13551
724.945	1.00233
725.375	23.05329
725.806	20.04878
726.236	81.20267
726.666	79.18224
727.096	93.22204
727.526	85.21459
727.956	21.04757
728.386	42.10145
728.816	62.15611
729.246	80.19352
729.675	-10.02426
730.105	71.17003
730.534	18.0415
730.964	6.01483
731.393	41.09886
731.822	61.15312
732.251	48.1199
732.68	36.08204
733.109	75.18119
733.537	82.19634
733.966	62.15212
734.395	44.10014
734.823	-3.00658
735.251	-5.01193
735.68	28.06806
736.108	5.01237
736.536	5.01159
736.964	53.12051
737.392	25.06165
737.82	13.03067
738.247	33.0774
738.675	-1.00233
739.102	14.03453
739.53	62.15667
739.957	47.1198
740.384	-21.05025
740.811	5.0123
741.238	45.10867
741.665	64.14761
742.092	-86.19898
742.519	-3.0074
742.945	60.14322
743.372	42.10278
743.798	8.02026
744.225	-14.03288
744.651	2.00495
745.077	2.00494
745.503	-49.11815
745.929	20.04791
746.355	55.13096
746.781	9.02184
747.207	12.02823
747.632	77.18721
748.058	40.09934
748.483	46.10376
748.908	-11.02722
749.334	43.10431
749.759	61.14257
750.184	33.07846
750.609	12.02903
751.033	-4.00923
751.458	51.1112
751.883	10.02429
752.307	-2.00466
752.732	93.23219
753.156	-11.02685
753.58	33.0764
754.005	16.03958
754.429	30.07016
754.853	1.00247
755.277	24.05623
755.7	24.05871
756.124	15.03684
756.548	11.02565
756.971	59.14086
757.394	3.00758
757.818	-9.02304
758.241	-10.02522
758.664	-10.02504
759.087	-18.0404
759.51	-53.13045
759.933	-10.02403
760.356	26.06621
760.778	1.00243
761.201	-3.00716
761.623	-32.0756
762.046	-23.05325
762.468	46.10774
762.89	8.01924
763.312	33.07948
763.734	17.04043
764.156	2.00488
764.578	-33.07467
765	43.10274
765.421	1.00253
765.843	13.03356
766.264	-11.02573
766.686	-12.02943
767.107	-13.0312
767.528	48.12116
767.949	-2.00501
768.37	51.124
768.791	4.00945
769.212	-15.03753
769.632	-4.00928
770.053	-6.0155
770.473	-61.14664
770.894	-9.02184
771.314	-15.03493
771.734	27.06171
772.154	-23.05811
772.575	-11.02501
772.994	-53.11948
773.414	15.03499
773.834	-43.10638
774.254	10.024
774.673	36.08646
775.093	6.01475
775.512	-29.07111
775.931	17.04244
776.351	0
776.77	-34.08302
777.189	11.02571
777.607	-28.07088
778.026	-19.04685
778.445	-9.02262
778.864	-70.17676
779.282	-24.0565
779.701	-5.01237
780.119	-9.02255
780.537	-40.09872
780.955	-29.07248
781.373	-37.09056
781.791	-13.02921
782.209	-10.02217
782.627	-24.0626
783.045	-67.1516
783.462	-7.01763
783.88	-41.1055
784.297	1.00248
784.715	0
785.132	-34.08091
785.549	-29.07164
785.966	-21.0522
786.383	-22.0538
786.8	16.03634
787.217	18.04226
787.633	-2.00497
788.05	-21.04804
788.466	8.01821
788.883	9.02278
789.299	-31.07265
789.715	-2.0048
790.131	-19.04661
790.547	21.05119
790.963	9.02186
791.379	19.04709
791.795	-2.00442
792.21	-15.03423
792.626	-44.10229
793.041	-30.0729
793.457	-29.07019
793.872	-45.1036
794.287	-5.01193
794.702	-48.11497
795.117	-30.07399
795.532	-9.02239
795.947	-7.01626
796.362	-12.02748
796.776	1.00224
797.191	-6.01445
797.605	-29.06807
798.02	-36.0863
798.434	59.12674
798.848	3.00735
799.262	-21.05131
799.676	-4.00956
800.09	-6.01446
800.504	13.03063
800.918	-57.12923
801.331	-24.06045
801.745	-74.16754
802.158	-68.16697
802.572	-2.00475
802.985	-28.06584
803.398	-13.03028
803.811	-82.20491
804.224	-21.05062
804.637	7.01637
805.05	10.02238
805.462	31.07356
805.875	-55.14172
806.288	-33.07897
806.7	-67.16497
807.112	-46.10402
807.525	-75.18036
807.937	-16.03894
808.349	-44.10784
808.761	23.05533
809.173	6.01427
809.584	-26.0627
809.996	-28.06727
810.408	-18.04623
810.819	-25.05781
811.231	36.09403
811.642	-4.00976
812.053	5.01194
812.464	-30.06977
812.875	-10.02521
813.286	21.05326
813.697	-33.07363
814.108	-2.00474
814.519	11.02407
814.929	-8.0199
815.34	-71.16847
815.75	-5.01256
816.16	-13.03128
816.571	29.07303
816.981	-46.10542
817.391	-35.08212
817.801	-23.05632
818.211	-18.04185
818.62	-3.00709
819.03	-14.03346
819.44	-49.12388
819.849	-37.0906
820.259	-24.05956
820.668	10.02408
821.077	4.0098
821.486	-28.06514
821.895	-31.07393
822.304	-19.0493
822.713	8.0183
823.122	-5.01216
823.531	-66.15192
823.939	-7.01674
824.348	1.00235
824.756	-36.088
825.164	3.00732
825.573	-32.07889
825.981	-1.0024
826.389	-30.07374
826.797	43.10627
827.205	-2.00451
827.612	-14.03355
828.02	-62.1426
828.428	-34.0849
828.835	-12.03118
829.243	-13.02998
829.65	-32.07875
830.057	-32.07565
830.464	22.05272
830.871	-24.05645
831.278	-7.01651
831.685	-13.02808
832.092	-11.02599
832.499	-1.00214
832.905	-24.05906
833.312	-50.10956
833.718	12.0293
834.124	-19.04246
834.531	-62.1524
834.937	-2.00503
835.343	-22.05137
835.749	0
836.155	-11.02819
836.561	-16.0385
836.966	-31.07387
837.372	-8.01977
837.777	-9.02197
838.183	-20.04301
838.588	21.05096
838.993	4.00948
839.399	-62.15009
839.804	-40.09588
840.209	18.04513
840.613	-28.0606
841.018	-10.02457
841.423	-10.02509
841.828	5.01238
842.232	-9.02132
842.637	17.03931
843.041	-14.03529
843.445	-34.0829
843.849	1.00242
844.253	-8.01843
844.657	-19.04713
845.061	14.03132
845.465	-37.08759
845.869	36.08058
846.272	-70.16907
846.676	-35.08125
847.079	-37.09314
847.483	-18.04371
847.886	14.03268
848.289	-5.01323
848.692	-33.08128
849.095	-14.0326
849.498	-8.01945
849.901	-26.05757
850.304	-9.02089
850.707	-50.12481
851.109	6.01467
851.512	35.08337
851.914	-36.0897
852.316	38.0941
852.718	11.02841
853.121	-20.04789
853.523	-38.08617
853.925	4.01029
854.326	-49.12127
854.728	-2.00504
855.13	-2.00509
855.531	-44.10334
855.933	-10.0231
856.334	3.00734
856.736	-2.00439
857.137	-5.01141
857.538	-5.01235
857.939	36.08731
858.34	-11.0258
858.741	-13.03309
859.142	-40.09347
859.542	-30.07825
859.943	5.01207
860.343	-60.14732
860.744	3.0071
861.144	16.03819
861.544	-8.019
861.945	-28.06974
862.345	6.01416
862.745	-27.06614
863.145	-34.07776
863.544	-41.10199
863.944	-3.00688
864.344	-38.09112
864.743	-16.03863
865.143	24.06039
865.542	-79.17795
865.941	-16.03879
866.34	-20.04602
866.74	0
867.139	-27.06407
867.537	-23.05661
867.936	-8.01882
868.335	-36.0895
868.734	-4.00998
869.132	-54.12126
869.531	-44.10281
869.929	-47.10539
870.327	-13.03032
870.726	-17.04087
871.124	-35.07913
871.522	-14.03467
871.92	21.05014
872.318	-38.09015
872.715	-54.1291
873.113	-32.07571
873.511	3.00723
873.908	-22.05525
874.306	-1.00244
874.703	-29.07016
875.1	-23.05661
875.497	-45.10513
875.894	-12.02921
876.291	-14.03355
876.688	-46.11669
877.085	-32.07436
877.482	-24.05862
877.878	17.04018
878.275	-16.03979
878.671	-31.0649
879.068	6.01403
879.464	-29.06836
879.86	-50.11578
880.256	-49.1165
880.652	-25.06212
881.048	-55.13222
881.444	-60.13789
881.84	-39.09695
882.236	14.03408
882.631	-10.02403
883.027	-35.08238
883.422	-43.10708
883.817	-32.07936
884.213	-18.04513
884.608	2.00488
885.003	-82.19311
885.398	-42.10313
885.793	-47.11513
886.188	-60.14629
886.582	23.05657
886.977	-16.03664
887.371	-61.15053
887.766	-22.05376
888.16	-70.16882
888.554	-3.00715
888.949	13.03162
889.343	-48.11414
889.737	-22.05801
890.131	-1.00244
890.525	-21.05285
890.918	-29.07125
891.312	2.00458
891.706	-38.09753
892.099	-12.02965
892.492	-13.02693
892.886	-40.09545
893.279	7.01727
893.672	-28.07022
894.065	-20.04891
894.458	-31.07537
894.851	-18.0426
895.244	-43.10759
895.637	35.08151
896.029	26.06183
896.422	-40.09427
896.814	-39.0945
897.206	-12.02819
897.599	18.043
897.991	-12.02841
898.383	-20.04609
898.775	-20.04441
899.167	-7.0161
899.559	-9.02196
899.951	-45.10261
900.342	-59.14591
900.734	-15.03721
901.125	-12.0305
901.517	-47.11324
901.908	-13.02979
902.299	-36.08633
902.69	17.03912
903.082	26.06075
903.473	28.06579
903.863	-33.08185
904.254	-9.02053
904.645	-51.1226
905.036	-17.04094
905.426	-27.0591
905.817	-21.04983
906.207	-58.13382
906.597	-13.02986
906.987	-35.08802
907.378	-20.04965
907.768	-21.05451
908.158	-15.03548
908.547	15.03819
908.937	-41.10169
909.327	-8.01882
909.717	-51.12479
910.106	-12.02785
910.495	-10.02398
910.885	-5.01236
911.274	-52.12721
911.663	-22.05394
912.052	-26.06175
912.441	-12.02999
912.83	-41.09103
913.219	0
913.608	4.00954
913.997	-22.05438
914.385	33.07588
914.774	-10.0236
915.162	4.00935
915.55	-39.09136
915.939	-12.02976
916.327	-60.14574
916.715	2.00504
917.103	-33.07779
917.491	-9.02155
917.878	-3.00714
918.266	-25.06307
918.654	11.02751
919.041	12.03087
919.429	-51.1177
919.816	-12.02957
920.203	4.0095
920.591	-15.03629
920.978	-6.01426
921.365	41.10447
921.752	-74.17047
922.139	-19.03995
922.525	-42.09903
922.912	-4.00942
923.299	-29.07048
923.685	-53.13452
924.072	-66.14516
924.458	-5.0121
924.844	-5.01203
925.231	-60.13534
925.617	1.0025
926.003	-3.00743
926.389	-26.06398
926.774	-44.10876
927.16	-19.04585
927.546	-35.08896
927.931	22.05268
928.317	-10.02212
928.702	21.04761
929.088	3.00704
929.473	-5.01249
929.858	8.0191
930.243	-7.01649
930.628	-37.08895
931.013	2.00482
931.398	-52.11461
931.783	-9.02284
932.167	34.08104
932.552	-15.03646
932.937	-3.00718
933.321	-40.09912
933.705	-59.14425
934.09	-43.104
934.474	-32.07322
934.858	-11.02789
935.242	-20.04484
935.626	-3.00751
936.009	-19.04996
936.393	43.10712
936.777	-8.02009
937.16	17.0433
937.544	-90.20517
937.927	-5.01242
938.311	-6.0141
938.694	-1.00258
939.077	-54.12653
939.46	-82.19356
939.843	-15.02938
940.226	-41.1024
940.609	30.06706
940.991	-53.13146
941.374	-48.11563
941.757	-8.01908
942.139	-4.00872
942.522	22.04971
942.904	24.05564
943.286	-18.04439
943.668	25.06345
944.05	-3.00718
944.432	-9.02148
944.814	-53.12644
945.196	-20.04789
945.578	-14.03293
945.959	-50.11316
946.341	-62.14618
946.722	-29.06578
947.104	-9.02088
947.485	-11.02482
947.866	-6.01484
948.247	9.02226
948.628	-58.13569
949.009	-7.01745
949.39	-40.09661
949.771	-68.15101
950.152	-28.06709
950.532	29.07096
950.913	15.03486
951.293	15.03981
951.674	-3.00703
952.054	44.10712
952.434	-42.10217
952.814	-63.14498
953.194	-41.10366
953.574	-43.10294
953.954	-74.17054
954.334	34.08256
954.714	-42.1006
955.093	23.05453
955.473	-13.03202
955.853	2.00504
956.232	0
956.611	-50.1155
956.99	-13.03195
957.37	-32.0791
957.749	-71.16333
958.128	39.09539
958.506	-24.06097
958.885	-48.11816
959.264	12.02886
959.643	32.07038
960.021	-28.06822
960.4	-16.03506
960.778	-28.06609
961.156	-23.05594
961.535	-30.0672
961.913	26.05889
962.291	-5.01266
962.669	-26.06467
963.047	6.01496
963.424	42.10492
963.802	-37.08908
964.18	-18.04356
964.557	-6.01328
964.935	-3.00687
965.312	-34.08723
965.69	-35.08468
966.067	-38.08914
966.444	-56.13239
966.821	16.04004
967.198	3.00695
967.575	-28.06653
967.952	-14.03186
968.329	-11.02617
968.705	4.00831
969.082	-7.01774
969.458	-4.00945
969.835	5.01177
970.211	-3.00758
970.587	-19.04616
970.963	-25.06199
971.339	-16.04099
971.715	-17.04141
972.091	-8.0191
972.467	-45.10801
972.843	-16.03914
973.219	-19.0438
973.594	-53.13624
973.97	-46.10376
974.345	-2.00466
974.721	-54.12578
975.096	19.04477
975.471	17.03867
975.846	-64.14943
976.221	-20.0496
976.596	51.11938
976.971	18.04328
977.346	-29.06498
977.72	-49.12163
978.095	-48.12151
978.469	-24.05538
978.844	5.0121
979.218	-4.00945
979.593	-56.13049
979.967	-49.1143
980.341	26.05781
980.715	19.04644
981.089	-37.09036
981.463	-34.07591
981.837	10.02395
982.21	-18.03939
982.584	9.02112
982.957	-14.03425
983.331	-30.06781
983.704	28.06725
984.078	-37.08881
984.451	-28.06663
984.824	-13.03098
985.197	-30.06974
985.57	-58.14014
985.943	-38.08973
986.316	-50.11793
986.688	9.02091
987.061	-16.0365
987.434	26.06654
987.806	-33.0767
988.179	-26.05932
988.551	2.0049
988.923	-21.04997
989.295	15.036
989.667	-36.08524
990.039	32.07761
990.411	-26.05707
990.783	-74.1644
991.155	-52.12284
991.527	-29.06804
991.898	-2.00486
992.27	-2.00485
992.641	-31.07529
993.012	-55.12282
993.384	-18.04142
993.755	-63.15877
994.126	-14.033
994.497	-86.20795
994.868	-1.00219
995.239	23.0535
995.61	-30.07374
995.98	-33.07794
996.351	-51.1246
996.722	1.00227
997.092	-44.10225
997.462	-51.11793
997.833	-32.07301
998.203	-21.04864
998.573	-36.0879
998.943	40.09045
999.313	-22.05157
999.683	-53.12484
1000.053	-97.21411
1000.423	-1.00233
1000.792	-35.0876
1001.162	-68.16294
1001.531	0
1001.901	-30.07246
1002.27	-58.12354
1002.639	-54.13411
1003.009	-7.01606
1003.378	-16.03992
1003.747	-63.14452
1004.116	-34.07901
1004.485	-2.00462
1004.853	-34.0828
1005.222	-63.15277
1005.591	3.00685
1005.959	-38.08365
1006.328	-12.02622
1006.696	-25.05831
1007.064	-75.18351
1007.433	-12.02886
1007.801	-39.09158
1008.169	-66.1617
1008.537	-11.02346
1008.905	-21.04783
1009.273	-24.05716
1009.64	11.02569
1010.008	-24.0554
1010.375	-6.01382
1010.743	-1.00215
1011.11	4.00934
1011.478	8.0193
1011.845	-18.04074
1012.212	34.07462
1012.579	8.01902
1012.946	-1.00227
1013.313	-15.03423
1013.68	13.02786
1014.047	-62.14448
1014.414	-64.14755
1014.78	9.02173
1015.147	10.02301
1015.513	-42.09864
1015.88	5.01229
1016.246	-7.01651
1016.612	-20.04386
1016.978	-1.00239
1017.344	-4.0096
1017.71	-3.00702
1018.076	-42.09524
1018.442	-9.02259
1018.808	29.07061
1019.174	-37.08996
1019.539	-32.06813
1019.905	9.02059
1020.27	-56.1349
1020.636	-35.08039
1021.001	24.05546
1021.366	-47.11071
1021.731	-2.00507
1022.096	-9.02229
1022.461	14.03201
1022.826	38.08736
1023.191	-21.05379
1023.556	-8.018
1023.92	-35.08292
1024.285	-57.13437
1024.649	-36.08531
1025.014	-16.03797
1025.378	11.02694
1025.742	-27.06461
1026.107	-16.03481
1026.471	24.05334
1026.835	24.05733
1027.199	-38.08932
1027.562	-46.10283
1027.926	-12.02824
1028.29	-29.07161
1028.654	-48.1069
1029.017	24.057
1029.381	-15.03486
1029.744	-25.06219
1030.107	36.08157
1030.471	-5.01165
1030.834	-44.09551
1031.197	-19.0443
1031.56	-16.03631
1031.923	-17.0429
1032.286	34.07644
1032.648	8.01815
1033.011	-6.01351
1033.374	-9.02018
1033.736	-37.09534
1034.099	-12.02838
1034.461	-17.04215
1034.823	-29.07069
1035.185	-29.07038
1035.548	-7.01658
1035.91	3.00692
1036.272	-3.00662
1036.634	40.0938
1036.995	-61.13875
1037.357	-30.07142
1037.719	5.01177
1038.08	14.0323
1038.442	0
1038.803	-44.10108
1039.165	-80.19745
1039.526	-32.07527
1039.887	-6.01386
1040.248	-4.00973
1040.609	-24.05694
1040.97	-10.02359
1041.331	5.01236
1041.692	17.03893
1042.053	-2.00435
1042.413	-33.07406
1042.774	15.03525
1043.134	-21.04773
1043.495	20.04849
1043.855	-6.01426
1044.215	-19.0455
1044.576	-41.09624
1044.936	-6.01317
1045.296	21.0505
1045.656	-47.11118
1046.016	-13.03018
1046.375	-26.06125
1046.735	49.10807
1047.095	6.01353
1047.454	-20.04023
1047.814	-18.04199
1048.173	-38.08684
1048.533	-37.08225
1048.892	-38.08925
1049.251	2.00482
1049.61	-19.04548
1049.969	-36.08214
1050.328	5.01039
1050.687	-35.08225
1051.046	-48.11348
1051.405	-39.09358
1051.763	13.02909
1052.122	-41.09957
1052.48	-23.05498
1052.839	-8.01852
1053.197	-17.03867
1053.555	-17.0365
1053.914	-22.05203
1054.272	-47.10812
1054.63	-14.03329
1054.988	-3.00696
1055.345	-51.10478
1055.703	-13.03036
1056.061	-5.01265
1056.419	-30.07713
1056.776	-44.10201
1057.134	-67.14851
1057.491	-25.06094
1057.848	-48.11589
1058.206	-79.17882
1058.563	-59.12608
1058.92	16.03519
1059.277	-13.03109
1059.634	-28.06285
1059.991	45.10344
1060.348	-41.09039
1060.704	-9.02127
1061.061	-24.05281
1061.418	-16.03768
1061.774	-28.06725
1062.131	-9.02356
1062.487	-64.14513
1062.843	-24.05812
1063.199	-17.04108
1063.555	11.02477
1063.911	-56.13745
1064.267	-59.11716
1064.623	-13.03099
1064.979	-53.11752
1065.335	11.02505
1065.691	-77.17784
1066.046	-57.12138
1066.402	-45.09854
1066.757	-13.03189
1067.112	0
1067.468	-7.01622
1067.823	-56.12844
1068.178	-43.1005
1068.533	-16.03756
1068.888	-23.05293
1069.243	-9.02153
1069.598	-16.03739
1069.952	8.01774
1070.307	-36.08735
1070.662	30.06933
1071.016	-24.05285
1071.371	-24.05314
1071.725	-44.10136
1072.079	-43.10097
1072.434	7.01649
1072.788	-82.18859
1073.142	-9.02147
1073.496	-53.12221
1073.85	14.03109
1074.203	6.01406
1074.557	29.07563
1074.911	-39.08972
1075.265	-22.04942
1075.618	11.02593
1075.971	-20.046
1076.325	17.04212
1076.678	-39.08666
1077.031	-107.23272
1077.385	-44.09344
1077.738	-19.04127
1078.091	9.01987
1078.444	-20.04427
1078.796	-24.05762
1079.149	-37.08989
1079.502	-20.04615
1079.855	6.01349
1080.207	-33.07876
1080.56	-2.00506
1080.912	-26.0613
1081.264	-36.08472
1081.617	-26.06183
1081.969	-62.15437
1082.321	-9.02118
1082.673	-11.02467
1083.025	-53.12168
1083.377	242.52061
1083.728	4.00892
1084.08	-41.09909
1084.432	-53.12411
1084.783	-63.14086
1085.135	-25.06128
1085.486	-11.02446
1085.838	-19.04561
1086.189	-23.05472
1086.54	-14.03217
1086.891	13.03246
1087.242	47.11174
1087.593	-26.0604
1087.944	-29.0642
1088.295	-40.08787
1088.646	8.0191
1088.996	-41.09688
1089.347	-54.12851
1089.698	-3.00693
1090.048	-36.09071
1090.398	-3.00665
1090.749	-74.17156
1091.099	-8.0198
1091.449	13.03142
1091.799	-38.09272
1092.149	-51.12344
1092.499	-48.11427
1092.849	-29.07198
1093.199	-29.07003
1093.548	-13.03062
1093.898	-44.10696
1094.248	-57.14195
1094.597	-39.09867
1094.947	-11.02868
1095.296	-28.06768
1095.645	-26.06563
1095.994	-29.06762
1096.343	-29.07138
1096.692	7.01818
1097.041	-12.03227
1097.39	-24.05817
1097.739	-10.02526
1098.088	-24.06233
1098.437	5.01297
1098.785	-29.07581
1099.134	-31.07905
1099.482	-12.03239
1099.83	-29.07449
1100.179	58.14859
1100.527	-72.18607
1100.875	-12.03119
1101.223	1.0026
1101.571	-57.15451
1101.919	-34.08902
1102.267	5.01388
1102.615	-9.02895
1102.962	-15.04821
1103.31	-6.01929
1103.658	-15.04818
