Data from N1 R1 sample 5_Subt2__3__11-27-26-874.txt Node

Date: Wed Sep 17 11:27:26 PDT 2025
User: uwsun
Spectrometer: HDX01956
Trigger mode: 0
Integration Time (sec): 5.000000E-1
Scans to average: 1
Nonlinearity correction enabled: true
Boxcar width: 0
Storing dark spectrum: false
XAxis mode: Wavelengths
Number of Pixels in Spectrum: 2068
>>>>>Begin Spectral Data<<<<<
194.03	-14.04073
194.578	3.00975
195.127	1.00321
195.676	-2.00644
196.225	-6.01604
196.773	-13.0364
197.321	-18.05054
197.87	-20.05258
198.418	4.01055
198.966	16.04303
199.513	6.01562
200.061	-20.05228
200.609	9.02425
201.156	-39.08875
201.704	-6.0155
202.251	-1.00272
202.798	-8.02126
203.345	3.00763
203.892	-9.02337
204.438	-32.07849
204.985	-17.04167
205.532	-29.07841
206.078	-23.0579
206.624	41.10491
207.17	35.08398
207.716	-10.02526
208.262	15.03072
208.808	3.00774
209.354	27.06831
209.899	-11.02844
210.445	-4.01028
210.99	6.01504
211.535	-3.00729
212.08	-24.05762
212.625	2.00512
213.17	18.0469
213.715	8.01883
214.259	-26.06282
214.804	-19.04795
215.348	2.00476
215.892	43.1065
216.436	-26.06135
216.98	-19.04313
217.524	-1.00246
218.068	17.04387
218.612	34.08814
219.155	-8.01947
219.698	-22.05396
220.242	-28.07108
220.785	48.1148
221.328	-34.0865
221.871	51.13183
222.414	-15.03803
222.956	-50.12354
223.499	-33.07597
224.041	-18.04228
224.583	-58.12708
225.126	-30.06792
225.668	-7.01741
226.21	0
226.751	13.02965
227.293	11.02542
227.835	-6.01505
228.376	-32.07492
228.918	-6.01525
229.459	18.04571
230	29.07088
230.541	-5.01178
231.082	17.04218
231.622	-34.0792
232.163	-58.14436
232.704	5.01277
233.244	-7.01775
233.784	4.00988
234.324	43.09844
234.864	-49.11439
235.404	-16.03859
235.944	-49.11896
236.484	43.10868
237.023	9.02164
237.563	10.02375
238.102	9.02172
238.641	-17.04367
239.18	-4.00961
239.719	0
240.258	20.04582
240.797	-30.07366
241.335	4.00992
241.874	46.09141
242.412	24.05937
242.95	-13.03221
243.488	-64.1489
244.026	-4.00954
244.564	-8.01696
245.102	29.06701
245.64	-19.04647
246.177	-48.11022
246.715	4.00981
247.252	-28.06535
247.789	11.02097
248.326	12.02951
248.863	23.0517
249.4	-4.00929
249.936	81.17159
250.473	21.05064
251.009	-30.07071
251.546	33.07515
252.082	-38.08477
252.618	-21.04837
253.154	5.01229
253.69	-33.07631
254.226	-5.01226
254.761	-30.06941
255.297	-35.07894
255.832	21.0509
256.367	-38.09199
256.903	51.11521
257.438	31.07387
257.972	5.0114
258.507	-33.07797
259.042	-13.0291
259.576	30.06781
260.111	-35.08279
260.645	20.04415
261.179	-17.04091
261.713	-3.0069
262.247	-16.0375
262.781	14.03026
263.315	-31.0772
263.849	-17.04359
264.382	-17.04011
264.915	-6.01456
265.449	-20.05007
265.982	-70.16517
266.515	45.1119
267.048	-36.07905
267.58	-2.00443
268.113	-15.03341
268.646	-31.07787
269.178	-27.06219
269.71	13.02946
270.243	31.07322
270.775	62.16073
271.307	-20.04876
271.838	6.01447
272.37	-35.08814
272.902	-32.07472
273.433	25.05666
273.965	-33.08242
274.496	-27.06863
275.027	21.05323
275.558	-29.0728
276.089	-30.07702
276.62	-16.04125
277.15	-23.05798
277.681	-40.08909
278.211	11.02734
278.741	-8.01828
279.272	21.0491
279.802	-29.07402
280.332	-8.01938
280.861	-16.03923
281.391	-1.00233
281.921	-16.03921
282.45	-39.09941
282.98	-2.00532
283.509	28.06507
284.038	-8.01882
284.567	16.03809
285.096	37.09127
285.625	-85.19944
286.153	-1.00245
286.682	23.05401
287.21	-26.06363
287.739	-46.11228
288.267	2.00499
288.795	25.06629
289.323	-20.04836
289.851	4.00965
290.378	-40.09226
290.906	2.00501
291.433	11.02798
291.961	13.03044
292.488	7.01772
293.015	33.07945
293.542	54.14067
294.069	50.12576
294.596	-10.02503
295.122	17.04169
295.649	-42.09528
296.175	11.02704
296.702	38.09458
297.228	-16.03955
297.754	4.00924
298.28	35.08225
298.806	-20.04958
299.332	-1.00231
299.857	34.07895
300.383	0
300.908	0
301.433	6.01506
301.958	-14.03306
302.483	-3.00761
303.008	41.10373
303.533	33.08645
304.058	5.01195
304.582	-34.08302
305.107	-2.00532
305.631	25.05799
306.155	27.06431
306.679	-5.0121
307.203	-19.04552
307.727	-23.05621
308.251	18.04537
308.775	82.20186
309.298	14.03457
309.822	20.05124
310.345	60.14574
310.868	9.02226
311.391	42.10526
311.914	8.02051
312.437	10.0235
312.96	-13.03157
313.482	-20.04847
314.005	-1.00256
314.527	-17.04529
315.049	6.01554
315.571	32.07386
316.093	21.05315
316.615	-39.09677
317.137	-15.03388
317.659	35.0865
318.18	-15.03681
318.702	-5.01208
319.223	-37.07879
319.744	7.01624
320.265	31.0772
320.786	21.05368
321.307	2.00507
321.828	5.01163
322.348	-8.01942
322.869	-3.00736
323.389	257.49486
323.909	-18.04256
324.43	12.02942
324.95	40.09376
325.47	47.11878
325.989	8.01953
326.509	45.10335
327.029	10.02356
327.548	2.00468
328.067	41.10169
328.587	16.04112
329.106	-29.06788
329.625	42.11116
330.144	40.09534
330.662	30.07232
331.181	67.16113
331.7	-7.01681
332.218	-4.00901
332.736	31.07449
333.255	0
333.773	17.04127
334.291	47.11993
334.808	-9.02105
335.326	-5.01164
335.844	3.00729
336.361	29.07636
336.879	56.13485
337.396	35.08738
337.913	34.08079
338.43	-14.03282
338.947	-14.03463
339.464	-22.04959
339.981	-8.01962
340.497	5.01265
341.014	27.06753
341.53	-10.02343
342.046	85.21559
342.562	-2.00513
343.078	9.02187
343.594	-3.00737
344.11	85.20712
344.626	51.13137
345.141	37.08715
345.657	57.13238
346.172	11.02736
346.687	11.0261
347.202	50.11743
347.717	32.07843
348.232	60.15237
348.747	63.14909
349.261	4.00914
349.776	45.10982
350.29	75.1911
350.805	37.09365
351.319	30.07183
351.833	65.1534
352.347	43.10431
352.861	69.16562
353.374	47.10989
353.888	56.14004
354.401	33.07746
354.915	-9.02119
355.428	23.05887
355.941	14.0337
356.454	48.10996
356.967	13.03132
357.48	3.00706
357.993	42.10575
358.505	1.00251
359.018	90.224
359.53	59.14725
360.042	40.09248
360.554	87.21658
361.066	11.02757
361.578	49.11173
362.09	27.06614
362.602	62.1422
363.113	103.24648
363.625	55.12844
364.136	59.13339
364.647	24.05869
365.158	70.16671
365.669	40.09807
366.18	57.13744
366.691	47.10626
367.201	69.16883
367.712	111.2584
368.222	78.18376
368.733	54.12116
369.243	86.19685
369.753	68.16052
370.263	128.31219
370.773	19.04756
371.282	107.25927
371.792	70.16613
372.301	5.01246
372.811	101.26727
373.32	103.22802
373.829	19.04619
374.338	66.1507
374.847	61.14441
375.356	53.12804
375.865	120.26238
376.373	84.19528
376.882	76.19532
377.39	60.14787
377.898	48.12055
378.407	77.17897
378.915	127.28243
379.423	68.1617
379.93	160.37371
380.438	83.2027
380.946	147.34436
381.453	110.26709
381.96	174.41549
382.468	127.30158
382.975	175.42785
383.482	109.24813
383.989	210.53345
384.495	217.50256
385.002	188.39626
385.509	231.54451
386.015	257.52036
386.521	226.50915
387.028	262.58445
387.534	228.48331
388.04	283.66447
388.546	231.5041
389.051	269.5803
389.557	298.66969
390.063	261.57656
390.568	335.77363
391.073	294.63382
391.578	337.78907
392.084	427.91518
392.589	430.87522
393.093	511.12764
393.598	514.08807
394.103	513.1245
394.607	603.3132
395.112	601.33815
395.616	701.51073
396.12	742.49001
396.624	784.61497
397.128	875.81187
397.632	951.89316
398.136	1011.94108
398.639	1133.16597
399.143	1306.54838
399.646	1526.67432
400.15	1619.70722
400.653	1810.80825
401.156	1993.89468
401.659	2444.46336
402.162	3112.30201
402.664	4732.47714
403.167	9414.33504
403.67	29213.78646
404.172	59824.47775
404.674	63858.43483
405.176	63738.15102
405.678	63977.72923
406.18	64011.81569
406.682	63863.44694
407.184	36935.33495
407.686	15319.93779
408.187	9192.94357
408.688	6251.03947
409.19	4838.56191
409.691	4080.38233
410.192	3457.49205
410.693	3094.95923
411.194	2934.20956
411.694	2719.44054
412.195	2503.64167
412.696	2410.27228
413.196	2414.76244
413.696	2314.31208
414.196	2348.95442
414.696	2236.42669
415.196	1957.99181
415.696	1535.51447
416.196	1242.30266
416.695	1058.06064
417.195	976.97938
417.694	977.69805
418.194	865.56481
418.693	883.72753
419.192	897.80621
419.691	752.54066
420.19	796.672
420.688	733.59257
421.187	635.16319
421.685	633.3255
422.184	534.15806
422.682	486.98109
423.18	395.85829
423.678	380.82272
424.176	345.75094
424.674	368.77665
425.172	291.65839
425.669	313.73461
426.167	260.58455
426.664	289.63173
427.161	206.4641
427.659	231.54578
428.156	216.45127
428.652	173.4294
429.149	192.45795
429.646	143.31749
430.143	147.34948
430.639	133.31364
431.135	149.36889
431.632	154.34951
432.128	110.26398
432.624	198.50083
433.12	134.30474
433.616	139.30398
434.111	107.25409
434.607	75.1805
435.103	75.15895
435.598	105.21971
436.093	101.2354
436.588	133.29811
437.083	88.19818
437.578	103.23864
438.073	58.14598
438.568	96.23606
439.062	94.20214
439.557	47.11092
440.051	13.02975
440.546	34.07826
441.04	38.09213
441.534	38.09633
442.028	75.18105
442.522	30.07276
443.015	-46.10177
443.509	34.08339
444.002	49.12051
444.496	-15.03332
444.989	50.12191
445.482	-4.01004
445.975	60.13949
446.468	48.10504
446.961	79.17226
447.454	-3.00685
447.947	26.06268
448.439	59.14506
448.931	34.07885
449.424	74.18792
449.916	43.10545
450.408	27.06243
450.9	-4.00985
451.392	5.01282
451.884	24.05575
452.375	34.08459
452.867	33.07488
453.358	17.03942
453.849	31.06711
454.341	40.09104
454.832	-14.03088
455.323	39.09751
455.814	26.06004
456.304	-2.0047
456.795	37.08512
457.285	-12.02691
457.776	13.02998
458.266	2.0048
458.756	-26.06247
459.247	22.05302
459.737	75.18098
460.226	71.16189
460.716	41.09838
461.206	-5.01211
461.695	-22.0551
462.185	-11.02647
462.674	15.03464
463.163	-6.01367
463.653	18.03882
464.142	22.05364
464.63	-2.00489
465.119	28.06553
465.608	77.17982
466.096	3.0066
466.585	-12.02781
467.073	-6.01432
467.561	-25.06083
468.05	-16.03737
468.538	16.0393
469.026	-19.04566
469.513	-42.09078
470.001	11.02551
470.489	2.0048
470.976	23.05409
471.463	43.10701
471.951	20.04987
472.438	6.01421
472.925	5.01188
473.412	-25.06142
473.899	7.01621
474.385	-5.01235
474.872	-2.00471
475.359	-4.00992
475.845	-15.03164
476.331	-24.05205
476.817	45.10945
477.303	16.03745
477.789	-16.03854
478.275	-42.10575
478.761	-11.02639
479.247	6.01352
479.732	-30.07578
480.218	47.12283
480.703	-12.02983
481.188	46.0999
481.673	31.07157
482.158	5.01094
482.643	-14.03607
483.128	11.02586
483.612	58.13797
484.097	20.04842
484.581	3.00701
485.066	41.10047
485.55	-13.02919
486.034	-27.05962
486.518	36.08639
487.002	-17.04177
487.486	7.0171
487.969	-6.01471
488.453	-22.05531
488.936	-32.0733
489.42	4.00895
489.903	-27.06795
490.386	-84.17931
490.869	55.12064
491.352	-19.04623
491.835	-14.02913
492.318	13.02945
492.8	5.01049
493.283	52.13233
493.765	1.00247
494.247	34.07935
494.73	3.00671
495.212	-1.00239
495.694	43.10148
496.175	58.13908
496.657	97.22741
497.139	-26.04577
497.62	45.10826
498.102	83.20504
498.583	24.05908
499.064	78.17307
499.545	87.19685
500.026	117.26138
500.507	80.18304
500.988	174.42438
501.469	96.23667
501.949	187.44918
502.43	182.42743
502.91	182.37619
503.39	200.48104
503.87	230.52473
504.35	272.60801
504.83	247.51821
505.31	304.69633
505.79	309.69284
506.269	316.68622
506.749	454.95266
507.228	476.02506
507.707	538.07882
508.187	607.29227
508.666	658.44311
509.145	681.3922
509.623	722.46446
510.102	911.83863
510.581	949.89354
511.059	1001.07594
511.538	1063.23788
512.016	1211.25111
512.494	1279.34517
512.972	1358.43169
513.45	1502.50274
513.928	1646.79505
514.406	1785.95831
514.884	1971.34665
515.361	2112.08077
515.839	2284.98018
516.316	2448.31517
516.793	2559.56888
517.27	2727.32087
517.747	2895.76088
518.224	3015.07683
518.701	3174.81139
519.178	3323.58907
519.654	3328.2057
520.131	3416.49998
520.607	3411.39935
521.083	3381.90973
521.56	3393.16049
522.036	3442.65189
522.512	3367.48717
522.987	3330.32494
523.463	3176.23787
523.939	3258.5413
524.414	3022.03776
524.89	2936.2956
525.365	2817.97407
525.84	2675.31452
526.315	2574.33651
526.79	2475.93221
527.265	2415.04091
527.74	2227.21252
528.215	2105.95762
528.689	1933.60281
529.164	1944.52269
529.638	1773.08899
530.112	1637.66088
530.587	1634.33011
531.061	1529.66226
531.534	1462.57353
532.008	1380.51151
532.482	1307.25008
532.956	1210.43726
533.429	1227.33714
533.903	1086.86478
534.376	1069.86431
534.849	998.85871
535.322	976.88591
535.795	907.83055
536.268	900.82595
536.741	839.68544
537.213	782.53364
537.686	774.63503
538.158	765.48931
538.631	708.4994
539.103	653.29447
539.575	612.10321
540.047	593.14521
540.519	603.28652
540.991	585.28149
541.463	480.05845
541.934	469.97089
542.406	493.08377
542.877	445.92533
543.348	477.05775
543.82	418.94662
544.291	411.89305
544.762	357.80111
545.233	384.91577
545.703	358.74825
546.174	365.79547
546.645	382.86792
547.115	287.66307
547.585	327.71237
548.056	355.82567
548.526	276.62865
548.996	285.65216
549.466	261.61043
549.935	252.58071
550.405	264.55669
550.875	264.60302
551.344	196.45546
551.814	256.56469
552.283	237.49964
552.752	250.56552
553.221	249.53025
553.69	254.55347
554.159	215.52074
554.628	220.48447
555.096	194.48213
555.565	135.29486
556.033	246.56711
556.502	149.35396
556.97	181.39416
557.438	179.41127
557.906	194.44671
558.374	218.49113
558.842	182.4266
559.31	214.46552
559.777	222.52706
560.245	168.37787
560.712	191.42687
561.18	173.3753
561.647	166.36111
562.114	228.5063
562.581	222.5303
563.048	213.47407
563.514	264.63856
563.981	225.49953
564.448	221.48453
564.914	217.48918
565.381	262.57598
565.847	276.61644
566.313	255.56966
566.779	273.58918
567.245	222.4983
567.711	290.66427
568.176	282.60561
568.642	298.71807
569.108	316.74006
569.573	284.6288
570.038	287.57232
570.504	375.79507
570.969	307.72587
571.434	332.69791
571.899	381.84793
572.363	385.82731
572.828	420.89804
573.293	361.77908
573.757	418.90343
574.222	444.91935
574.686	369.79839
575.15	411.92453
575.614	476.0334
576.078	458.99282
576.542	421.8918
577.006	471.97808
577.469	434.99322
577.933	441.93049
578.396	416.91947
578.86	403.88646
579.323	471.04572
579.786	440.8813
580.249	481.04095
580.712	398.90646
581.175	413.95143
581.637	396.84417
582.1	388.78974
582.563	401.79222
583.025	389.88865
583.487	372.71648
583.95	320.65015
584.412	379.74419
584.874	335.77548
585.336	317.71574
585.797	319.65861
586.259	304.67841
586.721	250.56575
587.182	293.64535
587.643	256.56019
588.105	274.62132
588.566	242.48674
589.027	308.7202
589.488	281.61814
589.949	294.68315
590.41	258.49093
590.87	254.56051
591.331	285.59608
591.791	276.61339
592.252	238.5364
592.712	217.50495
593.172	210.46478
593.632	245.52604
594.092	180.39256
594.552	179.37969
595.011	143.3229
595.471	226.49685
595.931	178.39363
596.39	209.48825
596.849	113.26098
597.308	116.24515
597.768	163.41282
598.227	113.26906
598.685	166.37123
599.144	158.36614
599.603	104.24149
600.062	90.18937
600.52	134.29918
600.978	99.23247
601.437	130.29216
601.895	107.22806
602.353	110.2399
602.811	163.36114
603.269	129.30303
603.727	87.20795
604.184	94.21334
604.642	76.18626
605.099	163.37376
605.557	76.18426
606.014	102.21858
606.471	95.23675
606.928	115.25362
607.385	86.21436
607.842	95.21679
608.299	82.19108
608.755	79.1907
609.212	74.16508
609.668	102.22877
610.125	92.22036
610.581	86.20072
611.037	70.1568
611.493	20.04706
611.949	82.19895
612.405	95.19288
612.861	49.11299
613.316	52.12474
613.772	65.14887
614.227	88.21038
614.683	20.04286
615.138	72.16844
615.593	77.17812
616.048	25.05763
616.503	17.04155
616.958	59.14752
617.412	39.09293
617.867	29.06538
618.321	36.07485
618.776	44.0973
619.23	11.02599
619.684	38.08516
620.138	52.11907
620.592	6.01467
621.046	86.20198
621.5	19.04599
621.954	67.14783
622.407	67.14783
622.861	43.10447
623.314	37.08403
623.768	65.15311
624.221	17.03382
624.674	45.1041
625.127	-16.03768
625.58	37.08331
626.033	37.08116
626.485	36.08626
626.938	52.1237
627.39	60.13998
627.843	48.11066
628.295	45.10381
628.747	56.13327
629.199	23.05263
629.651	40.09185
630.103	9.0208
630.555	-8.01708
631.006	18.04206
631.458	54.12678
631.909	14.03155
632.361	-24.0561
632.812	7.01632
633.263	59.12777
633.714	-10.02144
634.165	-27.06552
634.616	12.02851
635.067	9.01997
635.518	19.04521
635.968	42.08264
636.419	38.08316
636.869	26.06171
637.319	46.10664
637.769	10.02264
638.219	41.09665
638.669	-11.02638
639.119	-10.02413
639.569	21.0505
640.019	75.17205
640.468	29.06519
640.918	13.03095
641.367	8.01803
641.816	29.06463
642.265	19.04451
642.714	22.05062
643.163	57.13133
643.612	63.15363
644.061	67.14268
644.51	30.06894
644.958	49.10811
645.406	19.04555
645.855	16.03897
646.303	25.05792
646.751	34.07879
647.199	51.11535
647.647	-2.00468
648.095	39.08893
648.543	45.09132
648.99	43.10317
649.438	30.06947
649.885	28.06987
650.333	-5.00984
650.78	32.07738
651.227	33.08077
651.674	26.05951
652.121	43.10533
652.568	55.13422
653.015	19.04709
653.461	39.09265
653.908	-5.01158
654.354	1.0024
654.801	3.00708
655.247	-5.01093
655.693	43.11145
656.139	-2.0048
656.585	43.10247
657.031	16.03775
657.477	50.10909
657.922	-39.08997
658.368	9.02219
658.813	-11.02523
659.259	43.10404
659.704	40.09475
660.149	28.06463
660.594	27.06414
661.039	28.06391
661.484	41.09691
661.929	40.09332
662.373	-25.0633
662.818	-6.01492
663.262	29.07014
663.707	29.07371
664.151	30.07309
664.595	17.04121
665.039	35.08669
665.483	52.13159
665.927	29.06804
666.371	20.04717
666.814	3.00716
667.258	50.12004
667.701	30.06404
668.145	37.09184
668.588	51.12576
669.031	19.04477
669.474	43.10282
669.917	49.10698
670.36	69.17077
670.803	71.1701
671.245	-26.05391
671.688	30.0729
672.13	15.03405
672.573	33.0831
673.015	32.07706
673.457	8.0175
673.899	87.20787
674.341	-3.00726
674.783	-21.05075
675.225	56.13694
675.666	50.12177
676.108	-22.04808
676.549	-22.05169
676.991	-1.00221
677.432	-10.02005
677.873	-32.07386
678.314	39.09247
678.755	33.08116
679.196	-5.01149
679.637	-34.08215
680.078	93.21411
680.518	40.09145
680.959	9.02145
681.399	40.09851
681.839	9.02187
682.28	25.06201
682.72	8.01833
683.16	30.07461
683.6	61.13757
684.039	-10.0208
684.479	-24.05967
684.919	12.02827
685.358	-6.01497
685.798	-17.04441
686.237	-4.00957
686.676	-20.04556
687.115	28.06579
687.554	61.14463
687.993	4.00887
688.432	37.08403
688.871	18.04125
689.309	65.1543
689.748	26.05398
690.186	-18.04231
690.625	24.05623
691.063	18.04285
691.501	26.06405
691.939	35.08767
692.377	-19.04626
692.815	52.12612
693.253	30.07104
693.69	-20.04406
694.128	19.046
694.565	7.01657
695.003	36.09142
695.44	11.02603
695.877	26.06094
696.314	16.03362
696.751	9.02037
697.188	28.06463
697.625	-20.04495
698.061	6.01435
698.498	-2.00473
698.934	-4.00956
699.371	-18.04252
699.807	53.12377
700.243	37.08861
700.679	5.01113
701.115	17.0395
701.551	-40.09358
701.987	-10.02187
702.422	21.04991
702.858	22.05223
703.294	73.16497
703.729	19.04597
704.164	23.05458
704.599	31.0688
705.035	16.03577
705.47	23.0555
705.904	18.04148
706.339	20.04567
706.774	-17.03989
707.209	57.13107
707.643	36.08537
708.078	-2.00485
708.512	-14.03511
708.946	-20.04743
709.38	46.10812
709.814	29.06511
710.248	64.15435
710.682	38.09047
711.116	29.07014
711.549	-45.11535
711.983	18.04133
712.416	35.08235
712.85	11.02708
713.283	47.10963
713.716	2.00493
714.149	-36.08366
714.582	25.05576
715.015	-18.0441
715.448	31.07737
715.881	-24.05161
716.313	23.05329
716.746	9.0212
717.178	41.09748
717.61	47.11806
718.043	28.06845
718.475	38.09119
718.907	50.12304
719.339	18.04054
719.77	6.01431
720.202	-21.05251
720.634	38.09227
721.065	-15.03528
721.497	44.10632
721.928	-43.10537
722.359	-28.06827
722.79	-12.02867
723.221	23.05651
723.652	23.05784
724.083	-12.02691
724.514	29.06591
724.945	-13.03035
725.375	35.0809
725.806	-12.02944
726.236	18.04555
726.666	19.04435
727.096	-2.00486
727.526	74.18719
727.956	-20.04569
728.386	28.06781
728.816	36.09107
729.246	47.1144
729.675	-82.20164
730.105	-25.06096
730.534	38.08726
730.964	-40.0997
731.393	-4.00973
731.822	30.07573
732.251	-3.00756
732.68	19.04345
733.109	24.05854
733.537	42.10133
733.966	14.03466
734.395	13.02977
734.823	-54.11972
735.251	-10.02388
735.68	-38.09351
736.108	-39.0973
736.536	-29.0677
736.964	24.05489
737.392	25.06165
737.82	15.03537
738.247	4.00943
738.675	18.04173
739.102	-17.04217
739.53	14.03568
739.957	5.01284
740.384	-7.01671
740.811	-32.07927
741.238	-21.05134
741.665	48.11106
742.092	-59.13578
742.519	-6.0148
742.945	24.05768
743.372	40.09793
743.798	-32.08161
744.225	-30.07068
744.651	-29.07222
745.077	12.02957
745.503	-56.13521
745.929	85.20107
746.355	-5.01204
746.781	-57.14004
747.207	-13.03073
747.632	24.05893
748.058	57.14112
748.483	12.02726
748.908	-9.02227
749.334	10.02441
749.759	24.0565
750.184	24.05716
750.609	16.03867
751.033	-32.07427
751.458	4.00881
751.883	17.04124
752.307	-5.01167
752.732	-7.01779
753.156	-11.02685
753.58	21.04873
754.005	-19.0473
754.429	22.05153
754.853	54.132
755.277	9.02115
755.7	13.03187
756.124	-7.01726
756.548	9.02099
756.971	2.00483
757.394	-32.08135
757.818	28.07121
758.241	13.03266
758.664	19.04733
759.087	6.0134
759.51	-37.0908
759.933	1.0024
760.356	50.12679
760.778	5.01215
761.201	-6.01433
761.623	-33.07797
762.046	4.00921
762.468	12.02829
762.89	-4.00964
763.312	27.0651
763.734	-28.06717
764.156	9.02195
764.578	24.05367
765	11.02644
765.421	-27.0686
765.843	0
766.264	2.00467
766.686	-25.06146
767.107	7.01674
767.528	12.03048
767.949	-22.05535
768.37	19.04647
768.791	-7.01657
769.212	-32.08031
769.632	-32.07466
770.053	-38.09868
770.473	-40.09577
770.894	-50.12227
771.314	16.03703
771.734	-2.0046
772.154	-11.02773
772.575	-13.02957
772.994	-43.09674
773.414	-24.05641
773.834	-2.00491
774.254	-47.11401
774.673	10.02414
775.093	22.05392
775.512	2.00488
775.931	-10.02509
776.351	-8.01974
776.77	-25.06094
777.189	-2.00469
777.607	-31.07852
778.026	15.03676
778.445	0
778.864	-8.01998
779.282	-13.03054
779.701	-56.13979
780.119	-6.01503
780.537	-27.06648
780.955	-6.01493
781.373	-62.15246
781.791	7.01566
782.209	-53.11855
782.627	5.01298
783.045	-4.00893
783.462	36.08996
783.88	-31.07963
784.297	-17.04226
784.715	-21.05362
785.132	-42.1001
785.549	25.06115
785.966	17.04197
786.383	22.05336
786.8	21.04765
787.217	-7.01651
787.633	11.02726
788.05	17.03859
788.466	0
788.883	-13.03303
789.299	-27.06323
789.715	20.04781
790.131	2.00489
790.547	-2.0049
790.963	14.03397
791.379	-19.04742
791.795	-26.05774
792.21	-12.02737
792.626	-52.12108
793.041	-20.04851
793.457	-9.0217
793.872	-55.12688
794.287	35.08286
794.702	-40.09567
795.117	-10.02457
795.532	20.04949
795.947	-41.0959
796.362	-22.05048
796.776	33.07348
797.191	-34.08234
797.605	-22.05157
798.02	-33.07906
798.434	5.01087
798.848	59.14307
799.262	-20.04885
799.676	51.12064
800.09	-2.00482
800.504	-22.05219
800.918	-82.18686
801.331	-53.13419
801.745	-44.09901
802.158	-67.16448
802.572	29.06842
802.985	-1.00234
803.398	-10.02328
803.811	-31.07675
804.224	-52.12607
804.637	-14.03287
805.05	-25.05636
805.462	-32.07685
805.875	2.0051
806.288	-24.05733
806.7	-70.17245
807.112	-35.07897
807.525	-77.18524
807.937	-26.06339
808.349	-29.07088
808.761	37.08878
809.173	-5.01191
809.584	-2.0048
809.996	-63.15237
810.408	-1.00256
810.819	-25.05781
811.231	19.04977
811.642	22.0534
812.053	21.05
812.464	-39.09086
812.875	-3.00755
813.286	22.05579
813.697	-40.08938
814.108	-5.01187
814.519	45.09775
814.929	8.01985
815.34	-37.08722
815.75	15.03754
816.16	-46.11136
816.571	-3.0076
816.981	-63.14487
817.391	-48.11291
817.801	-29.07109
818.211	14.03234
818.62	-18.04269
819.03	-12.02867
819.44	-52.13154
819.849	-27.06599
820.259	-22.05458
820.668	-5.01207
821.077	-28.06898
821.486	-7.01622
821.895	8.01894
822.304	-46.11991
822.713	-44.10172
823.122	-25.06101
823.531	-64.14726
823.939	-31.07447
824.348	-10.02357
824.756	-38.09293
825.164	-45.11076
825.573	-57.14117
825.981	-15.03613
826.389	5.01221
826.797	3.00747
827.205	-14.03162
827.612	-21.05039
828.02	-46.10546
828.428	-34.0849
828.835	-16.04161
829.243	-53.12319
829.65	29.07056
830.057	-1.00235
830.464	-23.05558
830.871	0
831.278	-42.09972
831.685	20.0429
832.092	-45.10703
832.499	32.06783
832.905	5.01224
833.312	-56.12286
833.718	10.02443
834.124	40.08831
834.531	-27.06594
834.937	3.00754
835.343	-14.03264
835.749	5.01115
836.155	-17.04361
836.561	-47.11376
836.966	-41.09789
837.372	-14.03463
837.777	-19.04647
838.183	-10.02146
838.588	38.09192
838.993	-22.05237
839.399	-32.07703
839.804	-75.18098
840.209	6.01507
840.613	0
841.018	-32.07895
841.423	-10.02509
841.828	3.00743
842.232	-49.11699
842.637	-6.01394
843.041	6.01507
843.445	-1.00242
843.849	-11.02669
844.253	4.00919
844.657	0
845.061	-2.00449
845.465	-13.03063
845.869	-20.04528
846.272	-25.05987
846.676	-51.11877
847.079	4.01
847.483	2.00484
847.886	13.03035
848.289	1.00264
848.692	-33.08128
849.095	-46.10778
849.498	-17.04141
849.901	-29.06425
850.304	13.03005
850.707	-8.01982
851.109	0
851.512	-2.0048
851.914	-16.03972
852.316	-6.01498
852.718	-2.00518
853.121	-4.00955
853.523	-59.13437
853.925	-8.02062
854.326	-44.1088
854.728	-41.10395
855.13	-20.05104
855.531	-50.11757
855.933	-40.09295
856.334	5.01223
856.736	46.09994
857.137	32.07245
857.538	-28.06946
857.939	-1.00244
858.34	-37.08722
858.741	13.03294
859.142	-57.13364
859.542	26.06717
859.943	-10.0242
860.343	-57.13988
860.744	-2.00474
861.144	39.09269
861.544	-31.07396
861.945	-19.04725
862.345	1.00236
862.745	16.03888
863.145	-47.10777
863.544	-15.03714
863.944	-3.00688
864.344	-31.07424
864.743	12.02882
865.143	42.10533
865.542	-63.14144
865.941	6.01449
866.34	-17.03909
866.74	-34.08975
867.139	8.01885
867.537	-54.13367
867.936	3.00704
868.335	-16.03963
868.734	16.03979
869.132	-43.09634
869.531	0
869.929	16.03541
870.327	-23.05375
870.726	-34.082
871.124	-12.027
871.522	-58.14478
871.92	1.0024
872.318	-29.06868
872.715	-29.069
873.113	-8.01884
873.511	-39.09479
873.908	-19.04769
874.306	7.01706
874.703	-23.05558
875.1	-34.08385
875.497	-46.10749
875.894	-4.00972
876.291	-36.08662
876.688	-7.01763
877.085	-6.01387
877.482	-37.0906
877.878	47.11045
878.275	-25.06228
878.671	-57.12001
879.068	12.02802
879.464	0
879.86	-17.03911
880.256	-9.02123
880.652	-30.07461
881.048	-65.15655
881.444	-28.06393
881.84	-21.05203
882.236	-7.01711
882.631	-2.0048
883.027	-4.00936
883.422	-48.11964
883.817	-51.12691
884.213	-11.02754
884.608	32.07758
885.003	-51.11938
885.398	-14.0342
885.793	-11.02676
886.188	-33.08005
886.582	-7.01731
886.977	-11.02516
887.371	-31.07608
887.766	-47.11538
888.16	-59.14199
888.554	-15.03583
888.949	-20.04894
889.343	14.03289
889.737	-29.07656
890.131	-47.11564
890.525	8.02003
890.918	-48.11834
891.312	-2.00459
891.706	-12.03066
892.099	38.09303
892.492	-16.03316
892.886	-10.02372
893.279	-9.02227
893.672	-25.06266
894.065	-19.04645
894.458	-42.10232
894.851	7.01649
895.244	-7.0174
895.637	35.08151
896.029	39.09251
896.422	-56.13239
896.814	-49.11896
897.206	-18.04234
897.599	57.13515
897.991	2.00472
898.383	11.02519
898.775	60.13102
899.167	-25.05769
899.559	19.04613
899.951	-28.06363
900.342	-24.05897
900.734	26.06401
901.125	-9.02286
901.517	-24.05757
901.908	-41.09447
902.299	-20.04781
902.69	39.08936
903.082	-27.06375
903.473	9.02122
903.863	-30.07437
904.254	34.07688
904.645	-30.07183
905.036	28.06686
905.426	-3.00653
905.817	-1.00236
906.207	-63.1455
906.597	-20.046
906.987	-18.04513
907.378	-1.00247
907.768	-25.06493
908.158	-44.10467
908.547	2.0051
908.937	-30.07426
909.327	-10.02353
909.717	-30.07312
910.106	-38.08865
910.495	-19.04564
910.885	6.0148
911.274	-8.01941
911.663	-16.03918
912.052	-31.0737
912.441	-41.10299
912.83	-28.062
913.219	-29.07395
913.608	-23.05514
913.997	-13.03208
914.385	-16.03715
914.774	-7.01651
915.162	-27.06347
915.55	-24.05606
915.939	11.02716
916.327	-29.07003
916.715	7.01762
917.103	-22.05175
917.491	7.01671
917.878	-23.05493
918.266	10.02507
918.654	13.0325
919.041	-5.0129
919.429	-27.06201
919.816	-29.07169
920.203	11.02609
920.591	-27.06547
920.978	-5.01188
921.365	-31.07999
921.752	-56.12854
922.139	42.08712
922.525	22.05123
922.912	-32.0758
923.299	-38.09251
923.685	-37.09365
924.072	-45.09854
924.458	-28.06804
924.844	-16.03857
925.231	-55.12394
925.617	-11.02758
926.003	-4.00991
926.389	-25.06151
926.774	-32.07892
927.16	-33.07984
927.546	30.07537
927.931	7.01681
928.317	9.01983
928.702	8.01819
929.088	9.02108
929.473	-16.04004
929.858	-32.077
930.243	-15.0354
930.628	-4.00956
931.013	-8.01931
931.398	-2.00436
931.783	-35.08921
932.167	26.06206
932.552	5.01211
932.937	2.00478
933.321	18.04413
933.705	-45.10974
934.09	-55.13332
934.474	3.00682
934.858	-16.0406
935.242	-56.12648
935.626	-20.05025
936.009	16.04182
936.393	10.02506
936.777	-19.0478
937.16	4.01021
937.544	-34.07663
937.927	-8.01988
938.311	43.10006
938.694	19.04894
939.077	1.00232
939.46	-37.08658
939.843	-75.149
940.226	-40.09988
940.609	23.05149
940.991	-35.08653
941.374	12.02858
941.757	-9.02147
942.139	31.06711
942.522	-19.04329
942.904	13.0302
943.286	-24.05926
943.668	11.02799
944.05	-22.05284
944.432	-29.06948
944.814	-14.03315
945.196	-23.0551
945.578	-23.0542
945.959	-63.14295
946.341	-36.08445
946.722	-3.00677
947.104	-3.00695
947.485	18.04037
947.866	1.00247
948.247	28.06901
948.628	-71.16652
949.009	10.02485
949.39	-19.04571
949.771	-50.11062
950.152	-26.06228
950.532	24.05878
950.913	-2.00466
951.293	-34.09098
951.674	18.04203
952.054	15.03672
952.434	-4.00966
952.814	-47.10782
953.194	-27.06809
953.574	-11.02617
953.954	-35.08003
954.334	16.03898
954.714	-28.06689
955.093	25.05925
955.473	0
955.853	-24.06073
956.232	-15.04015
956.611	-27.06209
956.99	-15.03688
957.37	2.00491
957.749	-66.15167
958.128	6.01477
958.506	-40.1019
958.885	-32.07854
959.264	-31.07517
959.643	-14.03109
960.021	-17.04133
960.4	26.05646
960.778	11.02577
961.156	-22.0535
961.535	-25.05594
961.913	21.04761
962.291	23.05794
962.669	-33.08218
963.047	1.00249
963.424	18.04516
963.802	-10.02395
964.18	-43.10455
964.557	5.01104
964.935	22.05011
965.312	-13.03323
965.69	-25.06037
966.067	-57.13421
966.444	-22.05167
966.821	16.04004
967.198	-36.08402
967.575	-28.06653
967.952	-16.03643
968.329	28.06612
968.705	38.07837
969.082	36.09055
969.458	-11.02601
969.835	-36.08544
970.211	-12.03036
970.587	25.06024
970.963	-21.05203
971.339	25.06359
971.715	10.02424
972.091	-4.00954
972.467	-20.04778
972.843	34.0824
973.219	-25.05769
973.594	-17.04342
973.97	1.00223
974.345	-6.01399
974.721	-13.03004
975.096	37.08688
975.471	33.07482
975.846	-44.10233
976.221	-32.07953
976.596	27.0635
976.971	29.06958
977.346	-40.08982
977.72	-31.07669
978.095	-31.07824
978.469	5.01147
978.844	-18.04374
979.218	14.03296
979.593	-7.01615
979.967	-61.14262
980.341	-6.01343
980.715	-12.0295
981.089	28.06755
981.463	26.05733
981.837	-13.03128
982.21	17.03693
982.584	-27.0638
982.957	-39.09585
983.331	-10.02251
983.704	34.08156
984.078	-32.07674
984.451	12.02834
984.824	-53.12726
985.197	-39.09083
985.57	-36.08662
985.943	-50.11835
986.316	-3.00701
986.688	-2.00466
987.061	-6.01366
987.434	42.10719
987.806	-15.03474
988.179	-11.02502
988.551	-9.02208
988.923	5.01184
989.295	-13.03137
989.667	-31.07333
990.039	29.07038
990.411	-50.11029
990.783	-12.02632
991.155	-43.1014
991.527	-3.007
991.898	-8.01947
992.27	29.06993
992.641	-38.09241
993.012	-29.06441
993.384	-26.05992
993.755	-17.04249
994.126	-10.02355
994.497	-39.09347
994.868	-33.07266
995.239	-47.11084
995.61	-11.02694
995.98	-13.03059
996.351	2.00484
996.722	31.06991
997.092	-38.0882
997.462	3.00686
997.833	4.00906
998.203	-35.08129
998.573	-47.115
998.943	-1.00228
999.313	9.02097
999.683	-3.007
1000.053	-113.25026
1000.423	-10.02336
1000.792	-48.12042
1001.162	-39.09293
1001.531	4.00957
1001.901	-46.11144
1002.27	-42.08915
1002.639	-26.06424
1003.009	-2.00459
1003.378	-31.07756
1003.747	-10.0227
1004.116	-37.08603
1004.485	-8.0185
1004.853	-92.22648
1005.222	-56.13562
1005.591	-2.00457
1005.959	-26.05709
1006.328	-1.00218
1006.696	-35.0818
1007.064	-67.16369
1007.433	-23.05544
1007.801	-7.01633
1008.169	-25.06078
1008.537	28.0592
1008.905	-29.06615
1009.273	-2.00474
1009.64	19.0443
1010.008	-18.0415
1010.375	5.01149
1010.743	-61.13284
1011.11	51.11793
1011.478	-9.02178
1011.845	-30.06806
1012.212	25.05497
1012.579	-16.03822
1012.946	-75.17274
1013.313	5.01136
1013.68	21.04493
1014.047	-69.16101
1014.414	-39.08946
1014.78	-15.03639
1015.147	-51.11877
1015.513	-21.04912
1015.88	18.04413
1016.246	-27.06392
1016.612	1.00218
1016.978	-23.05519
1017.344	7.01677
1017.71	-19.04462
1018.076	-36.08154
1018.442	23.0574
1018.808	11.02687
1019.174	-56.13664
1019.539	-72.15463
1019.905	-6.01377
1020.27	-19.04545
1020.636	-44.10124
1021.001	1.00232
1021.366	-38.08935
1021.731	34.08564
1022.096	-40.09963
1022.461	13.02973
1022.826	-5.01159
1023.191	-44.11316
1023.556	-12.02702
1023.92	-50.1188
1024.285	-29.06799
1024.649	-56.13321
1025.014	-47.11221
1025.378	25.06108
1025.742	-75.18112
1026.107	33.07104
1026.471	37.08201
1026.835	-48.11624
1027.199	-69.16316
1027.562	-32.07133
1027.926	-52.12332
1028.29	11.02696
1028.654	-45.10016
1029.017	17.04043
1029.381	-37.08637
1029.744	-2.00495
1030.107	17.03867
1030.471	16.03712
1030.834	-26.05622
1031.197	23.05318
1031.56	-34.07745
1031.923	-31.07843
1032.286	42.09428
1032.648	-22.05021
1033.011	0
1033.374	-20.04495
1033.736	-82.21294
1034.099	-26.06166
1034.461	-27.06707
1034.823	-33.0805
1035.185	-25.06062
1035.548	28.06589
1035.91	-35.08132
1036.272	22.04831
1036.634	-2.00473
1036.995	-18.04059
1037.357	-48.11467
1037.719	-16.03781
1038.08	32.07357
1038.442	19.04327
1038.803	-65.14994
1039.165	-42.10294
1039.526	-50.11803
1039.887	-36.08366
1040.248	-3.00729
1040.609	-12.0284
1040.97	-3.00707
1041.331	45.11039
1041.692	4.00919
1042.053	-33.07229
1042.413	-31.06954
1042.774	30.07029
1043.134	-23.0523
1043.495	12.02914
1043.855	14.03314
1044.215	-19.0455
1044.576	3.00698
1044.936	-28.06174
1045.296	1.00241
1045.656	-33.07785
1046.016	-6.01391
1046.375	-31.07311
1046.735	20.04438
1047.095	-4.00904
1047.454	-31.06251
1047.814	-10.02329
1048.173	-55.12612
1048.533	-26.05767
1048.892	-29.06799
1049.251	0
1049.61	-3.00716
1049.969	-51.11671
1050.328	-11.02294
1050.687	-57.13452
1051.046	0
1051.405	-46.11052
1051.763	-12.02699
1052.122	-22.05324
1052.48	-2.00476
1052.839	45.1031
1053.197	-31.07071
1053.555	-30.0646
1053.914	-21.04966
1054.272	-58.13372
1054.63	-41.098
1054.988	12.02775
1055.345	-45.09233
1055.703	18.04178
1056.061	15.03782
1056.419	46.11669
1056.776	-46.10669
1057.134	-71.1575
1057.491	-7.01701
1057.848	-24.05768
1058.206	-53.11933
1058.563	-33.07012
1058.92	-5.01105
1059.277	-20.04789
1059.634	-66.1493
1059.991	-6.01393
1060.348	-37.0815
1060.704	7.01649
1061.061	-31.06831
1061.418	-25.05898
1061.774	22.05233
1062.131	7.01828
1062.487	-52.11763
1062.843	-25.06055
1063.199	-32.07755
1063.555	-9.02035
1063.911	-29.07082
1064.267	-4.00784
1064.623	-4.00952
1064.979	-68.15126
1065.335	-6.01371
1065.691	-85.19663
1066.046	-38.08059
1066.402	-72.15856
1066.757	-25.06146
1067.112	-10.02364
1067.468	-8.01854
1067.823	-63.14469
1068.178	-28.06525
1068.533	16.03733
1068.888	-38.08771
1069.243	-26.0624
1069.598	-16.03739
1069.952	-11.02448
1070.307	-35.0849
1070.662	12.02783
1071.016	-27.0595
1071.371	-8.01765
1071.725	-31.07123
1072.079	33.07634
1072.434	-18.0426
1072.788	-66.15131
1073.142	-3.00715
1073.496	-25.05733
1073.85	-38.0853
1074.203	30.06999
1074.557	4.01048
1074.911	3.00684
1075.265	-1.00224
1075.618	4.00944
1075.971	-4.00917
1076.325	6.0149
1076.678	-24.05316
1077.031	-54.11612
1077.385	2.0042
1077.738	-60.13147
1078.091	-25.0556
1078.444	-8.01766
1078.796	-43.10361
1079.149	-2.00483
1079.502	-35.081
1079.855	14.03143
1080.207	19.04489
1080.56	18.04534
1080.912	-14.03293
1081.264	18.04191
1081.617	-22.05227
1081.969	-53.13175
1082.321	-6.01411
1082.673	-21.04719
1083.025	-37.08467
1083.377	-68.15602
1083.728	26.05774
1084.08	-54.13082
1084.432	-7.01624
1084.783	-78.17494
1085.135	-22.0539
1085.486	-25.05576
1085.838	-29.06974
1086.189	15.03543
1086.54	-12.02757
1086.891	31.07714
1087.242	65.154
1087.593	-53.12377
1087.944	-19.04197
1088.295	0
1088.646	42.09964
1088.996	-48.11357
1089.347	-24.05678
1089.698	-51.11901
1090.048	-15.03765
1090.398	-32.07136
1090.749	-49.11304
1091.099	1.00247
1091.449	5.0121
1091.799	-36.08781
1092.149	-33.0796
1092.499	-14.03311
1092.849	4.00987
1093.199	24.05738
1093.548	-7.01647
1093.898	-43.10451
1094.248	-44.10931
1094.597	-23.05803
1094.947	6.0156
1095.296	-25.0604
1095.645	-24.06056
1095.994	12.02775
1096.343	-25.06149
1096.692	12.03114
1097.041	-13.03496
1097.39	-11.02659
1097.739	-20.05061
1098.088	-20.0519
1098.437	11.0285
1098.785	-15.03912
1099.134	-51.1305
1099.482	29.07774
1099.83	5.01277
1100.179	13.03357
1100.527	-14.03582
1100.875	13.03365
1101.223	34.08802
1101.571	-55.14904
1101.919	-23.06011
1102.267	4.01111
1102.615	-4.01286
1102.962	-3.00963
1103.31	6.01926
1103.658	-7.02246
