Data from N1 R1 sample 6_Subt2__4__11-27-50-374.txt Node

Date: Wed Sep 17 11:27:50 PDT 2025
User: uwsun
Spectrometer: HDX01956
Trigger mode: 0
Integration Time (sec): 5.000000E-1
Scans to average: 1
Nonlinearity correction enabled: true
Boxcar width: 0
Storing dark spectrum: false
XAxis mode: Wavelengths
Number of Pixels in Spectrum: 2068
>>>>>Begin Spectral Data<<<<<
194.03	-7.02034
194.578	1.00325
195.127	2.00641
195.676	9.02893
196.225	4.01068
196.773	-44.1238
197.321	-9.02523
197.87	-2.00524
198.418	12.0316
198.966	-5.01349
199.513	63.16245
200.061	-6.01565
200.609	-26.07047
201.156	-44.10023
201.704	-10.02585
202.251	-4.01088
202.798	-17.04524
203.345	-35.08956
203.892	20.05167
204.438	-24.05878
204.985	-6.01468
205.532	-9.02425
206.078	-17.04275
206.624	77.19578
207.17	26.06249
207.716	16.04023
208.262	-12.02473
208.808	26.0668
209.354	15.03803
209.899	-30.07783
210.445	-38.09827
210.99	-11.02766
211.535	39.09397
212.08	-15.03595
212.625	13.03323
213.17	33.08577
213.715	24.0563
214.259	4.00961
214.804	0
215.348	18.04274
215.892	56.13837
216.436	-22.05187
216.98	-4.00905
217.524	41.10006
218.068	62.15873
218.612	18.04679
219.155	10.02425
219.698	21.0511
220.242	-10.02531
220.785	13.0313
221.328	10.02524
221.871	55.14207
222.414	6.01516
222.956	-32.07881
223.499	-23.05285
224.041	-49.11578
224.583	-9.01952
225.126	11.0247
225.668	-6.01492
226.21	15.03869
226.751	25.05689
227.293	-38.08865
227.835	22.0549
228.376	-14.03266
228.918	-20.05097
229.459	-18.046
230	29.07088
230.541	13.03051
231.082	2.00498
231.622	-33.07685
232.163	-23.05688
232.704	58.14677
233.244	4.01012
233.784	14.03453
234.324	27.06201
234.864	2.00462
235.404	-17.04101
235.944	-29.07014
236.484	6.01526
237.023	26.0623
237.563	16.03796
238.102	-4.00968
238.641	-1.00256
239.18	-9.02165
239.719	12.03057
240.258	-33.0764
240.797	33.08008
241.335	23.05682
241.874	1.00201
242.412	60.14743
242.95	11.02713
243.488	-52.1207
244.026	43.1016
244.564	30.06307
245.102	28.06471
245.64	14.03403
246.177	-42.09633
246.715	20.04893
247.252	29.06693
247.789	-17.03262
248.326	-18.04451
248.863	-5.0113
249.4	-19.04427
249.936	51.10875
250.473	44.10563
251.009	-47.11114
251.546	60.1359
252.082	-60.13446
252.618	12.02746
253.154	24.0588
253.69	-10.02302
254.226	33.08032
254.761	-50.11615
255.297	3.00671
255.832	8.01944
256.367	23.05504
256.903	35.07932
257.438	8.01915
257.972	-31.0712
258.507	-36.08511
259.042	11.0245
259.576	59.13257
260.111	10.02345
260.645	0
261.179	4.00959
261.713	41.09341
262.247	-17.03986
262.781	25.05391
263.315	-5.01239
263.849	20.05095
264.382	8.01878
264.915	40.09621
265.449	-66.1666
265.982	37.08549
266.515	25.06239
267.048	-41.09012
267.58	15.03308
268.113	19.04203
268.646	-51.12857
269.178	-41.09469
269.71	21.04752
270.243	-8.01904
270.775	60.1556
271.307	-18.04387
271.838	32.0768
272.37	3.0075
272.902	33.07607
273.433	71.1594
273.965	25.06178
274.496	2.00506
275.027	31.07843
275.558	-11.02752
276.089	22.05597
276.62	-37.09574
277.15	9.02256
277.681	-4.00884
278.211	5.01244
278.741	21.04771
279.272	-15.03532
279.802	-32.08172
280.332	-29.07053
280.861	-5.01223
281.391	-17.03976
281.921	-26.06384
282.45	-15.03807
282.98	14.03712
283.509	17.03959
284.038	33.077
284.567	34.08066
285.096	3.00745
285.625	-27.06263
286.153	48.11655
286.682	39.09129
287.21	3.0073
287.739	13.03138
288.267	7.01743
288.795	-3.00799
289.323	-20.04836
289.851	2.00483
290.378	-19.04364
290.906	28.06982
291.433	-1.00255
291.961	-13.0306
292.488	-12.03048
293.015	48.11524
293.542	83.21513
294.069	56.1407
294.596	-1.0025
295.122	64.15557
295.649	-32.07245
296.175	-5.01233
296.702	52.1291
297.228	-20.04947
297.754	43.0986
298.28	50.11716
298.806	-15.03715
299.332	31.071
299.857	10.02333
300.383	-5.01287
300.908	3.00756
301.433	33.08245
301.958	-5.01179
302.483	1.00254
303.008	51.1288
303.533	11.02892
304.058	-33.07942
304.582	43.10349
305.107	-31.08283
305.631	24.05568
306.155	17.04057
306.679	25.06014
307.203	45.10649
307.727	12.02914
308.251	37.09294
308.775	71.17514
309.298	25.0616
309.822	32.08181
310.345	31.07571
310.868	45.11055
311.391	69.17208
311.914	33.08423
312.437	28.06556
312.96	12.02901
313.482	25.06008
314.005	-2.00511
314.527	26.06877
315.049	63.1616
315.571	13.03012
316.093	28.07078
316.615	16.0393
317.137	29.06492
317.659	18.04462
318.18	7.01711
318.702	48.1148
319.223	-27.05737
319.744	14.03244
320.265	57.14128
320.786	95.23967
321.307	18.04548
321.828	33.07634
322.348	20.04829
322.869	40.09742
323.389	258.49667
323.909	26.06094
324.43	22.05384
324.95	15.03533
325.47	57.1438
325.989	88.21159
326.509	54.1238
327.029	45.1053
327.548	18.04199
328.067	28.06961
328.587	55.14039
329.106	-6.01398
329.625	38.10064
330.144	56.13306
330.662	63.15093
331.181	39.09429
331.7	-3.0072
332.218	61.1356
332.736	87.20684
333.255	50.12045
333.773	15.03643
334.291	91.2304
334.808	56.12931
335.326	61.14016
335.844	51.12283
336.361	116.30092
336.879	99.23645
337.396	103.25398
337.913	46.10905
338.43	65.15
338.947	54.1319
339.464	7.01568
339.981	50.12131
340.497	41.10307
341.014	28.07002
341.53	56.12952
342.046	107.27033
342.562	51.12967
343.078	78.18712
343.594	46.11203
344.11	78.19031
344.626	101.25789
345.141	79.18456
345.657	68.15758
346.172	73.17954
346.687	41.09673
347.202	104.24168
347.717	85.20627
348.232	86.21739
348.747	69.1631
349.261	64.14449
349.776	111.26754
350.29	111.28103
350.805	99.24779
351.319	95.22464
351.833	94.2206
352.347	116.27753
352.861	135.31996
353.374	62.14453
353.888	141.34716
354.401	38.08911
354.915	100.23045
355.428	129.32404
355.941	44.10531
356.454	58.1326
356.967	43.10302
357.48	68.1579
357.993	95.23692
358.505	53.13175
359.018	100.24844
359.53	71.17681
360.042	105.23961
360.554	115.28482
361.066	101.24905
361.578	135.30247
362.09	88.21311
362.602	130.29408
363.113	133.31644
363.625	110.2541
364.136	111.24829
364.647	104.25053
365.158	122.28764
365.669	106.2567
366.18	120.28589
366.691	74.16638
367.201	133.32154
367.712	136.31504
368.222	134.31225
368.733	109.2418
369.243	124.28165
369.753	119.27812
370.263	140.34069
370.773	87.21508
371.282	181.43245
371.792	144.33687
372.301	159.38512
372.811	177.46239
373.32	166.36264
373.829	139.33033
374.338	110.24894
374.847	140.32636
375.356	129.30716
375.865	178.38441
376.373	182.41489
376.882	254.63237
377.39	197.4732
377.898	195.47674
378.407	208.4709
378.915	236.51294
379.423	223.5144
379.93	287.65357
380.438	234.55533
380.946	243.55852
381.453	237.56169
381.96	277.64836
382.468	305.69932
382.975	344.81443
383.482	273.60079
383.989	349.86454
384.495	405.90282
385.002	379.76527
385.509	393.89707
386.015	444.86052
386.521	437.94186
387.028	449.96273
387.534	447.90216
388.04	507.13605
388.546	529.07957
389.051	562.13431
389.557	565.19804
390.063	602.23298
390.568	644.3934
391.073	624.24813
391.578	678.47891
392.084	757.50515
392.589	777.45538
393.093	885.8016
393.598	934.79776
394.103	1029.01113
394.607	1121.17385
395.112	1170.2986
395.616	1258.38885
396.12	1380.36952
396.624	1510.6105
397.128	1588.77207
397.632	1749.85098
398.136	1926.91041
398.639	2106.11806
399.143	2424.53719
399.646	2776.39681
400.15	2970.30784
400.653	3344.16357
401.156	3844.94274
401.659	4511.14282
402.162	5836.09092
402.664	8810.95377
403.167	17445.3168
403.67	52996.17715
404.172	62493.5471
404.674	63858.43483
405.176	63738.15102
405.678	63977.72923
406.18	64011.81569
406.682	63863.44694
407.184	63926.60148
407.686	29392.15737
408.187	17590.62165
408.688	11727.54124
409.19	9146.73571
409.691	7746.29999
410.192	6507.11289
410.693	5954.65592
411.194	5585.09194
411.694	5176.62857
412.195	4750.23684
412.696	4386.95239
413.196	4367.24714
413.696	4466.02743
414.196	4302.57333
414.696	4034.46337
415.196	3712.18381
415.696	3029.11436
416.196	2342.21731
416.695	2041.08201
417.195	1934.08694
417.694	1803.47768
418.194	1716.45491
418.693	1554.56757
419.192	1564.67468
419.691	1505.56702
420.19	1452.61397
420.688	1439.66064
421.187	1319.0097
421.685	1167.15732
422.184	1118.1244
422.682	886.62366
423.18	806.59639
423.678	728.45716
424.176	612.25462
424.674	673.32361
425.172	604.27724
425.669	515.15873
426.167	530.12347
426.664	506.05335
427.161	411.88697
427.659	423.96202
428.156	383.77051
428.652	355.85165
429.149	340.78783
429.646	317.67827
430.143	311.71593
430.639	293.66939
431.135	296.71298
431.632	218.48832
432.128	218.51237
432.624	273.68126
433.12	238.52982
433.616	242.51769
434.111	250.57725
434.607	193.45406
435.103	190.39255
435.598	182.37433
436.093	199.45484
436.588	198.43785
437.083	206.45269
437.578	184.41945
438.073	189.46448
438.568	179.43339
439.062	140.29807
439.557	105.24501
440.051	134.29918
440.546	123.27808
441.04	135.32132
441.534	160.39677
442.028	136.32451
442.522	123.2931
443.015	69.14898
443.509	80.19454
444.002	63.15455
444.496	40.08783
444.989	102.24627
445.482	65.1611
445.975	73.16927
446.468	73.1589
446.961	93.20218
447.454	67.15092
447.947	70.16735
448.439	123.29882
448.931	146.33108
449.424	118.29732
449.916	107.25927
450.408	57.13102
450.9	27.06609
451.392	78.19738
451.884	89.20408
452.375	10.02499
452.867	42.09513
453.358	90.20567
453.849	91.19446
454.341	39.08878
454.832	43.09372
455.323	103.25454
455.814	86.19621
456.304	74.17115
456.795	109.24713
457.285	21.04678
457.776	107.2421
458.266	58.13781
458.756	26.06185
459.247	72.17187
459.737	86.20709
460.226	119.26871
460.716	40.09599
461.206	32.07694
461.695	31.07689
462.185	53.12601
462.674	62.14185
463.163	110.24478
463.653	69.14719
464.142	36.08754
464.63	48.11637
465.119	48.1119
465.608	96.22335
466.096	19.04168
466.585	62.14157
467.073	-13.03106
467.561	65.15548
468.05	43.09927
468.538	30.0735
469.026	33.07852
469.513	-17.03655
470.001	65.14911
470.489	48.11418
470.976	66.15392
471.463	38.09465
471.951	81.19973
472.438	13.03075
472.925	72.16884
473.412	32.07779
473.899	56.12838
474.385	23.05651
474.872	16.03756
475.359	48.1179
475.845	13.02725
476.331	-18.03899
476.817	16.03913
477.303	28.06538
477.789	-1.0024
478.275	46.11399
478.761	36.0856
479.247	-21.04757
479.732	19.04757
480.218	126.32483
480.703	36.08872
481.188	24.05236
481.673	40.09218
482.158	80.17225
482.643	93.23512
483.128	31.07259
483.612	64.15207
484.097	46.11081
484.581	73.16813
485.066	112.27082
485.55	32.07118
486.034	16.03501
486.518	84.19974
487.002	10.02445
487.486	-31.07624
487.969	29.07061
488.453	1.0025
488.936	53.11933
489.42	45.09979
489.903	26.06481
490.386	-30.06329
490.869	72.15736
491.352	13.03144
491.835	42.08631
492.318	12.02719
492.8	54.11207
493.283	103.25976
493.765	27.06636
494.247	69.15993
494.73	95.20855
495.212	67.15806
495.694	134.31065
496.175	101.24021
496.657	121.28235
497.139	112.19004
497.62	175.41059
498.102	161.39201
498.583	106.25699
499.064	148.3236
499.545	225.49475
500.026	256.55546
500.507	224.49762
500.988	348.82103
501.469	287.68253
501.949	370.85767
502.43	397.89304
502.91	480.92585
503.39	419.96564
503.87	544.16022
504.35	574.20099
504.83	597.15405
505.31	655.39218
505.79	720.47569
506.269	776.51827
506.749	908.71335
507.228	1032.96011
507.707	1125.9551
508.187	1201.22917
508.666	1280.44128
509.145	1455.46144
509.623	1643.64709
510.102	1751.86842
510.581	1913.98813
511.059	2089.3129
511.538	2283.56145
512.016	2554.26611
512.494	2717.31253
512.972	2973.31267
513.45	3199.13155
513.928	3540.33732
514.406	3849.30319
514.884	4173.57584
515.361	4507.80844
515.839	4897.31151
516.316	5296.48896
516.793	5533.66412
517.27	5747.16931
517.747	6100.53089
518.224	6441.6353
518.701	6699.37253
519.178	7005.12252
519.654	7096.7789
520.131	7335.08847
520.607	7453.03581
521.083	7477.66963
521.56	7455.8466
522.036	7570.56116
522.512	7410.0886
522.987	7248.90796
523.463	7156.7949
523.939	7012.06977
524.414	6727.56454
524.89	6680.82613
525.365	6272.55308
525.84	6131.01101
526.315	5784.21295
526.79	5580.80101
527.265	5221.15609
527.74	4930.68319
528.215	4742.48678
528.689	4441.22836
529.164	4279.17754
529.638	4015.49752
530.112	3841.0026
530.587	3618.49003
531.061	3518.31593
531.534	3350.3213
532.008	3174.4102
532.482	3049.06419
532.956	2868.71788
533.429	2750.43681
533.903	2587.80422
534.376	2436.82556
534.849	2322.98381
535.322	2207.06381
535.795	2033.0769
536.268	2041.09643
536.741	1934.93468
537.213	1858.7485
537.686	1779.94668
538.158	1655.55836
538.631	1647.78412
539.103	1578.46846
539.575	1504.11304
540.047	1408.20024
540.519	1409.48684
540.991	1332.46155
541.463	1222.2789
541.934	1104.9614
542.406	1154.18664
542.877	1071.91684
543.348	1043.04143
543.82	1024.02911
544.291	960.84081
544.762	934.84508
545.233	912.95108
545.703	829.55067
546.174	831.63026
546.645	795.65268
547.115	795.64828
547.585	727.44743
548.056	768.63791
548.526	674.40929
548.996	674.41924
549.466	646.39416
549.935	648.3728
550.405	639.2348
550.875	600.27541
551.344	525.13827
551.814	540.11827
552.283	569.11034
552.752	495.06171
553.221	488.98513
553.69	578.17093
554.159	551.24744
554.628	475.9899
555.096	477.12159
555.565	447.91168
556.033	498.08813
556.502	403.91025
556.97	410.84933
557.438	422.92221
557.906	411.9052
558.374	425.91679
558.842	393.88296
559.31	422.87731
559.777	403.92322
560.245	388.83322
560.712	376.80815
561.18	424.87047
561.647	337.70639
562.114	443.93963
562.581	395.91216
563.048	444.94072
563.514	462.07339
563.981	386.82821
564.448	377.79931
564.914	410.88766
565.381	431.91378
565.847	394.85848
566.313	438.94138
566.779	445.92492
567.245	447.95679
567.711	474.04346
568.176	402.84095
568.642	459.06997
569.108	499.12451
569.573	482.0211
570.038	458.87705
570.504	522.06936
570.969	540.2168
571.434	603.19018
571.899	565.20742
572.363	566.16698
572.828	646.3119
573.293	655.32264
573.757	654.34025
574.222	648.27885
574.686	711.42407
575.15	658.40311
575.614	713.47087
576.078	701.43896
576.542	625.26313
577.006	720.41054
577.469	692.49928
577.933	731.44259
578.396	761.55877
578.86	709.45737
579.323	761.58895
579.786	718.34434
580.249	734.50374
580.712	669.438
581.175	645.41487
581.637	625.26428
582.1	652.24582
582.563	632.17954
583.025	619.34638
583.487	688.22344
583.95	553.0622
584.412	614.13738
584.874	624.35928
585.336	596.2669
585.797	534.04759
586.259	566.19259
586.721	553.17205
587.182	530.10732
587.643	476.99309
588.105	497.0738
588.566	519.97731
589.027	534.191
589.488	492.03233
589.949	445.00098
590.41	452.81957
590.87	451.95409
591.331	467.93733
591.791	388.84219
592.252	411.89343
592.712	423.94411
593.172	411.87138
593.632	430.88638
594.092	356.74737
594.552	366.74462
595.011	320.69638
595.471	343.73548
595.931	319.68461
596.39	335.76316
596.849	337.74349
597.308	268.54748
597.768	346.84755
598.227	293.67343
598.685	276.60319
599.144	279.63099
599.603	263.59141
600.062	286.57577
600.52	318.68291
600.978	231.52839
601.437	277.60371
601.895	287.58776
602.353	226.48075
602.811	269.58279
603.269	275.62751
603.727	236.54796
604.184	235.51804
604.642	273.6445
605.099	281.62903
605.557	256.59956
606.014	212.4435
606.471	229.55673
606.928	248.53168
607.385	272.65493
607.842	174.39073
608.299	220.49868
608.755	215.50562
609.212	194.42202
609.668	235.51261
610.125	239.55635
610.581	197.44972
611.037	183.40037
611.493	184.41911
611.949	209.49495
612.405	187.37169
612.861	171.3847
613.316	200.46622
613.772	195.43491
614.227	163.38408
614.683	96.20235
615.138	140.32315
615.593	180.40785
616.048	156.35016
616.503	158.37599
616.958	153.37601
617.412	158.36788
617.867	135.29773
618.321	162.32734
618.776	116.25266
619.23	102.23675
619.684	149.32626
620.138	158.35407
620.592	152.36157
621.046	129.30042
621.5	132.31267
621.954	87.19115
622.407	159.34404
622.861	136.32463
623.314	129.28748
623.768	190.43663
624.221	76.14912
624.674	122.2779
625.127	107.24594
625.58	118.26128
626.033	164.35008
626.485	123.28983
626.938	165.38395
627.39	162.37035
627.843	165.37151
628.295	99.22592
628.747	127.29809
629.199	127.28454
629.651	136.30628
630.103	101.22918
630.555	160.32908
631.006	118.27031
631.458	115.26676
631.909	117.25814
632.361	112.25481
632.812	95.21766
633.263	109.23353
633.714	140.29041
634.165	111.26237
634.616	145.33569
635.067	141.30418
635.518	105.24569
635.968	88.17128
636.419	144.30805
636.869	110.25683
637.319	153.34717
637.769	138.30428
638.219	143.3304
638.669	103.24167
639.119	126.29615
639.569	121.28545
640.019	161.36295
640.468	134.29472
640.918	78.18341
641.367	79.17547
641.816	117.25598
642.265	127.29121
642.714	114.25747
643.163	168.37849
643.612	195.46376
644.061	117.24645
644.51	118.26639
644.958	152.32812
645.406	94.22215
645.855	129.30751
646.303	138.31256
646.751	136.30878
647.199	101.22611
647.647	113.25859
648.095	77.17422
648.543	84.16895
648.99	96.22801
649.438	75.17212
649.885	123.30162
650.333	95.18248
650.78	72.17279
651.227	142.34051
651.674	98.22106
652.121	126.30387
652.568	116.27986
653.015	81.19848
653.461	88.20708
653.908	77.17536
654.354	87.20501
654.801	90.20881
655.247	55.1187
655.693	54.1397
656.139	104.24473
656.585	119.27943
657.031	86.20017
657.477	138.29547
657.922	90.20227
658.368	81.19708
658.813	60.13568
659.259	105.25107
659.704	163.37691
660.149	87.19845
660.594	130.30269
661.039	125.27972
661.484	147.34032
661.929	95.21924
662.373	88.21831
662.818	45.11088
663.262	122.28988
663.707	102.2559
664.151	70.16927
664.595	87.20811
665.039	112.27347
665.483	108.27056
665.927	96.22229
666.371	103.23902
666.814	105.24569
667.258	87.20739
667.701	129.26945
668.145	145.35279
668.588	109.2659
669.031	55.12869
669.474	73.17355
669.917	119.25595
670.36	131.32052
670.803	122.28943
671.245	32.06549
671.688	85.20441
672.13	79.177
672.573	94.23413
673.015	112.26561
673.457	102.21868
673.899	83.19847
674.341	74.17651
674.783	69.16392
675.225	82.19955
675.666	92.22229
676.108	51.10974
676.549	83.19101
676.991	55.12003
677.432	52.10275
677.873	28.06386
678.314	103.2412
678.755	107.25956
679.196	58.13163
679.637	23.05498
680.078	33.07688
680.518	74.16802
680.959	47.11122
681.399	108.26263
681.839	67.161
682.28	66.16248
682.72	44.1001
683.16	107.26238
683.6	116.25867
684.039	21.04338
684.479	67.16381
684.919	105.24289
685.358	62.1528
685.798	10.026
686.237	44.10427
686.676	9.02038
687.115	71.16542
687.554	82.19364
687.993	87.18962
688.432	57.12892
688.871	67.15203
689.309	91.21493
689.748	68.13986
690.186	22.05131
690.625	78.18083
691.063	111.25952
691.501	69.16864
691.939	27.06773
692.377	26.06278
692.815	89.21436
693.253	3.00714
693.69	36.07838
694.128	56.13465
694.565	0
695.003	68.17171
695.44	58.13601
695.877	49.11434
696.314	49.10221
696.751	77.17188
697.188	38.08754
697.625	69.15224
698.061	17.04057
698.498	35.08212
698.934	25.05944
699.371	43.10038
699.807	50.11683
700.243	58.13834
700.679	24.05323
701.115	38.08792
701.551	47.10808
701.987	-16.03504
702.422	76.1787
702.858	46.10871
703.294	53.12026
703.729	50.12027
704.164	17.04039
704.599	54.11927
705.035	9.02015
705.47	44.10575
705.904	23.05295
706.339	15.03429
706.774	80.18414
707.209	88.2011
707.643	62.1463
708.078	47.11303
708.512	14.03493
708.946	19.04472
709.38	46.10812
709.814	15.03377
710.248	77.18524
710.682	82.19356
711.116	44.10612
711.549	-13.03314
711.983	23.05276
712.416	79.18427
712.85	23.05651
713.283	47.10963
713.716	28.06875
714.149	31.07108
714.582	62.13722
715.015	31.07526
715.448	67.16612
715.881	52.10999
716.313	42.09695
716.746	41.09597
717.178	27.06436
717.61	72.18005
718.043	18.04408
718.475	55.13156
718.907	34.08392
719.339	34.07632
719.77	0
720.202	-4.00997
720.634	49.11873
721.065	22.05137
721.497	31.07509
721.928	28.06771
722.359	-31.07562
722.79	-22.05266
723.221	-7.01729
723.652	38.0953
724.083	-27.06074
724.514	59.13328
724.945	16.03714
725.375	-3.00699
725.806	8.01956
726.236	95.23709
726.666	8.01872
727.096	41.09886
727.526	87.21956
727.956	7.0159
728.386	34.08225
728.816	53.13366
729.246	58.14088
729.675	-42.10252
730.105	3.00728
730.534	13.03
730.964	40.09825
731.393	43.10364
731.822	65.16304
732.251	22.05521
732.68	-24.05535
733.109	10.02445
733.537	45.10851
733.966	29.07159
734.395	36.08207
734.823	-35.07729
735.251	-7.01671
735.68	57.13781
736.108	-10.02482
736.536	44.10124
736.964	-21.04846
737.392	38.09348
737.82	28.06586
738.247	55.12844
738.675	18.04173
739.102	-11.02725
739.53	24.06106
739.957	56.14251
740.384	5.01191
740.811	-42.10423
741.238	23.05577
741.665	59.13621
742.092	-96.22256
742.519	11.02705
742.945	8.01929
743.372	12.02953
743.798	29.07316
744.225	-42.09918
744.651	7.01732
745.077	2.00494
745.503	13.03098
745.929	26.06221
746.355	11.02641
746.781	-51.12516
747.207	5.01178
747.632	56.13669
748.058	76.18751
748.483	-10.02282
748.908	14.03449
749.334	50.12113
749.759	23.05416
750.184	10.02388
750.609	31.07472
751.033	16.03678
751.458	20.0439
751.883	-17.0415
752.307	-5.01167
752.732	39.09832
753.156	-4.00975
753.58	27.06258
754.005	-8.01988
754.429	-7.01649
754.853	1.00247
755.277	18.04223
755.7	29.07088
756.124	6.01476
756.548	-25.0587
756.971	34.08156
757.394	-7.01772
757.818	34.08637
758.241	32.08011
758.664	14.03491
759.087	2.00447
759.51	-5.0122
759.933	-7.01681
760.356	10.02554
760.778	-7.01704
761.201	22.05227
761.623	-50.11853
762.046	11.02529
762.468	32.07516
762.89	-7.01688
763.312	33.07948
763.734	39.09236
764.156	11.02681
764.578	-19.04287
765	25.05994
765.421	14.03531
765.843	25.0644
766.264	-37.08698
766.686	-26.06393
767.107	-2.00479
767.528	72.18096
767.949	-17.04273
768.37	27.06594
768.791	-1.00236
769.212	-9.02249
769.632	-23.05356
770.053	-33.08562
770.473	-9.02142
770.894	-28.06819
771.314	-35.08183
771.734	-39.09033
772.154	7.01759
772.575	30.06764
772.994	-54.12176
773.414	-3.00702
773.834	-13.03199
774.254	-18.04343
774.673	39.09361
775.093	-26.06429
775.512	-22.05388
775.931	-13.03263
776.351	10.0246
776.77	3.00727
777.189	-11.02582
777.607	-34.08616
778.026	-10.02462
778.445	-20.05036
778.864	-46.11566
779.282	-25.05886
779.701	-30.07453
780.119	-2.00501
780.537	-35.0863
780.955	3.00745
781.373	0
781.791	20.04464
782.209	-24.05336
782.627	-10.02602
783.045	-40.09001
783.462	-26.0657
783.88	0
784.297	-17.04226
784.715	-11.02804
785.132	-33.07852
785.549	-17.0419
785.966	-12.02978
786.383	9.02188
786.8	-10.02283
787.217	28.06561
787.633	-7.01741
788.05	-2.00456
788.466	-69.15949
788.883	-24.0611
789.299	-47.11049
789.715	15.0359
790.131	32.07776
790.547	-7.01715
790.963	-17.04149
791.379	-36.09012
791.795	-20.04436
792.21	15.03402
792.626	-35.08122
793.041	-2.00483
793.457	-30.07262
793.872	-51.11756
794.287	33.07815
794.702	-53.12707
795.117	-30.07399
795.532	25.0618
795.947	-37.08647
796.362	-12.02748
796.776	-4.00898
797.191	3.00721
797.605	9.02097
798.02	-5.01191
798.434	-32.07009
798.848	40.09734
799.262	-28.0685
799.676	13.03098
800.09	17.04081
800.504	-29.06889
800.918	-56.12694
801.331	-39.0985
801.745	-35.07861
802.158	-40.09771
802.572	0
802.985	-6.01405
803.398	-17.03962
803.811	-26.06431
804.224	-26.06273
804.637	14.03269
805.05	-25.05636
805.462	-15.03591
805.875	-23.05894
806.288	-51.12246
806.7	-83.20496
807.112	-53.12002
807.525	-47.11243
807.937	22.05316
808.349	-38.09303
808.761	41.0983
809.173	-35.08388
809.584	0
809.996	-45.10847
810.408	-7.01794
810.819	-46.10681
811.231	-6.01578
811.642	10.02433
812.053	-15.03596
812.464	-57.13327
812.875	36.08999
813.286	17.04315
813.697	-2.00443
814.108	-20.04761
814.519	21.04585
814.929	9.02232
815.34	-58.13728
815.75	11.02755
816.16	-25.06028
816.571	-14.03553
816.981	-60.13789
817.391	-44.10342
817.801	-39.09578
818.211	-7.01624
818.62	6.01416
819.03	12.02854
819.44	-26.06546
819.849	-51.1252
820.259	-45.1121
820.668	-15.03629
821.077	10.02446
821.486	-56.13101
821.895	-28.06674
822.304	-12.0311
822.713	-37.08542
823.122	-18.04387
823.531	-29.06626
823.939	10.02383
824.348	-9.02121
824.756	-35.08554
825.164	26.06315
825.573	-55.13617
825.981	9.02158
826.389	6.01465
826.797	15.03726
827.205	7.01574
827.612	-18.04316
828.02	-78.17997
828.428	-13.03234
828.835	-24.0625
829.243	5.01149
829.65	-45.111
830.057	27.0631
830.464	-1.00241
830.871	-8.01876
831.278	-12.02833
831.685	-18.03892
832.092	-47.11183
832.499	8.01705
832.905	-32.07886
833.312	-21.04573
833.718	28.06817
834.124	23.05096
834.531	-24.05858
834.937	17.0426
835.343	-5.01164
835.749	-37.08321
836.155	13.03317
836.561	-10.02404
836.966	-18.04279
837.372	-28.06944
837.777	-14.03421
838.183	-6.01286
838.588	-31.07596
838.993	20.04723
839.399	-2.00479
839.804	-74.17853
840.209	-29.07332
840.613	-16.03454
841.018	-37.09137
841.423	-29.07301
841.828	-8.01986
842.232	-58.13871
842.637	-5.01161
843.041	-27.06821
843.445	-50.12227
843.849	-21.05106
844.253	3.0069
844.657	-42.10461
845.061	55.12201
845.465	-50.11867
845.869	-6.01355
846.272	13.03091
846.676	-22.05094
847.079	-11.02756
847.483	19.04581
847.886	16.03733
848.289	13.0343
848.692	-18.04421
849.095	-8.01861
849.498	-24.05854
849.901	-18.03979
850.304	12.02774
850.707	-48.11977
851.109	1.00245
851.512	-24.05782
851.914	-46.11482
852.316	31.07686
852.718	-11.02852
853.121	-18.04308
853.523	-12.02707
853.925	14.03596
854.326	-4.00982
854.728	-12.03027
855.13	-23.05873
855.531	-32.07498
855.933	-26.06025
856.334	-29.0714
856.736	-25.05514
857.137	25.05668
857.538	-19.04706
857.939	16.03895
858.34	0
858.741	-13.03309
859.142	-56.13127
859.542	4.01037
859.943	13.03132
860.343	-9.02189
860.744	-1.00237
861.144	-26.06256
861.544	-1.00237
861.945	-57.14272
862.345	-20.04745
862.745	8.01947
863.145	-49.1124
863.544	11.0271
863.944	-33.0761
864.344	-35.08388
864.743	43.10266
865.143	45.1128
865.542	-40.08938
865.941	15.03616
866.34	-2.00459
866.74	-9.02366
867.139	-15.03551
867.537	-52.12867
867.936	2.0047
868.335	-17.04212
868.734	-16.04003
869.132	-58.13035
869.531	-6.01392
869.929	-32.07153
870.327	-21.04906
870.726	-42.10145
871.124	-13.02926
871.522	-25.06203
871.92	4.00958
872.318	-15.03543
872.715	-19.04512
873.113	-28.0662
873.511	-43.10459
873.908	-27.06787
874.306	23.0559
874.703	-25.06044
875.1	-47.11619
875.497	-51.11929
875.894	16.03875
876.291	24.05709
876.688	-15.03784
877.085	-30.06969
877.482	0
877.878	-3.00712
878.275	-5.01241
878.671	-52.10936
879.068	-26.06116
879.464	-38.08973
879.86	-7.01607
880.256	-26.06154
880.652	-11.02726
881.048	-33.079
881.444	-64.1472
881.84	-11.0272
882.236	-15.03672
882.631	16.03825
883.027	2.00467
883.422	-6.01484
883.817	-40.09934
884.213	-24.06023
884.608	31.07517
885.003	-34.07932
885.398	-47.11551
885.793	-55.13492
886.188	-50.12168
886.582	-10.02474
886.977	-61.14094
887.371	-12.02934
887.766	-51.12529
888.16	-3.00714
888.554	-9.02147
888.949	-2.00488
889.343	-1.00236
889.737	-19.05008
890.131	-7.0171
890.525	13.03252
890.918	-21.05152
891.312	-31.07151
891.706	-31.07946
892.099	-1.00247
892.492	-38.07914
892.886	-13.03086
893.279	-10.02475
893.672	5.01247
894.065	11.02674
894.458	-44.10724
894.851	6.01414
895.244	-26.06485
895.637	48.1115
896.029	13.03099
896.422	-64.15154
896.814	-35.08474
897.206	14.03273
897.599	23.05489
897.991	18.04237
898.383	-17.03915
898.775	26.05719
899.167	11.0252
899.559	-15.03665
899.951	-19.0431
900.342	-32.07875
900.734	8.01976
901.125	8.02026
901.517	7.01669
901.908	-66.15283
902.299	7.01665
902.69	28.0643
903.082	9.0211
903.473	22.05175
903.863	-64.15964
904.254	-6.01368
904.645	14.03324
905.036	57.13536
905.426	20.04334
905.817	-50.11931
906.207	-53.12217
906.597	-13.02986
906.987	-20.05016
907.378	2.00495
907.768	-7.01813
908.158	-17.04023
908.547	4.0102
908.937	-60.14934
909.327	24.0561
909.717	-22.05354
910.106	-45.10513
910.495	54.12791
910.885	6.0148
911.274	-22.05352
911.663	-37.09097
912.052	21.04943
912.441	10.02489
912.83	-22.04865
913.219	44.11075
913.608	14.03333
913.997	-31.07675
914.385	16.03692
914.774	-16.0378
915.162	31.07205
915.55	8.01857
915.939	-14.03473
916.327	-21.05064
916.715	31.07768
917.103	-13.03053
917.491	-16.03837
917.878	-27.06454
918.266	-23.058
918.654	21.05243
919.041	-12.031
919.429	-17.03897
919.816	-3.00738
920.203	29.06855
920.591	-10.02417
920.978	16.03787
921.365	16.04095
921.752	-54.1239
922.139	10.02089
922.525	15.03497
922.912	-22.05201
923.299	-37.09006
923.685	-61.15505
924.072	-52.11403
924.458	-36.08761
924.844	-32.07738
925.231	-26.05824
925.617	14.03495
926.003	-2.00495
926.389	-33.08131
926.774	-20.04922
927.16	-10.02409
927.546	29.07287
927.931	-12.02892
928.317	-8.01769
928.702	15.03405
929.088	25.05838
929.473	28.06951
929.858	13.03101
930.243	16.03753
930.628	10.02382
931.013	-1.00241
931.398	-29.06361
931.783	-39.09948
932.167	23.05493
932.552	-34.08293
932.937	0
933.321	-18.04443
933.705	-47.11466
934.09	-46.11132
934.474	-14.03192
934.858	25.06298
935.242	-12.02686
935.626	-25.06287
936.009	21.05484
936.393	28.06994
936.777	3.00752
937.16	-2.00511
937.544	-19.04269
937.927	-3.00745
938.311	4.00938
938.694	6.01549
939.077	-23.05356
939.46	1.00232
939.843	-16.03135
940.226	9.02227
940.609	-34.07701
940.991	-32.07907
941.374	-29.06961
941.757	11.02614
942.139	11.02391
942.522	13.02943
942.904	19.04409
943.286	-15.03697
943.668	29.07355
944.05	-31.07458
944.432	-76.1837
944.814	-49.11681
945.196	-23.0551
945.578	25.05836
945.959	-49.11087
946.341	-22.05147
946.722	-19.04301
947.104	38.08733
947.485	17.03814
947.866	-15.03715
948.247	-13.03228
948.628	-38.08855
949.009	-51.12816
949.39	-30.07232
949.771	-48.10615
950.152	27.06402
950.532	-7.01724
950.913	-4.00933
951.293	12.03187
951.674	0
952.054	50.12159
952.434	-23.05575
952.814	-2.00455
953.194	-27.06809
953.574	3.00712
953.954	-49.11236
954.334	18.04384
954.714	-5.01189
955.093	13.03088
955.473	37.09029
955.853	-32.08109
956.232	-9.02406
956.611	-26.05977
956.99	-25.06158
957.37	-41.10151
957.749	-55.12612
958.128	-53.13184
958.506	-29.07374
958.885	-24.05882
959.264	-19.04597
959.643	6.01327
960.021	10.02419
960.4	-28.06151
960.778	-34.08035
961.156	-28.06817
961.535	-51.11474
961.913	-1.00228
962.291	23.05794
962.669	-3.00743
963.047	-35.08789
963.424	24.06015
963.802	21.05
964.18	-42.1021
964.557	-32.07121
964.935	-24.05518
965.312	-17.04348
965.69	-16.03857
966.067	-21.0491
966.444	-54.12762
966.821	17.04254
967.198	-32.07463
967.575	-15.03555
967.952	-4.00909
968.329	-15.03572
968.705	17.03523
969.082	28.07053
969.458	-9.02127
969.835	-27.06397
970.211	1.00252
970.587	19.04583
970.963	-40.09945
971.339	10.0255
971.715	-4.00972
972.091	-20.04785
972.467	-46.11043
972.843	11.02677
973.219	28.06393
973.594	-56.14402
973.97	-40.09012
974.345	12.02788
974.721	-50.11638
975.096	21.04947
975.471	-17.03893
975.846	-46.10702
976.221	-60.14988
976.596	28.06584
976.971	27.06481
977.346	-41.09209
977.72	-4.00985
978.095	-8.02011
978.469	-7.0161
978.844	12.029
979.218	8.01885
979.593	-44.10229
979.967	-18.04173
980.341	-5.01119
980.715	-7.01719
981.089	11.02662
981.463	-44.09844
981.837	12.02873
982.21	-35.07687
982.584	-1.00235
982.957	-13.0318
983.331	-30.06781
983.704	28.06725
984.078	-14.03346
984.451	-19.04514
984.824	10.02372
985.197	-31.07208
985.57	-41.09875
985.943	-59.13989
986.316	-31.07285
986.688	0
987.061	71.15914
987.434	68.17275
987.806	-40.0931
988.179	-21.04786
988.551	-7.01717
988.923	-35.0835
989.295	-17.04105
989.667	-11.02592
990.039	32.07761
990.411	-40.08805
990.783	-33.07269
991.155	-28.06584
991.527	-9.02103
991.898	4.00971
992.27	3.00727
992.641	-39.09486
993.012	-28.06218
993.384	-13.02988
993.755	-21.05252
994.126	9.02112
994.497	-10.02383
994.868	-50.11048
995.239	-29.06815
995.61	-35.08611
995.98	-35.0827
996.351	-2.00484
996.722	30.06767
997.092	-36.08353
997.462	-57.13196
997.833	-23.05238
998.203	-35.08129
998.573	-19.04625
998.943	-8.01827
999.313	-19.04451
999.683	-1.00233
1000.053	-63.13807
1000.423	-39.09161
1000.792	-70.17631
1001.162	-39.09293
1001.531	27.06429
1001.901	-6.01443
1002.27	-47.09987
1002.639	-52.1291
1003.009	-13.02987
1003.378	6.01491
1003.747	-33.07525
1004.116	-51.11891
1004.485	-52.12127
1004.853	-30.07301
1005.222	-86.20944
1005.591	-14.03207
1005.959	-35.077
1006.328	-4.00872
1006.696	-69.16234
1007.064	-36.08744
1007.433	-18.04335
1007.801	-43.10105
1008.169	-42.10244
1008.537	-28.05993
1008.905	-13.02956
1009.273	-5.01186
1009.64	-12.02815
1010.008	-25.05772
1010.375	-24.05549
1010.743	-26.0562
1011.11	20.04653
1011.478	10.02412
1011.845	17.0382
1012.212	16.03525
1012.579	0
1012.946	-61.1401
1013.313	42.09474
1013.68	-42.09109
1014.047	-54.12564
1014.414	-14.03195
1014.78	-34.08277
1015.147	25.05735
1015.513	20.0464
1015.88	14.03435
1016.246	-22.05203
1016.612	-40.08809
1016.978	35.08305
1017.344	-14.03367
1017.71	21.04893
1018.076	7.01572
1018.442	-27.06799
1018.808	24.05849
1019.174	-47.11449
1019.539	-98.21165
1019.905	25.057
1020.27	-72.17397
1020.636	-28.06422
1021.001	13.03011
1021.366	-31.07279
1021.731	32.08063
1022.096	4.00988
1022.461	-16.0368
1022.826	29.06679
1023.191	-21.05379
1023.556	-37.08375
1023.92	-16.03777
1024.285	-44.10346
1024.649	12.02817
1025.014	-32.07618
1025.378	9.02205
1025.742	-17.0406
1026.107	6.01299
1026.471	-7.01566
1026.835	-11.02645
1027.199	-33.07749
1027.562	-23.05117
1027.926	-7.01646
1028.29	-26.06417
1028.654	-49.10915
1029.017	45.10645
1029.381	-40.09343
1029.744	-8.01984
1030.107	-28.06427
1030.471	51.11751
1030.834	-51.11087
1031.197	-5.01163
1031.56	-42.09582
1031.923	-10.02521
1032.286	15.03386
1032.648	-56.12869
1033.011	20.04478
1033.374	-25.05624
1033.736	-37.09534
1034.099	-17.04025
1034.461	-23.05709
1034.823	-20.04867
1035.185	-36.08748
1035.548	3.00709
1035.91	19.04367
1036.272	-13.02875
1036.634	11.02594
1036.995	-58.13185
1037.357	-29.06903
1037.719	-7.01651
1038.08	28.06442
1038.442	-42.09683
1038.803	-74.17101
1039.165	-38.09306
1039.526	-8.01873
1039.887	-17.03936
1040.248	-12.02922
1040.609	-13.03078
1040.97	-28.06627
1041.331	13.03208
1041.692	-8.01841
1042.053	-26.05687
1042.413	-58.13083
1042.774	-16.03783
1043.134	-16.03633
1043.495	-12.02927
1043.855	4.00949
1044.215	-38.09133
1044.576	-48.11282
1044.936	-46.10181
1045.296	27.06486
1045.656	-62.14709
1046.016	21.04842
1046.375	-8.01878
1046.735	14.0311
1047.095	-1.00226
1047.454	-31.06251
1047.814	-20.04668
1048.173	-2.00454
1048.533	-38.08449
1048.892	-30.07035
1049.251	-12.02898
1049.61	-22.0527
1049.969	-35.07984
1050.328	0
1050.687	-37.08698
1051.046	10.02338
1051.405	-39.09358
1051.763	-23.05185
1052.122	-1.00241
1052.48	24.05685
1052.839	4.00924
1053.197	16.03615
1053.555	-45.09721
1053.914	-18.04254
1054.272	-39.08957
1054.63	-49.1173
1054.988	5.01158
1055.345	-60.12352
1055.703	-7.01633
1056.061	3.00758
1056.419	21.05351
1056.776	-45.10435
1057.134	-32.07041
1057.491	28.06758
1057.848	14.03341
1058.206	-46.10342
1058.563	-20.04238
1058.92	12.02642
1059.277	-24.05751
1059.634	-36.08094
1059.991	14.03238
1060.348	2.00437
1060.704	2.00472
1061.061	-22.04839
1061.418	-15.03532
1061.774	-19.04555
1062.131	-12.03143
1062.487	-26.05851
1062.843	-41.09961
1063.199	-25.06051
1063.555	23.05166
1063.911	-44.10776
1064.267	-14.02751
1064.623	-12.0286
1064.979	-113.2537
1065.335	1.00228
1065.691	-48.11022
1066.046	-50.10632
1066.402	-27.0589
1066.757	9.02199
1067.112	1.00236
1067.468	17.0392
1067.823	-55.12612
1068.178	-34.07932
1068.533	-21.04935
1068.888	-9.02065
1069.243	-17.04073
1069.598	-38.08918
1069.952	34.07497
1070.307	-35.0849
1070.662	13.03014
1071.016	-19.0418
1071.371	35.07654
1071.725	-31.07123
1072.079	10.02324
1072.434	-18.0426
1072.788	-66.15131
1073.142	21.04981
1073.496	-20.04582
1073.85	15.0333
1074.203	13.03043
1074.557	30.07823
1074.911	2.00456
1075.265	-27.06072
1075.618	38.08911
1075.971	-41.09469
1076.325	5.01242
1076.678	-18.03982
1077.031	-76.1642
1077.385	-38.08059
1077.738	-15.03255
1078.091	18.03967
1078.444	-19.04204
1078.796	-3.00717
1079.149	17.04088
1079.502	-28.06471
1079.855	-21.04748
1080.207	46.10812
1080.56	17.04283
1080.912	1.00235
1081.264	5.01167
1081.617	-8.01896
1081.969	7.01721
1082.321	-8.01883
1082.673	-14.03141
1083.025	-22.05019
1083.377	241.51857
1083.728	-28.06288
1084.08	-37.08935
1084.432	-31.07228
1084.783	-46.10249
1085.135	2.00488
1085.486	2.00444
1085.838	1.00239
1086.189	-16.03802
1086.54	-5.01147
1086.891	23.05732
1087.242	31.07393
1087.593	-33.07676
1087.944	10.02196
1088.295	17.0369
1088.646	47.1114
1088.996	-36.08498
1089.347	-25.05916
1089.698	-20.04639
1090.048	-24.06034
1090.398	-26.05791
1090.749	-63.14574
1091.099	-6.01484
1091.449	-11.0267
1091.799	37.08901
1092.149	-24.05779
1092.499	-55.13111
1092.849	-24.05952
1093.199	29.06926
1093.548	-20.04717
1093.898	-37.08982
1094.248	-15.03707
1094.597	-8.02013
1094.947	5.013
1095.296	-39.09447
1095.645	4.01004
1095.994	-14.03255
1096.343	-11.02698
1096.692	-21.05481
1097.041	-16.04305
1097.39	-24.05817
1097.739	-13.03286
1098.088	-12.0311
1098.437	4.01038
1098.785	-17.04435
1099.134	-25.06368
1099.482	-23.06218
1099.83	29.07374
1100.179	18.04644
1100.527	-45.11575
1100.875	-26.06775
1101.223	-5.01303
1101.571	-58.15725
1101.919	16.04154
1102.267	17.04711
1102.615	3.00964
1102.962	-5.01605
1103.31	12.0385
1103.658	1.00321
