Data from N1 R1 sample 3_Subt2__4__11-39-59-856.txt Node

Date: Wed Sep 17 11:39:59 PDT 2025
User: uwsun
Spectrometer: HDX01956
Trigger mode: 0
Integration Time (sec): 5.000000E-1
Scans to average: 1
Nonlinearity correction enabled: true
Boxcar width: 0
Storing dark spectrum: false
XAxis mode: Wavelengths
Number of Pixels in Spectrum: 2068
>>>>>Begin Spectral Data<<<<<
194.03	-3.00871
194.578	3.00975
195.127	-1.00321
195.676	9.02893
196.225	-10.02675
196.773	-16.04483
197.321	-24.06745
197.87	-20.05258
198.418	18.04735
198.966	7.01885
199.513	29.07522
200.061	19.04933
200.609	-7.01891
201.156	-8.01809
201.704	-24.0622
202.251	8.02172
202.798	13.03442
203.345	29.07337
203.892	-5.01297
204.438	-33.08095
204.985	-18.04413
205.532	-26.07026
206.078	-35.0883
206.624	39.09983
207.17	46.11014
207.716	19.04775
208.262	2.00411
208.808	26.0668
209.354	3.00762
209.899	6.01547
210.445	-11.02831
210.99	-11.02766
211.535	11.02664
212.08	-1.00239
212.625	13.03323
213.17	58.1501
213.715	53.12363
214.259	23.05506
214.804	-13.03277
215.348	24.05692
215.892	44.10896
216.436	-1.00235
216.98	-12.0272
217.524	22.05388
218.068	33.08492
218.612	63.1625
219.155	26.06287
219.698	22.05352
220.242	-13.03291
220.785	11.02649
221.328	22.05541
221.871	56.14462
222.414	-4.01012
222.956	-51.12604
223.499	-13.02981
224.041	11.02569
224.583	-16.03475
225.126	7.01573
225.668	7.01736
226.21	-25.06493
226.751	42.09524
227.293	-28.0652
227.835	30.07475
228.376	-38.08907
228.918	3.00761
229.459	34.0861
230	69.16738
230.541	-6.01414
231.082	30.07426
231.622	2.00463
232.163	11.02703
232.704	58.14677
233.244	-11.02791
233.784	-22.05462
234.324	40.09163
234.864	-28.06509
235.404	-7.01685
235.944	7.01681
236.484	23.05834
237.023	-24.05806
237.563	7.01664
238.102	33.07927
238.641	-18.04624
239.18	-14.03371
239.719	-1.00255
240.258	-22.05082
240.797	7.01707
241.335	14.03464
241.874	11.02204
242.412	25.06183
242.95	-9.02228
243.488	-30.06933
244.026	33.07812
244.564	49.10258
245.102	39.08993
245.64	-26.06368
246.177	-4.0091
246.715	28.0684
247.252	-4.00929
247.789	68.12781
248.326	46.1124
248.863	-4.00904
249.4	18.04163
249.936	52.11086
250.473	30.07221
251.009	-33.07782
251.546	32.07289
252.082	-51.11408
252.618	22.05023
253.154	52.12674
253.69	-1.0023
254.226	28.06822
254.761	-14.03229
255.297	3.00671
255.832	0
256.367	3.00721
256.903	40.09056
257.438	-3.0072
257.972	7.01595
258.507	-38.08987
259.042	-7.01565
259.576	10.0227
260.111	-19.04481
260.645	32.07047
261.179	-14.03367
261.713	-15.03456
262.247	4.00934
262.781	21.04532
263.315	-22.0547
263.849	15.03825
264.382	-29.06857
264.915	33.07948
265.449	-13.0325
265.982	-19.04439
266.515	-1.00251
267.048	11.02391
267.58	-17.03774
268.113	0
268.646	-18.04511
269.178	-5.01147
269.71	12.0272
270.243	58.13627
270.775	37.09633
271.307	-24.05856
271.838	65.15501
272.37	-24.06032
272.902	9.02084
273.433	43.0971
273.965	6.01488
274.496	1.00253
275.027	50.12607
275.558	9.02244
276.089	22.05597
276.62	-6.01544
277.15	17.04255
277.681	33.07238
278.211	32.07924
278.741	-18.04122
279.272	28.06538
279.802	-3.00762
280.332	-14.03396
280.861	1.00244
281.391	-12.02804
281.921	11.02682
282.45	-2.00506
282.98	37.09772
283.509	54.12484
284.038	28.0654
284.567	51.1206
285.096	25.0618
285.625	-30.06963
286.153	42.1021
286.682	-16.03786
287.21	-32.0784
287.739	2.00484
288.267	-26.06514
288.795	-19.05075
289.323	9.02164
289.851	19.04569
290.378	-7.01604
290.906	19.04745
291.433	8.02036
291.961	37.08624
292.488	9.02278
293.015	13.03142
293.542	91.23554
294.069	40.10079
294.596	-6.01501
295.122	56.13633
295.649	-3.00675
296.175	13.03195
296.702	69.17077
297.228	21.05155
297.754	21.04837
298.28	50.11716
298.806	48.11751
299.332	32.07327
299.857	13.03031
300.383	14.03591
300.908	44.11003
301.433	42.10476
301.958	12.02819
302.483	-1.00254
303.008	72.18116
303.533	3.0079
304.058	-12.02877
304.582	25.06037
305.107	-5.0133
305.631	12.02791
306.155	7.01674
306.679	-10.02422
307.203	13.03095
307.727	13.03156
308.251	30.07546
308.775	86.21155
309.298	1.00247
309.822	1.00257
310.345	64.15534
310.868	24.05919
311.391	76.1893
311.914	5.01283
312.437	19.04456
312.96	-9.02184
313.482	20.04811
314.005	9.02296
314.527	11.02917
315.049	45.11579
315.571	66.15131
316.093	88.22006
316.615	-24.05939
317.137	46.10262
317.659	8.01987
318.18	-1.00245
318.702	51.1219
319.223	14.02948
319.744	52.1196
320.265	34.08462
320.786	-11.02828
321.307	25.06309
321.828	8.0186
322.348	24.0579
322.869	41.09983
323.389	-14.02872
323.909	5.01177
324.43	12.02942
324.95	19.04472
325.47	79.19852
325.989	59.14264
326.509	23.05306
327.029	61.14229
327.548	1.00234
328.067	4.00999
328.587	90.22831
329.106	8.01859
329.625	42.11116
330.144	60.14246
330.662	40.09625
331.181	67.16113
331.7	-9.02162
332.218	39.08709
332.736	60.14339
333.255	80.19162
333.773	24.05819
334.291	52.13257
334.808	51.11788
335.326	61.14016
335.844	71.17036
336.361	99.25757
336.879	59.14199
337.396	77.19078
337.913	52.12313
338.43	53.1226
338.947	17.04181
339.464	32.07133
339.981	28.06822
340.497	55.13791
341.014	39.09733
341.53	36.08359
342.046	141.35406
342.562	43.10949
343.078	58.13967
343.594	39.0951
344.11	71.17346
344.626	61.15685
345.141	68.15921
345.657	82.1895
346.172	63.15523
346.687	59.1387
347.202	100.23257
347.717	55.13422
348.232	96.24223
348.747	89.20956
349.261	83.18665
349.776	71.17243
350.29	100.25368
350.805	59.14874
351.319	91.21535
351.833	65.1534
352.347	71.17133
352.861	106.25264
353.374	102.23591
353.888	108.26753
354.401	32.07513
354.915	97.22367
355.428	103.25994
355.941	68.16201
356.454	40.09178
356.967	10.02411
357.48	55.12804
357.993	116.28819
358.505	44.10955
359.018	90.224
359.53	89.22091
360.042	66.1518
360.554	129.31867
361.066	56.13923
361.578	113.25432
362.09	94.22738
362.602	111.25207
363.113	147.34881
363.625	133.30583
364.136	87.19557
364.647	97.23398
365.158	112.26458
365.669	67.16345
366.18	48.11594
366.691	124.27593
367.201	85.20736
367.712	113.26295
368.222	109.25525
368.733	97.21572
369.243	110.25056
369.753	79.18608
370.263	131.31933
370.773	86.21265
371.282	151.36285
371.792	124.29122
372.301	63.15535
372.811	138.36291
373.32	149.32668
373.829	82.19701
374.338	127.28642
374.847	107.25105
375.356	125.29786
375.865	164.35524
376.373	152.34861
376.882	154.39038
377.39	128.31149
377.898	99.24636
378.407	176.40106
378.915	218.47563
379.423	141.33057
379.93	275.62776
380.438	149.3594
380.946	155.36253
381.453	256.60449
381.96	223.52749
382.468	246.57073
382.975	255.61412
383.482	235.5213
383.989	277.69525
384.495	318.72166
385.002	278.57435
385.509	336.77579
386.015	380.74774
386.521	332.73169
387.028	378.82293
387.534	328.68008
388.04	405.92817
388.546	324.6931
389.051	473.97566
389.557	436.95199
390.063	471.99465
390.568	497.10858
391.073	459.95444
391.578	509.14942
392.084	531.11064
392.589	578.13514
393.093	663.41715
393.598	731.47498
394.103	736.5384
394.607	757.59525
395.112	883.85204
395.616	976.98028
396.12	1024.92417
396.624	1119.13195
397.128	1235.35242
397.632	1326.41167
398.136	1399.43856
398.639	1598.7202
399.143	1788.1
399.646	1969.06564
400.15	2124.08562
400.653	2465.14636
401.156	2712.14473
401.659	3260.57766
402.162	3955.07627
402.664	5717.35183
403.167	9245.00305
403.67	23697.62089
404.172	59198.40863
404.674	63858.43483
405.176	63738.15102
405.678	63977.72923
406.18	64011.81569
406.682	63863.44694
407.184	63926.60148
407.686	30935.69381
408.187	16396.74744
408.688	10274.58023
409.19	7633.96124
409.691	6223.29013
410.192	5412.5765
410.693	4711.28482
411.194	4391.74737
411.694	4111.19836
412.195	3687.69638
412.696	3503.30895
413.196	3215.73635
413.696	3330.44814
414.196	3278.98061
414.696	3175.66648
415.196	3045.31841
415.696	2594.0948
416.196	2010.04237
416.695	1667.78962
417.195	1453.62968
417.694	1464.22552
418.194	1255.04842
418.693	1263.25111
419.192	1222.27778
419.691	1189.19703
420.19	1156.23604
420.688	1127.24345
421.187	1027.69897
421.685	936.83006
422.184	877.76428
422.682	724.3803
423.18	626.29146
423.678	575.19114
424.176	545.13393
424.674	552.11613
425.172	470.02251
425.669	431.98814
426.167	418.90922
426.664	361.77708
427.161	322.70817
427.659	320.74297
428.156	366.73919
428.652	296.7181
429.149	314.73134
429.646	262.56726
430.143	271.62884
430.639	281.64353
431.135	237.57726
431.632	212.47546
432.128	197.46491
432.624	227.57121
433.12	194.43581
433.616	203.43793
434.111	156.36695
434.607	174.41088
435.103	148.30866
435.598	155.32074
436.093	156.35964
436.588	145.3242
437.083	138.3076
437.578	132.30407
438.073	118.2938
438.568	170.4123
439.062	113.242
439.557	106.2473
440.051	121.27088
440.546	90.20484
441.04	127.30274
441.534	89.22357
442.028	126.30122
442.522	91.21818
443.015	23.05015
443.509	87.21128
444.002	77.1884
444.496	76.16561
444.989	78.18918
445.482	61.1513
445.975	91.21026
446.468	35.0768
446.961	142.30548
447.454	-5.01143
447.947	35.08423
448.439	123.29882
448.931	117.26688
449.424	124.3121
449.916	64.15633
450.408	84.19204
450.9	29.07096
451.392	72.18239
451.884	60.13838
452.375	15.03745
452.867	25.05682
453.358	48.11062
453.849	60.12908
454.341	44.10006
454.832	51.11097
455.323	128.31487
455.814	7.01623
456.304	69.15974
456.795	-14.03253
457.285	47.10413
457.776	58.13254
458.266	52.1237
458.756	-13.03116
459.247	46.11035
459.737	42.10198
460.226	60.13711
460.716	51.12214
461.206	43.10317
461.695	34.08429
462.185	38.0906
462.674	37.08508
463.163	27.06112
463.653	22.04741
464.142	35.08513
464.63	53.12838
465.119	19.04455
465.608	60.14059
466.096	26.05694
466.585	3.00693
467.073	-11.02627
467.561	-11.02669
468.05	12.02788
468.538	22.05398
469.026	14.03343
469.513	7.01497
470.001	8.01856
470.489	3.0072
470.976	70.16312
471.463	16.04001
471.951	27.06724
472.438	36.08478
472.925	11.0261
473.412	11.02684
473.899	47.10795
474.385	44.10768
474.872	13.03054
475.359	32.07883
475.845	-1.0021
476.331	-23.04987
476.817	44.10704
477.303	0
477.789	-13.0313
478.275	22.05476
478.761	-25.06014
479.247	32.07171
479.732	21.05256
480.218	29.07602
480.703	-3.00745
481.188	-11.02418
481.673	21.04858
482.158	32.06961
482.643	49.12485
483.128	24.05628
483.612	88.20813
484.097	-6.0146
484.581	17.03959
485.066	18.0443
485.55	34.0756
486.034	29.06329
486.518	62.14805
487.002	-20.04916
487.486	12.02928
487.969	-7.01716
488.453	-8.02006
488.936	5.01137
489.42	2.00447
489.903	-34.08567
490.386	-53.11238
490.869	48.10544
491.352	-21.05111
491.835	-15.03122
492.318	-3.00682
492.8	21.0439
493.283	33.08426
493.765	-50.12463
494.247	37.0863
494.73	55.12176
495.212	-44.10603
495.694	21.04977
496.175	-10.02429
496.657	77.18123
497.139	21.03651
497.62	75.17941
498.102	51.12673
498.583	17.0419
499.064	38.08502
499.545	23.05272
500.026	57.12892
500.507	41.09454
500.988	80.19854
501.469	43.10704
501.949	82.20089
502.43	122.28988
502.91	139.29008
503.39	152.36892
503.87	144.33423
504.35	148.3393
504.83	102.22085
505.31	180.42257
505.79	164.37869
506.269	186.4151
506.749	207.45804
507.228	284.63797
507.707	313.66131
508.187	358.80451
508.666	354.82708
509.145	380.83079
509.623	430.93135
510.102	504.11101
510.581	533.16498
511.059	543.24075
511.538	559.30651
512.016	668.40844
512.494	709.4855
512.972	790.62005
513.45	863.68835
513.928	966.93862
514.406	1028.05406
514.884	1079.26664
515.361	1162.18266
515.839	1294.24113
516.316	1407.53968
516.793	1458.73113
517.27	1515.62126
517.747	1591.95287
518.224	1686.62566
518.701	1774.53768
519.178	1770.03186
519.654	1898.89774
520.131	1956.14169
520.607	1888.02437
521.083	1876.6994
521.56	2001.94527
522.036	1871.54196
522.512	1859.05133
522.987	1893.97163
523.463	1743.78328
523.939	1776.00385
524.414	1741.6448
524.89	1679.75544
525.365	1597.48204
525.84	1523.63104
526.315	1438.5651
526.79	1350.24178
527.265	1349.31418
527.74	1240.32732
528.215	1112.04769
528.689	1081.85863
529.164	985.69037
529.638	969.04154
530.112	947.83459
530.587	836.48881
531.061	890.80892
531.534	824.69061
532.008	815.69429
532.482	739.46385
532.956	653.48282
533.429	701.50491
533.903	587.14119
534.376	564.11333
534.849	503.05058
535.322	559.18685
535.795	463.02836
536.268	496.09791
536.741	399.88356
537.213	433.92002
537.686	408.93186
538.158	419.88369
538.631	387.87803
539.103	337.71825
539.575	299.58294
540.047	305.63056
540.519	372.83459
540.991	310.71947
541.463	275.63358
541.934	254.55112
542.406	265.61152
542.877	226.49288
543.348	241.56167
543.82	209.49342
544.291	222.50178
544.762	209.48326
545.233	213.52461
545.703	159.34698
546.174	179.4055
546.645	147.34988
547.115	195.45877
547.585	164.36963
548.056	161.38879
548.526	170.39551
548.996	119.28139
549.466	140.3352
549.935	153.35954
550.405	99.21632
550.875	155.36182
551.344	91.21585
551.814	128.28991
552.283	152.32643
552.752	127.29448
553.221	102.22415
553.69	127.28419
554.159	136.3343
554.628	151.33734
555.096	108.27261
555.565	83.18328
556.033	115.27204
556.502	131.31228
556.97	79.17576
557.438	95.22194
557.906	75.1768
558.374	119.27353
558.842	149.35151
559.31	133.2943
559.777	154.37041
560.245	59.13567
560.712	111.25218
561.18	123.26967
561.647	48.10704
562.114	137.30998
562.581	97.23725
563.048	139.31412
563.514	161.39699
563.981	105.23893
564.448	122.27306
564.914	157.35827
565.381	187.41759
565.847	163.37256
566.313	149.34015
566.779	132.29349
567.245	139.31732
567.711	196.45743
568.176	124.27536
568.642	183.45056
569.108	183.43974
569.573	172.38972
570.038	149.30667
570.504	242.52799
570.969	189.45709
571.434	223.48004
571.899	229.52572
572.363	254.56121
572.828	276.60854
573.293	265.58368
573.757	271.60415
574.222	233.50523
574.686	331.722
575.15	291.6707
575.614	355.79204
576.078	272.61303
576.542	295.64212
577.006	290.62654
577.469	316.74035
577.933	319.69111
578.396	235.53906
578.86	294.66152
579.323	318.72985
579.786	324.66638
580.249	316.70926
580.712	234.55062
581.175	260.61726
581.637	274.59958
582.1	252.52881
582.563	218.44918
583.025	270.6316
583.487	277.5457
583.95	209.43539
584.412	246.49821
584.874	208.49363
585.336	254.58088
585.797	228.48035
586.259	173.39653
586.721	210.47911
587.182	223.49838
587.643	239.52487
588.105	192.44263
588.566	167.3417
589.027	208.49591
589.488	184.41301
589.949	178.42309
590.41	177.34344
590.87	207.46129
591.331	178.38112
591.791	155.35313
592.252	190.43243
592.712	124.29384
593.172	168.37508
593.632	173.37722
594.092	152.33347
594.552	164.34902
595.011	87.19869
595.471	172.38243
595.931	133.29688
596.39	108.25731
596.849	94.21792
597.308	63.13469
597.768	127.32371
598.227	98.23402
598.685	69.15739
599.144	125.29157
599.603	46.10804
600.062	62.13126
600.52	144.32084
600.978	54.12791
601.437	129.28998
601.895	87.18624
602.353	38.08414
602.811	107.23983
603.269	60.14284
603.727	123.29197
604.184	95.21556
604.642	64.1572
605.099	64.14967
605.557	74.17948
606.014	42.09117
606.471	50.12562
606.928	81.17991
607.385	52.13041
607.842	38.08771
608.299	48.1126
608.755	67.1621
609.212	45.10099
609.668	80.18024
610.125	98.23447
610.581	68.15927
611.037	-9.02049
611.493	11.02593
611.949	59.14377
612.405	58.11876
612.861	14.03251
613.316	4.00968
613.772	68.15565
614.227	69.16556
614.683	76.1609
615.138	22.05197
615.593	44.10245
616.048	97.22037
616.503	27.06587
616.958	44.11031
617.412	39.09293
617.867	24.05416
618.321	59.12203
618.776	67.14745
619.23	24.05656
619.684	18.0405
620.138	69.15746
620.592	35.08513
621.046	82.19274
621.5	-7.01703
621.954	8.01787
622.407	-7.01568
622.861	2.0049
623.314	41.09303
623.768	61.1438
624.221	6.01197
624.674	35.08113
625.127	22.05143
625.58	18.04069
626.033	63.13743
626.485	20.04807
626.938	68.16126
627.39	95.22011
627.843	60.138
628.295	16.03712
628.747	50.11912
629.199	9.02065
629.651	12.02771
630.103	50.11463
630.555	5.01064
631.006	32.07457
631.458	59.13838
631.909	42.09412
632.361	26.06018
632.812	15.03492
633.263	46.0999
633.714	17.03623
634.165	35.08395
634.616	-9.02147
635.067	39.08598
635.518	75.17652
635.968	28.05528
636.419	49.10698
636.869	52.12279
637.319	34.07901
637.769	22.04969
638.219	24.05676
638.669	12.02866
639.119	-2.00482
639.569	37.08871
640.019	33.07634
640.468	4.00904
640.918	46.10884
641.367	5.01128
641.816	41.09114
642.265	70.16235
642.714	25.05749
643.163	25.05797
643.612	56.13674
644.061	28.06013
644.51	63.14382
644.958	74.16242
645.406	23.0551
645.855	-14.03429
646.303	33.07634
646.751	54.12464
647.199	38.08617
647.647	36.08366
648.095	30.06853
648.543	58.11736
648.99	54.1293
649.438	2.00466
649.885	72.17823
650.333	45.08748
650.78	-3.0073
651.227	33.08077
651.674	43.09809
652.121	53.12958
652.568	51.12455
653.015	21.05203
653.461	14.03342
653.908	76.17312
654.354	39.09276
654.801	9.02122
655.247	12.02614
655.693	34.08826
656.139	-13.03129
656.585	38.09064
657.031	27.06357
657.477	71.15422
657.922	14.03195
658.368	61.14898
658.813	-8.01834
659.259	24.05827
659.704	48.11352
660.149	12.02779
660.594	65.15328
661.039	9.02062
661.484	24.05692
661.929	28.06548
662.373	13.03269
662.818	19.04704
663.262	16.03879
663.707	51.12912
664.151	63.15254
664.595	57.13713
665.039	52.12839
665.483	22.05597
665.927	28.06571
666.371	41.09631
666.814	54.12762
667.258	55.13192
667.701	60.12725
668.145	83.20429
668.588	83.20346
669.031	3.00709
669.474	23.05521
669.917	54.11777
670.36	61.15119
670.803	69.16537
671.245	-8.01652
671.688	39.09461
672.13	-4.00912
672.573	70.17511
673.015	22.05308
673.457	19.04146
673.899	34.08206
674.341	29.06977
674.783	48.11449
675.225	37.0908
675.666	45.1097
676.108	19.04117
676.549	-40.09431
676.991	14.03082
677.432	37.07337
677.873	20.04569
678.314	14.03335
678.755	90.21902
679.196	-3.00689
679.637	-23.05546
680.078	57.13217
680.518	15.03446
680.959	-4.00956
681.399	15.03711
681.839	-5.01218
682.28	41.1014
682.72	7.01604
683.16	-7.01753
683.6	44.09958
684.039	2.00415
684.479	12.02964
684.919	66.15386
685.358	-7.01747
685.798	30.07775
686.237	28.06656
686.676	3.0068
687.115	34.07979
687.554	37.08814
687.993	89.1939
688.432	20.04558
688.871	30.06858
689.309	34.08119
689.748	-8.01674
690.186	14.0327
690.625	14.03287
691.063	-9.02154
691.501	16.03949
691.939	50.1249
692.377	-31.07565
692.815	41.09965
693.253	15.03562
693.69	-2.00439
694.128	22.05324
694.565	11.02602
695.003	53.13419
695.44	33.07776
695.877	37.08654
696.314	-3.00633
696.751	-2.00454
697.188	37.08525
697.625	-22.04946
698.061	-16.03843
698.498	-10.02367
698.934	7.0167
699.371	-3.00707
699.807	13.0306
700.243	8.01926
700.679	45.09937
701.115	0
701.551	4.00928
701.987	0
702.422	18.0428
702.858	23.0546
703.294	76.17165
703.729	28.06763
704.164	6.01428
704.599	77.16925
705.035	-15.03375
705.47	9.02178
705.904	11.02539
706.339	25.05703
706.774	7.01635
707.209	31.07165
707.643	25.05941
708.078	-7.01701
708.512	7.01749
708.946	32.07513
709.38	60.14064
709.814	5.01128
710.248	25.06074
710.682	35.08337
711.116	55.13237
711.549	-29.07413
711.983	-16.03699
712.416	8.01892
712.85	17.04181
713.283	13.03053
713.716	12.02955
714.149	-20.04633
714.582	19.04243
715.015	-3.00733
715.448	41.10214
715.881	19.04048
716.313	30.06941
716.746	13.0306
717.178	-1.0024
717.61	47.11806
718.043	-4.00984
718.475	60.14339
718.907	48.11816
719.339	-16.03628
719.77	58.13691
720.202	1.00249
720.634	2.00489
721.065	-9.02114
721.497	37.08952
721.928	-5.01217
722.359	-22.05358
722.79	36.08521
723.221	-16.03959
723.652	-24.06086
724.083	-22.04944
724.514	51.1154
724.945	-2.00466
725.375	30.06941
725.806	-16.03929
726.236	22.05563
726.666	3.00703
727.096	-12.02922
727.526	32.08155
727.956	-5.01139
728.386	9.02187
728.816	6.01526
729.246	61.14809
729.675	-54.1321
730.105	1.00243
730.534	14.0323
730.964	10.0247
731.393	-11.02678
731.822	12.03039
732.251	19.04771
732.68	9.02062
733.109	25.06096
733.537	48.11567
733.966	49.12051
734.395	8.01834
734.823	-36.07951
735.251	-25.05987
735.68	1.00244
736.108	23.05674
736.536	-3.00697
736.964	27.06171
737.392	7.01732
737.82	-11.02607
738.247	6.01415
738.675	19.04404
739.102	12.02961
739.53	61.15417
739.957	37.09448
740.384	-38.09123
740.811	-22.0544
741.238	38.09189
741.665	17.03958
742.092	-102.23675
742.519	-6.0148
742.945	39.09347
743.372	1.00247
743.798	-32.08161
744.225	-31.07305
744.651	-9.02233
745.077	38.0932
745.503	-30.07208
745.929	19.04552
746.355	27.06464
746.781	-9.02191
747.207	30.07032
747.632	9.02216
748.058	40.09934
748.483	-2.00456
748.908	-12.0297
749.334	35.08503
749.759	10.02361
750.184	-6.01437
750.609	-11.02672
751.033	5.01152
751.458	31.06788
751.883	0
752.307	1.00233
752.732	29.07324
753.156	2.00487
753.58	14.03253
754.005	7.01734
754.429	17.03986
754.853	30.07366
755.277	11.02584
755.7	22.05384
756.124	-21.05192
756.548	-28.06579
756.971	28.06725
757.394	-34.08647
757.818	30.07627
758.241	1.00252
758.664	-21.0527
759.087	15.03344
759.51	-4.00976
759.933	22.05254
760.356	29.07382
760.778	-16.03902
761.201	15.03569
761.623	-3.00705
762.046	0
762.468	17.04004
762.89	-6.01446
763.312	30.0723
763.734	1.00239
764.156	-3.00733
764.578	2.00449
765	34.08138
765.421	-61.15592
765.843	27.06952
766.264	-13.03042
766.686	-6.0147
767.107	0
767.528	13.03302
767.949	4.01002
768.37	28.06837
768.791	6.01416
769.212	-23.05763
769.632	-23.05356
770.053	-24.06218
770.473	2.00475
770.894	-30.07309
771.314	-13.03026
771.734	-18.04151
772.154	-10.02521
772.575	30.06764
772.994	-40.08993
773.414	-4.00937
773.834	-17.04186
774.254	-24.05797
774.673	9.02173
775.093	14.03436
775.512	-22.05388
775.931	-5.01253
776.351	16.03932
776.77	1.00243
777.189	2.00468
777.607	14.03517
778.026	50.12172
778.445	-8.0201
778.864	-28.07017
779.282	-54.12786
779.701	9.0222
780.119	4.01
780.537	-40.09872
780.955	23.05694
781.373	-3.0073
781.791	39.0867
782.209	-66.14803
782.627	-4.0104
783.045	-32.07189
783.462	11.02761
783.88	-19.0487
784.297	10.02474
784.715	4.01017
785.132	-31.07373
785.549	-25.06171
785.966	35.08611
786.383	12.02916
786.8	3.00683
787.217	-13.0307
787.633	32.07901
788.05	18.04085
788.466	11.02502
788.883	25.06309
789.299	-16.03739
789.715	56.13296
790.131	-6.01468
790.547	-5.01225
790.963	0
791.379	-6.01494
791.795	-26.05774
792.21	10.0227
792.626	8.01841
793.041	9.02171
793.457	-6.01446
793.872	-16.03662
794.287	17.04039
794.702	4.00949
795.117	1.00245
795.532	-25.06237
795.947	-22.05127
796.362	-11.02518
796.776	11.02461
797.191	7.01682
797.605	-21.04922
798.02	29.06865
798.434	6.01304
798.848	54.13107
799.262	-28.0685
799.676	21.04997
800.09	-23.05563
800.504	-33.07846
800.918	-36.08127
801.331	-56.14186
801.745	10.02225
802.158	2.00485
802.572	16.03784
802.985	16.0373
803.398	-4.0093
803.811	-6.01479
804.224	-15.03611
804.637	0
805.05	-16.036
805.462	-21.05033
805.875	-4.01022
806.288	5.01188
806.7	-15.03658
807.112	-25.05629
807.525	-51.12209
807.937	-5.01214
808.349	-2.00486
808.761	10.02412
809.173	13.03087
809.584	-24.05786
809.996	-49.1182
810.408	-2.00512
810.819	6.01379
811.231	30.07844
811.642	8.01947
812.053	6.01433
812.464	-22.05108
812.875	36.08999
813.286	26.06589
813.697	-20.04451
814.108	8.01894
814.519	52.11278
814.929	44.10844
815.34	-31.07299
815.75	-10.02514
816.16	-46.11136
816.571	-30.07635
816.981	1.00227
817.391	-9.02101
817.801	-1.00244
818.211	17.03925
818.62	21.04943
819.03	-7.01671
819.44	-33.08319
819.849	-18.04392
820.259	-12.02972
820.668	2.00482
821.077	-6.01472
821.486	-27.06281
821.895	-12.02851
822.304	-10.02591
822.713	8.0183
823.122	27.06525
823.531	-56.12864
823.939	4.00954
824.348	23.05386
824.756	-7.01702
825.164	17.04136
825.573	-15.03687
825.981	3.0072
826.389	17.04143
826.797	34.08416
827.205	49.10924
827.612	-22.0528
828.02	-68.15658
828.428	-3.00745
828.835	6.01554
829.243	-21.0485
829.65	0
830.057	15.03514
830.464	-12.02894
830.871	49.11362
831.278	44.10273
831.685	12.02578
832.092	-26.06161
832.499	43.09093
832.905	-11.027
833.312	-61.13397
833.718	42.10198
834.124	-1.00223
834.531	-29.07085
834.937	4.01005
835.343	-3.00698
835.749	29.06433
836.155	-34.08747
836.561	-11.02644
836.966	-1.00237
837.372	-15.03711
837.777	14.03403
838.183	0
838.588	19.04613
838.993	-9.02137
839.399	12.02864
839.804	-21.05016
840.209	9.0226
840.613	-7.01508
841.018	-37.09137
841.423	-13.03263
841.828	36.08866
842.232	-13.03082
842.637	29.0669
843.041	-35.08855
843.445	-52.12721
843.849	19.04585
844.253	19.04353
844.657	-4.00989
845.061	61.13515
845.465	8.01877
845.869	20.04491
846.272	8.01904
846.676	-71.166
847.079	-3.00751
847.483	16.0386
847.886	11.02569
848.289	11.02903
848.692	-16.03929
849.095	-23.05365
849.498	11.02665
849.901	-15.03314
850.304	8.01851
850.707	7.01729
851.109	-10.02453
851.512	19.0454
851.914	-4.00991
852.316	9.0224
852.718	30.07724
853.121	0
853.523	4.00899
853.925	44.11241
854.326	5.01225
854.728	2.00503
855.13	7.01778
855.531	-20.04675
855.933	-36.08359
856.334	34.08274
856.736	-13.0286
857.137	38.08593
857.538	3.0074
857.939	18.0438
858.34	-21.04935
858.741	-8.02034
859.142	-33.077
859.542	39.10053
859.943	-34.08265
860.343	-32.07817
860.744	18.04251
861.144	34.08088
861.544	12.02839
861.945	0
862.345	-13.0308
862.745	23.05582
863.145	14.03171
863.544	0
863.944	-20.046
864.344	-22.0526
864.743	14.03361
865.143	30.0754
865.542	-67.15055
865.941	7.0169
866.34	-10.02296
866.74	0
867.139	11.02591
867.537	-11.02701
867.936	17.03979
868.335	-8.01979
868.734	-13.0325
869.132	-39.08731
869.531	-2.00463
869.929	-6.01334
870.327	-8.01864
870.726	-2.00479
871.124	32.07136
871.522	-3.00741
871.92	20.04776
872.318	-15.03543
872.715	22.05183
873.113	-31.07333
873.511	-5.01207
873.908	12.02995
874.306	11.02679
874.703	-18.04346
875.1	-47.11619
875.497	-37.0863
875.894	2.00486
876.291	27.06419
876.688	10.02512
877.085	-17.03939
877.482	3.00729
877.878	-3.00712
878.275	16.03956
878.671	-47.09874
879.068	33.07673
879.464	15.03506
879.86	-6.01377
880.256	-52.1237
880.652	-6.01486
881.048	-28.06697
881.444	-54.12395
881.84	-14.03464
882.236	48.11611
882.631	48.11405
883.027	21.04889
883.422	-10.02475
883.817	-52.12943
884.213	-3.0075
884.608	59.14232
885.003	-63.14782
885.398	-32.07843
885.793	-35.08554
886.188	-55.13397
886.582	3.00741
886.977	10.02278
887.371	-49.12065
887.766	-12.02927
888.16	-50.12013
888.554	3.00714
888.949	16.03889
889.343	27.06328
889.737	4.0105
890.131	-26.06372
890.525	40.09956
890.918	-26.06384
891.312	20.04567
891.706	-16.04091
892.099	-2.00493
892.492	28.05746
892.886	-18.04277
893.279	-2.00494
893.672	-6.01499
894.065	-8.01952
894.458	-16.03879
894.851	-6.01417
895.244	-28.06987
895.637	4.00937
896.029	15.03574
896.422	-40.09427
896.814	-7.01686
897.206	17.03972
897.599	17.04062
897.991	25.05877
898.383	3.00688
898.775	20.04404
899.167	7.01605
899.559	-13.03175
899.951	18.04052
900.342	-34.0837
900.734	19.04683
901.125	15.03794
901.517	-24.05757
901.908	-35.08055
902.299	-10.02386
902.69	3.00692
903.082	21.04912
903.473	38.08911
903.863	-18.04452
904.254	23.05213
904.645	-35.08388
905.036	15.03591
905.426	-14.03056
905.817	-44.10487
906.207	-26.05961
906.597	-9.02065
906.987	-21.05268
907.378	26.06401
907.768	-3.00776
908.158	6.01414
908.547	17.04327
908.937	-55.13677
909.327	0
909.717	-24.05843
910.106	-7.01623
910.495	12.02866
910.885	39.0956
911.274	-13.03157
911.663	-36.08849
912.052	4.00945
912.441	26.06452
912.83	8.01758
913.219	-24.06114
913.608	36.08534
913.997	2.00492
914.385	59.13496
914.774	2.00471
915.162	10.02334
915.55	-5.01164
915.939	-56.13999
916.327	-45.109
916.715	11.02766
917.103	13.03037
917.491	-30.07213
917.878	-9.02144
918.266	3.00753
918.654	20.04994
919.041	12.03087
919.429	-3.00686
919.816	-2.00492
920.203	23.05443
920.591	35.08388
920.978	43.10125
921.365	-11.02829
921.752	-66.1518
922.139	37.07684
922.525	3.00701
922.912	2.00471
923.299	-14.03393
923.685	-26.06568
924.072	-44.09633
924.458	-23.05584
924.844	-38.09199
925.231	-48.10801
925.617	8.01999
926.003	2.00495
926.389	1.00245
926.774	23.05615
927.16	28.06697
927.546	30.07537
927.931	-10.02409
928.317	-34.0756
928.702	42.09482
929.088	35.08158
929.473	12.02988
929.858	41.09729
930.243	9.02114
930.628	12.02858
931.013	-10.02414
931.398	-33.07244
931.783	-28.07128
932.167	22.05256
932.552	0
932.937	9.02149
933.321	-14.03453
933.705	-40.09745
934.09	-9.02163
934.474	-7.01594
934.858	2.00506
935.242	-81.18387
935.626	-12.03011
936.009	8.02094
936.393	51.12687
936.777	25.06239
937.16	16.04076
937.544	-27.06077
937.927	7.01735
938.311	-9.02116
938.694	49.12556
939.077	-27.06293
939.46	-25.05836
939.843	-25.04909
940.226	-19.04726
940.609	3.00674
940.991	-29.07161
941.374	8.01907
941.757	-27.06464
942.139	13.02825
942.522	2.00454
942.904	27.06256
943.286	22.05386
943.668	35.08868
944.05	1.00239
944.432	-12.02866
944.814	-26.06171
945.196	-11.02629
945.578	-4.00939
945.959	-12.02695
946.341	7.01628
946.722	-11.02486
947.104	11.02542
947.485	27.06044
947.866	16.0394
948.247	0
948.628	-39.0909
949.009	8.01989
949.39	-13.03124
949.771	-12.02634
950.152	46.10867
950.532	28.06852
950.913	10.02327
951.293	23.06097
951.674	23.05365
952.054	46.11194
952.434	14.0337
952.814	-10.02277
953.194	-2.00502
953.574	-1.00237
953.954	-57.13091
954.334	14.03412
954.714	-13.03097
955.093	31.07339
955.473	32.07817
955.853	-18.0455
956.232	14.03729
956.611	-12.02751
956.99	0
957.37	-15.03696
957.749	-41.09375
958.128	-14.03458
958.506	-11.02788
958.885	-2.00488
959.264	-11.02657
959.643	29.06382
960.021	-5.01213
960.4	32.06941
960.778	13.03044
961.156	-14.03399
961.535	-10.02231
961.913	43.09706
962.291	-3.00759
962.669	-11.02728
963.047	2.00499
963.424	53.13213
963.802	-22.05282
964.18	13.03128
964.557	2.00442
964.935	36.08177
965.312	-25.06404
965.69	-27.06523
966.067	-2.00466
966.444	-52.12284
966.821	33.08233
967.198	5.01158
967.575	-3.00709
967.952	5.01134
968.329	5.01186
968.705	89.18144
969.082	37.09304
969.458	-1.00236
969.835	1.00236
970.211	-3.00758
970.587	-1.00242
970.963	12.02955
971.339	30.07624
971.715	23.05561
972.091	-31.07432
972.467	-13.03101
972.843	8.01948
973.219	53.12041
973.594	-36.09226
973.97	11.02452
974.345	-12.02801
974.721	-35.08122
975.096	19.04477
975.471	15.03413
975.846	-33.07658
976.221	-2.00494
976.596	31.07285
976.971	27.06481
977.346	-13.02903
977.72	-22.05434
978.095	8.02005
978.469	19.04346
978.844	-18.04374
979.218	10.02356
979.593	3.00691
979.967	-63.14736
980.341	-10.0224
980.715	14.03425
981.089	14.03387
981.463	-27.0602
981.837	31.07396
982.21	-8.01747
982.584	-18.04246
982.957	21.05104
983.331	-30.06781
983.704	35.08395
984.078	6.01428
984.451	-13.03085
984.824	20.04736
985.197	-20.0464
985.57	-28.06727
985.943	-44.10402
986.316	12.02796
986.688	-1.00233
987.061	32.0723
987.434	27.06909
987.806	-41.09545
988.179	-19.04329
988.551	10.02445
988.923	-13.03088
989.295	6.01443
989.667	28.06548
990.039	24.0583
990.411	-56.12369
990.783	-22.04835
991.155	-41.09665
991.527	-1.00233
991.898	19.046
992.27	1.00242
992.641	32.0768
993.012	-3.00663
993.384	-2.00459
993.755	-48.12064
994.126	-4.00941
994.497	-17.04057
994.868	-10.02191
995.239	-7.01638
995.61	31.07534
995.98	-18.04239
996.351	7.01692
996.722	-22.05015
997.092	-4.00922
997.462	12.0274
997.833	6.01358
998.203	-5.01154
998.573	-51.12488
998.943	13.02956
999.313	1.00233
999.683	28.06491
1000.053	-53.11591
1000.423	6.01397
1000.792	-25.06246
1001.162	-46.10976
1001.531	35.08321
1001.901	-31.07489
1002.27	-54.11492
1002.639	-22.05432
1003.009	-22.05064
1003.378	33.08161
1003.747	1.00226
1004.116	-42.09776
1004.485	-18.0417
1004.853	-36.08771
1005.222	-30.0723
1005.591	34.07713
1005.959	-29.06372
1006.328	32.06926
1006.696	-26.06066
1007.064	-18.04357
1007.433	-14.03369
1007.801	-30.07032
1008.169	-40.09753
1008.537	22.04658
1008.905	-8.01817
1009.273	19.04488
1009.64	11.02569
1010.008	-28.06468
1010.375	7.01608
1010.743	-9.01938
1011.11	33.07658
1011.478	43.10306
1011.845	-3.00677
1012.212	26.05716
1012.579	46.10858
1012.946	3.0068
1013.313	6.01363
1013.68	39.08312
1014.047	-12.02769
1014.414	-46.10567
1014.78	-40.09749
1015.147	-21.04862
1015.513	-10.02334
1015.88	-29.07172
1016.246	1.00235
1016.612	23.04998
1016.978	-22.05278
1017.344	-9.02163
1017.71	16.03731
1018.076	-29.06559
1018.442	52.1291
1018.808	45.10924
1019.174	-53.12924
1019.539	-47.10039
1019.905	-54.12509
1020.27	-32.07674
1020.636	19.04317
1021.001	26.06006
1021.366	28.06499
1021.731	51.12807
1022.096	-4.0099
1022.461	-18.04142
1022.826	36.0828
1023.191	-12.03069
1023.556	-16.03606
1023.92	-42.09964
1024.285	-40.09398
1024.649	7.01645
1025.014	-31.07379
1025.378	10.0245
1025.742	-6.0143
1026.107	16.03457
1026.471	3.0067
1026.835	50.11885
1027.199	-14.03275
1027.562	-26.05788
1027.926	-4.0094
1028.29	-5.01229
1028.654	-37.08222
1029.017	24.057
1029.381	-42.09814
1029.744	-11.02729
1030.107	52.11744
1030.471	15.03481
1030.834	-40.08676
1031.197	-3.00697
1031.56	14.03158
1031.923	7.01759
1032.286	56.12534
1032.648	-5.01137
1033.011	37.08256
1033.374	16.03569
1033.736	9.02301
1034.099	-11.02601
1034.461	1.00247
1034.823	8.01937
1035.185	-13.03145
1035.548	8.0189
1035.91	-35.08132
1036.272	20.04393
1036.634	-14.03318
1036.995	-1.00225
1037.357	18.04246
1037.719	13.03055
1038.08	41.09409
1038.442	1.00229
1038.803	-32.07333
1039.165	-14.03413
1039.526	16.03728
1039.887	7.01613
1040.248	-1.00243
1040.609	9.02122
1040.97	11.02584
1041.331	54.13225
1041.692	33.07534
1042.053	37.07986
1042.413	11.02446
1042.774	13.03056
1043.134	11.02484
1043.495	28.06778
1043.855	45.10587
1044.215	-8.01912
1044.576	17.03945
1044.936	11.02406
1045.296	11.0265
1045.656	-22.05179
1046.016	28.06448
1046.375	-16.03762
1046.735	45.09933
1047.095	1.00226
1047.454	-24.04832
1047.814	28.06473
1048.173	-16.0364
1048.533	2.00441
1048.892	-9.02102
1049.251	-19.04595
1049.61	-17.04068
1049.969	9.02035
1050.328	35.07223
1050.687	-21.04922
1051.046	-10.02347
1051.405	9.0214
1051.763	18.04024
1052.122	-38.09223
1052.48	7.01664
1052.839	38.08719
1053.197	23.05189
1053.555	-45.09721
1053.914	30.07024
1054.272	-31.07108
1054.63	-18.04284
1054.988	-1.00232
1055.345	-44.09025
1055.703	-17.03973
1056.061	30.07543
1056.419	32.08138
1056.776	-54.12544
1057.134	-91.20271
1057.491	17.04112
1057.848	9.0215
1058.206	-21.04697
1058.563	-36.07655
1058.92	9.01982
1059.277	-24.05751
1059.634	15.03337
1059.991	27.06228
1060.348	-25.05493
1060.704	28.06571
1061.061	0
1061.418	-24.05661
1061.774	-2.00478
1062.131	-6.0157
1062.487	-56.12679
1062.843	-15.03626
1063.199	-3.00723
1063.555	28.06283
1063.911	-46.1127
1064.267	67.12913
1064.623	-13.03099
1064.979	-48.10633
1065.335	-11.02516
1065.691	-52.1195
1066.046	2.0042
1066.402	-73.16079
1066.757	2.00489
1067.112	-22.05213
1067.468	-5.01158
1067.823	-82.18905
1068.178	-57.13358
1068.533	-10.02345
1068.888	16.03653
1069.243	9.02145
1069.598	-27.06323
1069.952	12.02658
1070.307	-22.05324
1070.662	43.09912
1071.016	22.04798
1071.371	-20.04425
1071.725	-41.09439
1072.079	34.07864
1072.434	8.01884
1072.788	13.02933
1073.142	5.0119
1073.496	-17.03892
1073.85	-24.05372
1074.203	50.11619
1074.557	7.01833
1074.911	7.01595
1075.265	-16.0359
1075.618	16.03768
1075.971	21.0479
1076.325	18.04459
1076.678	4.00881
1077.031	-102.22161
1077.385	-20.04225
1077.738	4.00865
1078.091	-16.03552
1078.444	-6.01324
1078.796	19.04524
1079.149	14.03369
1079.502	-25.05774
1079.855	-3.00676
1080.207	17.04018
1080.56	-19.04817
1080.912	3.00703
1081.264	0
1081.617	17.04009
1081.969	24.05882
1082.321	-47.11144
1082.673	12.02678
1083.025	-15.03417
1083.377	-20.04545
1083.728	-2.00447
1084.08	-48.11616
1084.432	-35.08167
1084.783	-47.10474
1085.135	-18.04407
1085.486	-12.02669
1085.838	1.00239
1086.189	26.06128
1086.54	-36.0831
1086.891	82.20216
1087.242	63.14932
1087.593	-42.09787
1087.944	41.08944
1088.295	4.00871
1088.646	72.16983
1088.996	-4.00938
1089.347	-5.01179
1089.698	-8.01851
1090.048	-5.01253
1090.398	-21.04672
1090.749	-24.05509
1091.099	-12.02972
1091.449	-7.01698
1091.799	37.08901
1092.149	-9.02161
1092.499	-12.02837
1092.849	-12.02969
1093.199	4.0096
1093.548	30.07007
1093.898	-52.12659
1094.248	-23.05692
1094.597	-7.01761
1094.947	19.04928
1095.296	-10.02409
1095.645	1.00251
1095.994	-44.1029
1096.343	14.03418
1096.692	0
1097.041	28.0748
1097.39	23.05525
1097.739	4.01008
1098.088	-8.02072
1098.437	17.044
1098.785	-9.02345
1099.134	-30.07648
1099.482	19.05102
1099.83	0
1100.179	50.12828
1100.527	-32.08213
1100.875	0
1101.223	28.07256
1101.571	-19.05119
1101.919	31.08027
1102.267	25.06919
1102.615	-4.01286
1102.962	-12.03856
1103.31	1.00321
1103.658	-9.02889
