Data from N1 R1 sample 3_Subt2__1__11-39-56-858.txt Node

Date: Wed Sep 17 11:39:56 PDT 2025
User: uwsun
Spectrometer: HDX01956
Trigger mode: 0
Integration Time (sec): 5.000000E-1
Scans to average: 1
Nonlinearity correction enabled: true
Boxcar width: 0
Storing dark spectrum: false
XAxis mode: Wavelengths
Number of Pixels in Spectrum: 2068
>>>>>Begin Spectral Data<<<<<
194.03	-14.04073
194.578	8.02599
195.127	2.00641
195.676	-4.01288
196.225	-6.01604
196.773	-24.06732
197.321	-14.03928
197.87	-15.0394
198.418	-1.00264
198.966	25.06713
199.513	54.13946
200.061	0
200.609	7.01887
201.156	-36.08187
201.704	-10.02585
202.251	-16.04362
202.798	-10.02658
203.345	25.0633
203.892	-9.02337
204.438	28.06791
204.985	-4.00978
205.532	-23.06212
206.078	-9.0226
206.624	31.07946
207.17	38.09112
207.716	-1.00252
208.262	-34.0704
208.808	21.054
209.354	-1.00254
209.899	12.03091
210.445	1.00257
210.99	-11.02766
211.535	11.02664
212.08	21.04998
212.625	-32.08244
213.17	22.05729
213.715	23.05397
214.259	11.02639
214.804	-20.05048
215.348	-23.05504
215.892	32.07941
216.436	-7.01646
216.98	3.00678
217.524	40.09763
218.068	20.05158
218.612	26.0675
219.155	8.01941
219.698	29.07046
220.242	18.04532
220.785	5.01206
221.328	-9.02279
221.871	39.10102
222.414	-18.04566
222.956	-47.11607
223.499	-6.01374
224.041	-32.07536
224.583	-39.08511
225.126	-19.04292
225.668	-13.03236
226.21	26.06694
226.751	44.09974
227.293	-41.09571
227.835	10.02501
228.376	-21.04906
228.918	-22.05609
229.459	-1.00255
230	28.06845
230.541	-22.05199
231.082	19.04713
231.622	-40.09328
232.163	-11.02714
232.704	30.07629
233.244	4.01012
233.784	-14.03471
234.324	60.13689
234.864	-23.05342
235.404	-6.01444
235.944	5.01202
236.484	-25.06395
237.023	-21.05077
237.563	11.02612
238.102	32.07688
238.641	-14.03594
239.18	9.02158
239.719	-8.02045
240.258	-7.01612
240.797	20.04865
241.335	-17.0423
241.874	11.02204
242.412	24.05937
242.95	12.0296
243.488	-38.08796
244.026	13.0309
244.564	33.06933
245.102	47.10821
245.64	-4.00976
246.177	-9.0205
246.715	55.13367
247.252	-1.00232
247.789	84.15727
248.326	-2.00493
248.863	-16.03625
249.4	10.02316
249.936	75.15909
250.473	33.07939
251.009	7.01638
251.546	46.10448
252.082	-3.00664
252.618	0
253.154	-9.02218
253.69	14.03207
254.226	24.05852
254.761	-14.03229
255.297	-59.13371
255.832	8.01944
256.367	0
256.903	13.02959
257.438	1.0024
257.972	-32.07351
258.507	-25.05898
259.042	30.06657
259.576	29.06556
260.111	-17.04007
260.645	0
261.179	17.04065
261.713	6.01377
262.247	-21.04927
262.781	30.06462
263.315	-28.06969
263.849	25.06363
264.382	6.01409
264.915	41.0986
265.449	-25.06264
265.982	2.00465
266.515	18.04498
267.048	38.08214
267.58	-19.0422
268.113	29.06401
268.646	-8.02001
269.178	-49.11335
269.71	41.09239
270.243	65.15251
270.775	14.03659
271.307	-24.05856
271.838	45.10773
272.37	16.03992
272.902	-17.03958
273.433	32.07242
273.965	13.0322
274.496	0
275.027	-11.02804
275.558	24.05967
276.089	28.07116
276.62	-22.05678
277.15	-28.07065
277.681	1.00221
278.211	51.12585
278.741	16.03639
279.272	19.04444
279.802	3.00761
280.332	0
280.861	-12.0294
281.391	6.01397
281.921	-18.04413
282.45	-6.0152
282.98	66.17345
283.509	70.16132
284.038	37.08627
284.567	10.02383
285.096	18.04456
285.625	-14.03239
286.153	69.16688
286.682	31.07268
287.21	-23.05625
287.739	21.05062
288.267	34.08425
288.795	-10.02667
289.323	5.01203
289.851	-7.01692
290.378	-39.08993
290.906	9.02252
291.433	0
291.961	28.06538
292.488	19.048
293.015	27.06508
293.542	73.18954
294.069	31.07824
294.596	-7.01751
295.122	63.15317
295.649	19.04257
296.175	33.0808
296.702	56.13892
297.228	-6.0148
297.754	-4.00926
298.28	42.09856
298.806	25.06146
299.332	11.02529
299.857	25.05815
300.383	2.00514
300.908	30.07521
301.433	45.11219
301.958	25.05859
302.483	20.05054
303.008	72.18116
303.533	23.06035
304.058	9.02149
304.582	1.00243
305.107	-8.02129
305.631	-11.0257
306.155	14.03343
306.679	42.10072
307.203	22.05229
307.727	32.07741
308.251	23.05792
308.775	89.21881
309.298	2.00495
309.822	-7.01802
310.345	53.12891
310.868	21.05182
311.391	42.10526
311.914	23.05881
312.437	44.10269
312.96	-12.02914
313.482	0
314.005	-12.03073
314.527	-30.08009
315.049	48.12345
315.571	73.16712
316.093	37.09338
316.615	16.0393
317.137	49.10924
317.659	31.07667
318.18	-42.10358
318.702	51.1219
319.223	-28.05951
319.744	1.00232
320.265	16.03995
320.786	52.13219
321.307	20.05052
321.828	42.09698
322.348	-14.03402
322.869	68.16474
323.389	15.03057
323.909	-14.03307
324.43	56.13618
324.95	46.1077
325.47	49.1238
325.989	33.08017
326.509	28.06453
327.029	45.1053
327.548	4.00936
328.067	48.1189
328.587	70.1782
329.106	23.05329
329.625	49.12954
330.144	73.17289
330.662	80.19104
331.181	78.18719
331.7	12.02871
332.218	63.13999
332.736	42.10072
333.255	25.06051
333.773	74.17772
334.291	62.15778
334.808	59.13616
335.326	31.07165
335.844	59.14189
336.361	72.1882
336.879	79.18941
337.396	94.23217
337.913	53.12547
338.43	57.13175
338.947	16.03936
339.464	43.09563
339.981	35.08516
340.497	-4.01014
341.014	80.19817
341.53	-10.02343
342.046	76.19307
342.562	87.2198
343.078	40.09665
343.594	69.16732
344.11	115.27865
344.626	69.17718
345.141	61.14301
345.657	42.09783
346.172	64.15767
346.687	75.17577
347.202	103.2394
347.717	54.13181
348.232	67.16993
348.747	83.19566
349.261	62.14003
349.776	98.23679
350.29	75.1911
350.805	104.26007
351.319	95.22464
351.833	68.16039
352.347	72.17371
352.861	116.27594
353.374	74.1721
353.888	127.3135
354.401	20.04706
354.915	60.13938
355.428	89.22517
355.941	96.22749
356.454	55.12581
356.967	37.08874
357.48	46.10728
357.993	72.18031
358.505	36.08977
359.018	117.28977
359.53	86.21358
360.042	90.206
360.554	132.3259
361.066	67.16624
361.578	157.35016
362.09	59.14366
362.602	110.24985
363.113	124.29554
363.625	121.2789
364.136	101.22638
364.647	124.29758
365.158	97.22981
365.669	104.25195
366.18	119.28357
366.691	83.18627
367.201	127.30738
367.712	139.3218
368.222	125.2918
368.733	62.13888
369.243	105.23942
369.753	75.1768
370.263	137.33358
370.773	72.17849
371.282	172.41166
371.792	139.3255
372.301	59.14559
372.811	126.33203
373.32	164.35843
373.829	92.22062
374.338	125.28202
374.847	146.33994
375.356	87.20882
375.865	136.29635
376.373	191.43462
376.882	166.4199
377.39	129.31387
377.898	124.30716
378.407	141.32357
378.915	167.3683
379.423	154.36012
379.93	264.60399
380.438	135.3265
380.946	183.42567
381.453	207.49343
381.96	236.55683
382.468	235.5464
382.975	267.64156
383.482	234.51919
383.989	268.67375
384.495	325.7365
385.002	258.53543
385.509	329.76069
386.015	377.74236
386.521	318.7029
387.028	319.70319
387.534	318.66082
388.04	428.97634
388.546	386.81463
389.051	434.90306
389.557	403.88609
390.063	414.88521
390.568	471.05612
391.073	426.89234
391.578	547.22581
392.084	579.19837
392.589	597.16728
393.093	623.34304
393.598	683.39314
394.103	712.49606
394.607	813.69238
395.112	839.77669
395.616	980.98659
396.12	971.84808
396.624	1101.10667
397.128	1218.32944
397.632	1392.49029
398.136	1417.45851
398.639	1555.67679
399.143	1770.08293
399.646	2013.09596
400.15	2211.13104
400.653	2393.12422
401.156	2830.15366
401.659	3295.57395
402.162	4065.02793
402.664	5663.34517
403.167	9379.26371
403.67	23900.53315
404.172	59253.112
404.674	63858.43483
405.176	63738.15102
405.678	63977.72923
406.18	64011.81569
406.682	63863.44694
407.184	63926.60148
407.686	31471.04451
408.187	16551.46142
408.688	10367.88098
409.19	7644.96688
409.691	6380.23714
410.192	5549.50292
410.693	4775.2485
411.194	4425.72927
411.694	4231.14265
412.195	3824.65655
412.696	3483.3139
413.196	3325.70786
413.696	3247.45931
414.196	3308.97389
414.696	3294.6585
415.196	2928.31941
415.696	2564.08928
416.196	2037.05969
416.695	1641.76502
417.195	1501.68415
417.694	1481.24036
418.194	1290.08548
418.693	1252.23771
419.192	1194.24075
419.691	1137.12775
420.19	1130.19912
420.688	1147.27281
421.187	970.62954
421.685	983.90081
422.184	883.77392
422.682	738.40227
423.18	615.27186
423.678	583.20559
424.176	503.05615
424.674	514.04819
425.172	494.06936
425.669	411.94607
426.167	417.90724
426.664	402.8577
427.161	331.72659
427.659	324.75166
428.156	346.70201
428.652	249.60942
429.149	293.68526
429.646	285.61403
430.143	278.64419
430.639	201.46772
431.135	253.61438
431.632	216.48404
432.128	222.52137
432.624	224.56396
433.12	148.33562
433.616	212.45646
434.111	100.23779
434.607	162.38343
435.103	128.26813
435.598	173.35654
436.093	150.34623
436.588	157.35016
437.083	136.30326
437.578	187.42603
438.073	130.32297
438.568	129.31527
439.062	142.3022
439.557	116.27009
440.051	94.21161
440.546	55.12607
441.04	92.22078
441.534	90.22604
442.028	111.26613
442.522	67.16137
443.015	23.05015
443.509	76.18495
444.002	80.19563
444.496	59.12903
444.989	71.17243
445.482	53.13165
445.975	116.26668
446.468	115.24809
446.961	86.18724
447.454	98.21934
447.947	71.16971
448.439	105.25595
448.931	107.24457
449.424	108.27261
449.916	83.20202
450.408	76.17403
450.9	36.08797
451.392	88.22229
451.884	43.09951
452.375	34.08459
452.867	73.1643
453.358	47.10834
453.849	63.13545
454.341	31.07069
454.832	58.12601
455.323	91.22538
455.814	41.09439
456.304	36.08389
456.795	31.0714
457.285	19.04234
457.776	55.12576
458.266	64.15189
458.756	-10.02395
459.247	34.08175
459.737	108.25898
460.226	91.20666
460.716	82.19521
461.206	47.11269
461.695	24.0596
462.185	57.13541
462.674	37.08508
463.163	49.11042
463.653	70.1493
464.142	21.05121
464.63	10.02442
465.119	41.09571
465.608	76.17752
466.096	-28.06202
466.585	29.06666
467.073	24.05694
467.561	28.06745
468.05	23.05331
468.538	17.04175
469.026	-9.02159
469.513	-16.03439
470.001	53.12187
470.489	36.08584
470.976	35.08212
471.463	18.045
471.951	7.0175
472.438	1.00237
472.925	19.04502
473.412	3.00733
473.899	27.06226
474.385	45.1101
474.872	26.06092
475.359	34.08373
475.845	22.04602
476.331	20.04297
476.817	17.04156
477.303	33.07697
477.789	3.0072
478.275	-10.02503
478.761	-3.00719
479.247	62.13808
479.732	4.01004
480.218	92.23858
480.703	-1.00248
481.188	46.0999
481.673	3.00696
482.158	20.04362
482.643	33.08432
483.128	27.06328
483.612	56.13327
484.097	21.05083
484.581	50.11569
485.066	62.15133
485.55	45.09983
486.034	40.08709
486.518	39.09354
487.002	-36.08875
487.486	-2.00489
487.969	-1.00245
488.453	-39.09836
488.936	-14.03195
489.42	20.04458
489.903	-15.03767
490.386	-86.18366
490.869	23.05079
491.352	49.1177
491.835	-27.05635
492.318	-8.0182
492.8	6.01259
493.283	17.04353
493.765	11.02711
494.247	51.11863
494.73	33.07339
495.212	3.00717
495.694	30.07098
496.175	43.10341
496.657	45.10657
497.139	21.03651
497.62	41.09871
498.102	66.16355
498.583	-8.01981
499.064	57.12703
499.545	46.10495
500.026	60.13562
500.507	53.12192
500.988	130.31967
501.469	79.19537
501.949	92.22498
502.43	93.22221
502.91	178.36825
503.39	99.24268
503.87	122.2844
504.35	155.35484
504.83	153.32766
505.31	160.37709
505.79	181.41653
506.269	199.44291
506.749	200.4432
507.228	298.6675
507.707	305.64554
508.187	361.81075
508.666	409.94523
509.145	409.8887
509.623	448.9666
510.102	512.12679
510.581	581.2572
511.059	611.37727
511.538	665.52227
512.016	743.54105
512.494	767.58664
512.972	837.6984
513.45	888.72709
513.928	980.96042
514.406	1114.18223
514.884	1165.40153
515.361	1294.35325
515.839	1339.29206
516.316	1504.64921
516.793	1558.84817
517.27	1633.73965
517.747	1752.12414
518.224	1822.72993
518.701	1922.6287
519.178	1974.20442
519.654	2014.97452
520.131	2056.21327
520.607	2091.1663
521.083	2065.80657
521.56	2082.99283
522.036	2131.66551
522.512	2099.22681
522.987	2083.0989
523.463	1972.95315
523.939	1985.17563
524.414	1866.73414
524.89	1805.86241
525.365	1701.56661
525.84	1643.75063
526.315	1562.69953
526.79	1432.32578
527.265	1418.38883
527.74	1369.48955
528.215	1274.25278
528.689	1166.96015
529.164	1145.88252
529.638	1045.1654
530.112	979.88225
530.587	943.63361
531.061	946.89844
531.534	820.68391
532.008	855.76176
532.482	759.49652
532.956	738.64719
533.429	737.57005
533.903	657.2563
534.376	678.3031
534.849	605.2355
535.322	603.26816
535.795	564.22686
536.268	518.14144
536.741	491.06444
537.213	481.00943
537.686	472.06205
538.158	460.96142
538.631	370.84237
539.103	401.84276
539.575	335.64755
540.047	360.73508
540.519	345.77832
540.991	363.83361
541.463	305.69848
541.934	250.5429
542.406	302.69175
542.877	292.62789
543.348	267.61907
543.82	211.49795
544.291	274.61273
544.762	251.57552
545.233	266.64872
545.703	190.41191
546.174	222.49851
546.645	190.44848
547.115	200.47007
547.585	198.44316
548.056	208.49781
548.526	186.43137
548.996	144.33885
549.466	136.32588
549.935	164.38456
550.405	134.29063
550.875	131.30724
551.344	110.25996
551.814	142.3207
552.283	143.3077
552.752	151.34847
553.221	129.28188
553.69	198.43657
554.159	169.41287
554.628	145.32434
555.096	154.38551
555.565	76.16807
556.033	161.37745
556.502	71.1712
556.97	105.23235
557.438	103.24025
557.906	135.31452
558.374	132.30262
558.842	105.24982
559.31	172.3775
559.777	189.45157
560.245	82.18769
560.712	115.26105
561.18	148.32277
561.647	116.25502
562.114	151.34068
562.581	162.39142
563.048	187.41845
563.514	236.57385
563.981	158.35567
564.448	185.40868
564.914	166.37812
565.381	173.38744
565.847	207.46893
566.313	146.3335
566.779	192.42157
567.245	136.31066
567.711	209.48653
568.176	178.39083
568.642	221.5403
569.108	221.52721
569.573	199.44842
570.038	248.49904
570.504	248.54039
570.969	250.59763
571.434	276.58736
571.899	258.58884
572.363	290.63593
572.828	301.66018
573.293	284.62303
573.757	309.68344
574.222	280.60105
574.686	314.68739
575.15	360.81828
575.614	384.85159
576.078	336.74733
576.542	310.67261
577.006	346.73855
577.469	335.78193
577.933	389.83015
578.396	297.67278
578.86	352.78259
579.323	305.70184
579.786	368.74937
580.249	394.87013
580.712	317.73382
581.175	279.65993
581.637	277.60576
582.1	308.63833
582.563	281.57078
583.025	258.60495
583.487	297.58235
583.95	288.58941
584.412	298.59633
584.874	248.58401
585.336	295.66907
585.797	292.60652
586.259	251.56628
586.721	207.47255
587.182	223.49838
587.643	203.44919
588.105	231.52839
588.566	245.49243
589.027	257.60696
589.488	189.4238
589.949	204.48246
590.41	177.34344
590.87	194.43349
591.331	219.46474
591.791	181.4102
592.252	194.44118
592.712	163.38334
593.172	229.50482
593.632	242.51993
594.092	161.35254
594.552	147.314
595.011	118.26781
595.471	187.41448
595.931	194.42758
596.39	145.343
596.849	100.23156
597.308	97.20585
597.768	167.42265
598.227	98.23402
598.685	110.24884
599.144	159.36839
599.603	95.22098
600.062	65.13752
600.52	123.27524
600.978	122.28518
601.437	126.28341
601.895	99.21138
602.353	83.18205
602.811	115.25734
603.269	64.15224
603.727	73.17495
604.184	105.23777
604.642	84.20557
605.099	133.30681
605.557	84.20335
606.014	92.19758
606.471	84.20975
606.928	133.29221
607.385	102.2535
607.842	67.15376
608.299	75.17501
608.755	71.17165
609.212	98.21753
609.668	80.18024
610.125	83.19915
610.581	80.18693
611.037	20.04526
611.493	37.08678
611.949	70.17022
612.405	93.18891
612.861	66.15167
613.316	63.15082
613.772	60.13756
614.227	90.21508
614.683	72.15256
615.138	47.11049
615.593	35.08164
616.048	74.1689
616.503	31.07557
616.958	36.09038
617.412	65.15412
617.867	25.05641
618.321	68.14037
618.776	62.13659
619.23	43.10097
619.684	67.14925
620.138	39.08954
620.592	27.06577
621.046	78.18348
621.5	22.05322
621.954	79.17386
622.407	-11.02467
622.861	47.1141
623.314	7.01599
623.768	105.2454
624.221	21.04174
624.674	18.04186
625.127	19.04444
625.58	20.04519
626.033	43.0942
626.485	34.0815
626.938	56.13311
627.39	89.20645
627.843	46.10609
628.295	99.22592
628.747	73.17315
629.199	50.1138
629.651	65.14851
630.103	55.12597
630.555	-16.03421
631.006	65.15048
631.458	45.10583
631.909	49.10965
632.361	15.0348
632.812	78.17932
633.263	83.17883
633.714	38.08062
634.165	24.05768
634.616	40.09453
635.067	15.03323
635.518	44.10419
635.968	28.05528
636.419	90.19478
636.869	37.08763
637.319	78.17968
637.769	80.17854
638.219	54.12697
638.669	21.05006
639.119	25.05992
639.569	24.05768
640.019	46.10614
640.468	20.04504
640.918	52.12289
641.367	65.14479
641.816	82.18073
642.265	52.12103
642.714	20.04604
643.163	101.23067
643.612	49.1198
644.061	29.06227
644.51	64.14608
644.958	64.14076
645.406	54.1286
645.855	1.00244
646.303	57.13123
646.751	100.2287
647.199	68.15326
647.647	56.12962
648.095	53.12051
648.543	27.05502
648.99	86.20466
649.438	31.07177
649.885	43.10701
650.333	64.12386
650.78	7.01701
651.227	69.16776
651.674	63.14313
652.121	54.132
652.568	38.09303
653.015	28.06928
653.461	39.09265
653.908	-9.02085
654.354	61.14447
654.801	31.07276
655.247	44.09519
655.693	34.08826
656.139	21.05021
656.585	28.06691
657.031	77.17954
657.477	84.18195
657.922	-11.02523
658.368	77.18749
658.813	5.01143
659.259	83.1993
659.704	90.21113
660.149	17.03933
660.594	29.06887
661.039	17.03889
661.484	79.18536
661.929	11.02581
662.373	30.07521
662.818	25.06183
663.262	85.2034
663.707	10.0255
664.151	50.12136
664.595	46.1109
665.039	57.1406
665.483	17.04329
665.927	38.089
666.371	78.1819
666.814	55.12995
667.258	71.16977
667.701	92.19374
668.145	98.24054
668.588	91.22274
669.031	58.13563
669.474	44.10519
669.917	79.17138
670.36	33.08221
670.803	95.22655
671.245	-13.02688
671.688	83.19968
672.13	28.06339
672.573	57.14293
673.015	84.20028
673.457	52.11269
673.899	73.17489
674.341	11.02655
674.783	39.09318
675.225	44.10784
675.666	67.16265
676.108	94.2004
676.549	39.09054
676.991	46.10058
677.432	17.03387
677.873	-24.05531
678.314	67.158
678.755	93.22619
679.196	37.08433
679.637	10.02396
680.078	54.12529
680.518	59.13437
680.959	35.08302
681.399	41.10095
681.839	53.1277
682.28	39.09649
682.72	18.04117
683.16	25.06224
683.6	32.0726
684.039	1.00207
684.479	26.06405
684.919	42.09837
685.358	-6.01497
685.798	-14.03656
686.237	20.04761
686.676	0
687.115	35.08212
687.554	33.07867
687.993	21.04641
688.432	38.08628
688.871	48.10934
689.309	34.08119
689.748	3.00626
690.186	-9.02112
690.625	59.1373
691.063	13.03098
691.501	56.1372
691.939	56.13974
692.377	2.00485
692.815	98.23563
693.253	-33.07909
693.69	17.03716
694.128	22.05324
694.565	11.02602
695.003	12.0306
695.44	9.02131
695.877	30.07027
696.314	-2.00422
696.751	33.07433
697.188	75.17149
697.625	19.04236
698.061	-14.03361
698.498	-17.04029
698.934	-17.04074
699.371	-5.01178
699.807	7.01649
700.243	35.08385
700.679	1.00223
701.115	22.05106
701.551	18.04163
701.987	-33.07254
702.422	55.12985
702.858	-14.03347
703.294	49.11128
703.729	3.00728
704.164	-8.0191
704.599	27.05997
705.035	10.02238
705.47	-39.09521
705.904	-16.03712
706.339	7.01603
706.774	-16.03753
707.209	18.04171
707.643	14.03334
708.078	15.03629
708.512	-1.0025
708.946	-2.00473
709.38	44.10346
709.814	-10.02263
710.248	43.10412
710.682	22.05254
711.116	28.06773
711.549	-17.04336
711.983	-21.0486
712.416	49.11497
712.85	34.08336
713.283	54.12578
713.716	-8.01977
714.149	-13.03007
714.582	-4.00898
715.015	-38.09344
715.448	41.10214
715.881	-15.03219
716.313	-18.04204
716.746	27.06338
717.178	7.01675
717.61	35.08811
718.043	3.00737
718.475	21.05056
718.907	16.03962
719.339	10.02256
719.77	26.06175
720.202	-33.08269
720.634	28.06811
721.065	7.01639
721.497	-2.00487
721.928	-34.08317
722.359	-4.00971
722.79	11.02616
723.221	-30.07442
723.652	-11.02783
724.083	10.02233
724.514	13.02964
724.945	11.02556
725.375	35.0809
725.806	-2.0049
726.236	-6.01525
726.666	16.03737
727.096	-22.05368
727.526	41.10432
727.956	13.0295
728.386	36.08705
728.816	43.10864
729.246	59.14329
729.675	-42.10252
730.105	-14.03407
730.534	-33.07685
730.964	36.08849
731.393	0
731.822	24.06065
732.251	14.03519
732.68	-24.05535
733.109	-1.00245
733.537	83.19869
733.966	7.01735
734.395	36.08207
734.823	-20.04403
735.251	-22.05266
735.68	-1.00244
736.108	-38.09479
736.536	-8.0186
736.964	1.0023
737.392	10.02473
737.82	33.07755
738.247	12.02826
738.675	-10.02331
739.102	-38.09461
739.53	40.10147
739.957	29.07415
740.384	-13.03106
740.811	-34.08425
741.238	-3.00731
741.665	66.15216
742.092	-27.06174
742.519	-8.01974
742.945	45.10773
743.372	31.07602
743.798	-21.05345
744.225	12.02804
744.651	2.00495
745.077	-13.03219
745.503	-38.09144
745.929	64.15201
746.355	-20.04831
746.781	-1.00243
747.207	-8.01889
747.632	52.12702
748.058	33.08206
748.483	17.03857
748.908	-4.00989
749.334	25.06085
749.759	31.07288
750.184	35.08318
750.609	-25.0609
751.033	-9.02079
751.458	30.06571
751.883	3.0073
752.307	-32.07507
752.732	25.06318
753.156	-35.08583
753.58	7.01629
754.005	-20.0498
754.429	46.10723
754.853	9.02218
755.277	22.05157
755.7	51.12414
756.124	1.00246
756.548	4.00934
756.971	37.08871
757.394	-6.01518
757.818	-8.02047
758.241	9.02262
758.664	6.01498
759.087	15.03344
759.51	-5.0122
759.933	-6.0144
760.356	42.10666
760.778	12.02912
761.201	3.00715
761.623	-48.11374
762.046	-27.06256
762.468	41.09612
762.89	-24.05806
763.312	15.03625
763.734	-23.05512
764.156	-9.02202
764.578	-11.02478
765	23.05517
765.421	-48.12241
765.843	-18.04671
766.264	-15.03511
766.686	-67.166
767.107	17.04057
767.528	8.02034
767.949	8.02002
768.37	26.06351
768.791	41.09612
769.212	-32.08031
769.632	42.09656
770.053	-31.08041
770.473	7.01661
770.894	-26.0633
771.314	-2.00465
771.734	8.01836
772.154	3.00754
772.575	22.04969
772.994	28.06208
773.414	61.141
773.834	-25.06165
774.254	4.00961
774.673	60.14344
775.093	32.07828
775.512	8.01948
775.931	1.0025
776.351	36.08813
776.77	11.02663
777.189	-11.02582
777.607	-5.01261
778.026	13.03187
778.445	7.01754
778.864	-19.04754
779.282	1.00234
779.701	-7.01732
780.119	-28.0704
780.537	-8.01963
780.955	7.01738
781.373	5.01214
781.791	30.06681
782.209	-14.03106
782.627	-6.0156
783.045	4.00892
783.462	5.01256
783.88	-24.06157
784.297	-10.02483
784.715	5.01271
785.132	-3.0071
785.549	5.01227
785.966	-17.04223
786.383	39.09429
786.8	23.05217
787.217	24.05628
787.633	17.04209
788.05	-6.01368
788.466	17.03862
788.883	34.08567
789.299	-30.07029
789.715	-11.02645
790.131	31.07534
790.547	21.05119
790.963	31.07498
791.379	2.00497
791.795	-4.00884
792.21	1.00227
792.626	-13.03004
793.041	-5.01209
793.457	3.00722
793.872	-39.08968
794.287	-1.00238
794.702	-6.01426
795.117	4.0098
795.532	5.01241
795.947	-8.01859
796.362	2.00457
796.776	-13.02922
797.191	22.05272
797.605	4.00933
798.02	-5.01191
798.434	63.13521
798.848	-1.00245
799.262	-22.05376
799.676	26.0618
800.09	-3.00723
800.504	17.04003
800.918	-34.07673
801.331	-52.13163
801.745	-26.05829
802.158	0
802.572	28.06607
802.985	10.02334
803.398	-4.0093
803.811	-50.12422
804.224	-36.08702
804.637	-24.05645
805.05	-15.03375
805.462	-7.01673
805.875	6.0153
806.288	13.03084
806.7	-29.0709
807.112	6.01342
807.525	-48.11484
807.937	-14.03406
808.349	18.04361
808.761	7.01689
809.173	33.07806
809.584	14.03351
809.996	-64.15482
810.408	8.02045
810.819	-6.01382
811.231	10.02624
811.642	11.02675
812.053	32.07603
812.464	-44.10261
812.875	35.08751
813.286	17.04315
813.697	25.05511
814.108	-19.04522
814.519	34.07403
814.929	25.06183
815.34	-56.1325
815.75	-2.00502
816.16	-15.0361
816.571	-19.04826
816.981	-67.15419
817.391	-8.01867
817.801	-10.02443
818.211	12.02773
818.62	-23.0546
819.03	-15.03585
819.44	-40.10097
819.849	-10.02436
820.259	-12.02972
820.668	-9.02175
821.077	28.06827
821.486	-16.03714
821.895	23.05428
822.304	-24.06233
822.713	-39.09007
823.122	-43.10529
823.531	-46.10546
823.939	12.02859
824.348	40.09336
824.756	6.01455
825.164	-38.09341
825.573	27.06584
825.981	31.07401
826.389	29.07051
826.797	51.12585
827.205	-13.02935
827.612	-12.02874
828.02	-78.17997
828.428	-28.06984
828.835	24.06198
829.243	-51.11849
829.65	0
830.057	-26.0614
830.464	36.08603
830.871	45.10443
831.278	-24.05678
831.685	-26.05632
832.092	-17.04021
832.499	11.02343
832.905	-2.0049
833.312	-11.0239
833.718	22.05362
834.124	84.18374
834.531	3.00729
834.937	37.09238
835.343	-36.08429
835.749	-4.00893
836.155	17.04335
836.561	15.03588
836.966	-22.05233
837.372	0
837.777	-30.07353
838.183	-14.03007
838.588	30.07268
838.993	37.08709
839.399	0
839.804	-14.03339
840.209	33.08251
840.613	-9.0194
841.018	-21.05171
841.423	15.03746
841.828	19.04694
842.232	-52.12422
842.637	17.03931
843.041	-2.00503
843.445	-34.0829
843.849	-23.05594
844.253	7.01608
844.657	-19.04713
845.061	76.16786
845.465	-5.01176
845.869	11.02475
846.272	-25.05987
846.676	-29.06724
847.079	20.04983
847.483	19.04581
847.886	-12.02815
848.289	8.02112
848.692	-12.02944
849.095	9.02086
849.498	-13.03164
849.901	-10.02207
850.304	14.03235
850.707	-38.09465
851.109	-13.0319
851.512	9.02155
851.914	-52.12994
852.316	70.17232
852.718	9.02326
853.121	9.02143
853.523	-10.02255
853.925	-4.01031
854.326	43.10462
854.728	-13.0328
855.13	4.01017
855.531	32.07404
855.933	-26.06025
856.334	-7.01717
856.736	-4.00878
857.137	24.05443
857.538	9.02218
857.939	26.06318
858.34	-39.09197
858.741	-25.06377
859.142	-46.10761
859.542	21.0543
859.943	-35.0851
860.343	-25.06099
860.744	25.05896
861.144	16.03819
861.544	25.059
861.945	-51.12756
862.345	11.02594
862.745	20.04856
863.145	-19.04332
863.544	-12.02969
863.944	-10.02295
864.344	-41.09838
864.743	15.036
865.143	51.1277
865.542	-44.0984
865.941	18.04336
866.34	20.04565
866.74	-20.05267
867.139	24.05639
867.537	7.01713
867.936	27.06308
868.335	1.00247
868.734	2.00499
869.132	-38.08505
869.531	-1.00232
869.929	-32.07153
870.327	-26.0608
870.726	-16.03846
871.124	20.04471
871.522	-26.06452
871.92	-7.0168
872.318	-22.05203
872.715	-29.069
873.113	-26.06145
873.511	5.01205
873.908	10.02497
874.306	-4.00977
874.703	6.01442
875.1	-39.09627
875.497	-25.05818
875.894	18.04357
876.291	-12.02874
876.688	-12.03026
877.085	-10.02314
877.482	-4.00973
877.878	40.09413
878.275	4.00991
878.671	-36.07545
879.068	1.00234
879.464	29.06759
879.86	-41.09477
880.256	24.05626
880.652	-2.00495
881.048	0
881.444	-42.09617
881.84	14.03446
882.236	18.04379
882.631	47.1117
883.027	31.07202
883.422	-16.03965
883.817	2.00493
884.213	-15.03759
884.608	32.07758
885.003	-29.06759
885.398	13.0316
885.793	10.02424
886.188	-62.15122
886.582	-7.01731
886.977	-19.04353
887.371	-59.14554
887.766	13.03156
888.16	-10.02384
888.554	8.01902
888.949	13.03162
889.343	-23.05443
889.737	-16.04215
890.131	-18.04405
890.525	44.10943
890.918	5.01221
891.312	18.04112
891.706	24.06093
892.099	-2.00493
892.492	42.08592
892.886	-19.04515
893.279	-16.03965
893.672	5.01247
894.065	37.08952
894.458	-39.09496
894.851	10.02354
895.244	-3.00745
895.637	18.04206
896.029	10.02385
896.422	10.02334
896.814	-14.03376
897.206	33.07685
897.599	33.07861
897.991	10.02358
898.383	0
898.775	31.06811
899.167	53.12041
899.559	-24.05873
899.951	14.03154
900.342	39.09471
900.734	38.09334
901.125	-4.01015
901.517	12.02859
901.908	13.02963
902.299	7.01665
902.69	30.06886
903.082	-4.0094
903.473	47.11002
903.863	-26.06441
904.254	39.0881
904.645	-7.01669
905.036	8.01918
905.426	38.08203
905.817	-54.12895
906.207	-24.055
906.597	-6.01376
906.987	-26.06528
907.378	12.02962
907.768	-3.00776
908.158	-33.07834
908.547	17.04327
908.937	-38.0942
909.327	-14.03297
909.717	-6.01456
910.106	-17.0395
910.495	19.04531
910.885	48.11747
911.274	-18.04376
911.663	-5.01222
912.052	-37.08807
912.441	21.05216
912.83	-11.02427
913.219	5.01267
913.608	22.05229
913.997	9.02212
914.385	23.05299
914.774	13.03054
915.162	44.10201
915.55	0
915.939	-2.00495
916.327	-25.06033
916.715	55.13722
917.103	10.02338
917.491	3.00717
917.878	30.07093
918.266	-50.1267
918.654	3.00751
919.041	6.01545
919.429	1.00228
919.816	-40.09909
920.203	32.0756
920.591	46.11001
920.978	8.01896
921.365	7.01794
921.752	-17.03872
922.139	-6.01258
922.525	-12.02813
922.912	-26.06152
923.299	-29.07048
923.685	-45.11405
924.072	-49.10739
924.458	1.00242
924.844	-39.09443
925.231	-23.05149
925.617	17.04241
926.003	9.02224
926.389	-3.00735
926.774	-5.01227
927.16	-7.01685
927.546	32.08037
927.931	-3.00722
928.317	-10.02212
928.702	-15.03426
929.088	50.11619
929.473	27.06704
929.858	-1.00239
930.243	57.13264
930.628	11.0262
931.013	20.04802
931.398	-32.07023
931.783	2.00506
932.167	30.07156
932.552	-3.00727
932.937	-4.00957
933.321	25.06121
933.705	-43.10482
934.09	-34.08209
934.474	-27.06171
934.858	-5.01266
935.242	-23.0516
935.626	11.02748
936.009	-4.01049
936.393	48.11947
936.777	10.02503
937.16	5.01276
937.544	-32.0721
937.927	26.06422
938.311	21.04908
938.694	23.0592
939.077	-40.09347
939.46	-17.03962
939.843	-30.05898
940.226	7.01733
940.609	85.18785
940.991	-44.10896
941.374	-46.11077
941.757	23.05453
942.139	31.06711
942.522	22.04971
942.904	-10.02334
943.286	15.03677
943.668	26.06598
944.05	7.01672
944.432	-16.03824
944.814	-23.05456
945.196	-15.03588
945.578	45.10463
945.959	-16.03596
946.341	-22.05147
946.722	-12.02712
947.104	-9.02088
947.485	-13.02934
947.866	-7.01731
948.247	9.02226
948.628	-32.07448
949.009	-44.11043
949.39	-9.02161
949.771	-40.08831
950.152	-3.00715
950.532	7.0172
950.913	11.02559
951.293	-16.04269
951.674	-6.01408
952.054	19.04647
952.434	-7.01692
952.814	-5.01137
953.194	-33.08331
953.574	1.00237
953.954	-24.05476
954.334	-6.01468
954.714	-19.04531
955.093	46.10858
955.473	18.04408
955.853	5.01259
956.232	7.01867
956.611	-48.11084
956.99	26.06344
957.37	-32.0791
957.749	-46.10529
958.128	13.03195
958.506	-12.03042
958.885	22.05346
959.264	4.00964
959.643	2.00443
960.021	17.04107
960.4	-4.00874
960.778	14.03278
961.156	12.029
961.535	-16.03574
961.913	35.07913
962.291	24.06045
962.669	-4.00991
963.047	-5.01249
963.424	6.01509
963.802	-10.02395
964.18	-27.06545
964.557	13.02866
964.935	16.03649
965.312	10.02546
965.69	7.0168
966.067	2.00466
966.444	-46.10854
966.821	54.13421
967.198	-3.00696
967.575	10.02359
967.952	16.0362
968.329	17.04023
968.705	27.05582
969.082	40.10053
969.458	44.10294
969.835	15.03525
970.211	9.02268
970.587	4.00968
970.963	3.0074
971.339	0
971.715	33.07963
972.091	14.03328
972.467	-43.10317
972.843	-13.03178
973.219	26.05939
973.594	-73.1883
973.97	-28.06293
974.345	5.01163
974.721	-25.0579
975.096	0
975.471	-23.05274
975.846	13.02989
976.221	-15.03716
976.596	25.05882
976.971	18.04328
977.346	-16.03575
977.72	-44.10912
978.095	-20.05038
978.469	18.04118
978.844	-15.03643
979.218	31.07274
979.593	-15.03467
979.967	-36.08376
980.341	71.15639
980.715	23.05617
981.089	15.03628
981.463	-40.08942
981.837	18.04305
982.21	-28.0614
982.584	-22.05193
982.957	9.02192
983.331	-46.10432
983.704	25.06008
984.078	29.06873
984.451	-4.00948
984.824	-3.00714
985.197	-50.1167
985.57	-23.05521
985.943	0
986.316	1.00234
986.688	20.04637
987.061	28.06332
987.434	19.04869
987.806	-68.15914
988.179	-5.01136
988.551	-15.03684
988.923	-24.05714
989.295	6.01443
989.667	41.09564
990.039	30.07279
990.411	-60.13263
990.783	-8.01753
991.155	-21.04931
991.527	-18.04214
991.898	11.02667
992.27	-24.05845
992.641	3.00724
993.012	-42.09354
993.384	-3.00688
993.755	5.01245
994.126	29.06778
994.497	-3.00714
994.868	-31.06823
995.239	3.00701
995.61	-21.05153
995.98	-11.02587
996.351	-32.0779
996.722	4.00907
997.092	-8.01846
997.462	7.016
997.833	13.02939
998.203	-35.08129
998.573	-9.02187
998.943	-2.00456
999.313	-1.00233
999.683	-7.01634
1000.053	-63.13807
1000.423	-27.06328
1000.792	-40.10021
1001.162	-35.08334
1001.531	41.09736
1001.901	23.055
1002.27	-10.02108
1002.639	-19.04689
1003.009	-23.05295
1003.378	-11.02742
1003.747	3.00679
1004.116	-65.15197
1004.485	32.07339
1004.853	-45.10982
1005.222	-38.09171
1005.591	18.04097
1005.959	-13.02847
1006.328	-15.03279
1006.696	-41.09594
1007.064	-27.06547
1007.433	-19.04576
1007.801	-57.13431
1008.169	-24.05834
1008.537	29.0613
1008.905	-15.03412
1009.273	-42.10037
1009.64	36.08366
1010.008	-10.02302
1010.375	4.0092
1010.743	3.00644
1011.11	51.11793
1011.478	-22.05338
1011.845	11.02475
1012.212	3.00663
1012.579	22.05217
1012.946	-10.02273
1013.313	6.01363
1013.68	-4.00861
1014.047	-19.0439
1014.414	-19.04341
1014.78	16.03859
1015.147	-6.01385
1015.513	-4.00932
1015.88	-22.05434
1016.246	-17.04017
1016.612	32.06941
1016.978	25.05944
1017.344	2.0048
1017.71	20.04661
1018.076	-20.04515
1018.442	31.07726
1018.808	15.03662
1019.174	-16.03875
1019.539	-45.09608
1019.905	-7.01606
1020.27	-4.00954
1020.636	4.00912
1021.001	-33.07713
1021.366	-43.10121
1021.731	64.16033
1022.096	-16.03968
1022.461	-24.05529
1022.826	37.08508
1023.191	-30.07697
1023.556	-35.07919
1023.92	-26.06149
1024.285	-38.08925
1024.649	-17.04014
1025.014	-33.07858
1025.378	32.07808
1025.742	-53.12746
1026.107	10.02163
1026.471	18.04006
1026.835	-15.0361
1027.199	-40.09405
1027.562	-17.03778
1027.926	7.01641
1028.29	-5.01229
1028.654	-32.07103
1029.017	-10.02391
1029.381	9.02082
1029.744	7.01731
1030.107	-15.03434
1030.471	7.01627
1030.834	-37.0802
1031.197	25.05779
1031.56	-15.03404
1031.923	-9.02268
1032.286	34.07644
1032.648	-90.20823
1033.011	20.04478
1033.374	-13.02917
1033.736	11.02811
1034.099	5.01179
1034.461	-2.00495
1034.823	-21.05111
1035.185	-11.0266
1035.548	-10.02371
1035.91	-26.0603
1036.272	24.05268
1036.634	12.02829
1036.995	2.00449
1037.357	-30.07142
1037.719	41.09582
1038.08	10.02309
1038.442	-23.05282
1038.803	-9.02053
1039.165	-20.04882
1039.526	-16.03752
1039.887	-7.01617
1040.248	36.08689
1040.609	-20.04741
1040.97	21.04923
1041.331	-27.06712
1041.692	8.01836
1042.053	-7.01525
1042.413	9.02002
1042.774	12.02822
1043.134	8.01808
1043.495	-8.0195
1043.855	8.01896
1044.215	-3.00716
1044.576	4.00931
1044.936	11.02406
1045.296	31.07441
1045.656	-60.14229
1046.016	8.0185
1046.375	5.01171
1046.735	11.02445
1047.095	40.0896
1047.454	-31.06251
1047.814	-3.00698
1048.173	18.04067
1048.533	-24.05321
1048.892	-21.04916
1049.251	-21.05081
1049.61	9.02143
1049.969	-9.02042
1050.328	-12.02503
1050.687	-37.08698
1051.046	-26.06121
1051.405	-46.11052
1051.763	8.01792
1052.122	-27.0654
1052.48	-12.02862
1052.839	6.01385
1053.197	-30.06842
1053.555	-41.08849
1053.914	-9.02123
1054.272	-41.0942
1054.63	-20.04761
1054.988	5.01158
1055.345	-7.01424
1055.703	10.02325
1056.061	12.03027
1056.419	3.00767
1056.776	-1.0023
1057.134	-71.1575
1057.491	-18.04382
1057.848	-43.10372
1058.206	-63.14214
1058.563	-33.07012
1058.92	40.08753
1059.277	11.02618
1059.634	-14.03134
1059.991	23.0531
1060.348	-9.01971
1060.704	23.05403
1061.061	-15.03294
1061.418	-56.13291
1061.774	10.02384
1062.131	-17.04456
1062.487	-34.07663
1062.843	-2.00482
1063.199	-19.04594
1063.555	34.07619
1063.911	-74.18224
1064.267	54.1044
1064.623	3.00713
1064.979	-81.18066
1065.335	12.02732
1065.691	-42.09633
1066.046	-11.02319
1066.402	-14.03046
1066.757	18.0439
1067.112	-28.06643
1067.468	-47.10976
1067.823	-69.15866
1068.178	-33.07697
1068.533	-2.00468
1068.888	-19.04369
1069.243	12.02859
1069.598	-54.12712
1069.952	20.04423
1070.307	-23.05567
1070.662	-5.01164
1071.016	-40.08838
1071.371	15.03294
1071.725	-24.05507
1072.079	5.01163
1072.434	-22.05211
1072.788	-35.07974
1073.142	37.08749
1073.496	-22.05042
1073.85	3.00668
1074.203	60.13915
1074.557	-6.01574
1074.911	27.06129
1075.265	-3.00671
1075.618	-4.00946
1075.971	-11.02525
1076.325	-27.06743
1076.678	-32.071
1077.031	-82.17739
1077.385	-20.04225
1077.738	-2.00433
1078.091	7.01546
1078.444	16.03515
1078.796	-1.00239
1079.149	-4.00966
1079.502	-6.01381
1079.855	29.0649
1080.207	-37.08837
1080.56	-2.00506
1080.912	17.03975
1081.264	20.04655
1081.617	9.02126
1081.969	-11.02713
1082.321	-9.02118
1082.673	-14.03141
1083.025	-35.08006
1083.377	-8.01813
1083.728	-19.04259
1084.08	-37.08935
1084.432	-17.03953
1084.783	-54.12051
1085.135	1.00244
1085.486	24.05299
1085.838	-14.03357
1086.189	-6.01423
1086.54	-5.01147
1086.891	33.08209
1087.242	31.07393
1087.593	-21.04873
1087.944	11.02415
1088.295	31.06708
1088.646	6.01433
1088.996	-33.07785
1089.347	-55.13091
1089.698	-1.00231
1090.048	-38.09578
1090.398	6.01327
1090.749	-36.08283
1091.099	21.05169
1091.449	19.04587
1091.799	14.03383
1092.149	-9.02161
1092.499	8.01884
1092.849	-27.06699
1093.199	-10.02406
1093.548	2.0047
1093.898	32.07668
1094.248	-27.06687
1094.597	-47.11908
1094.947	-1.0026
1095.296	7.01681
1095.645	9.02258
1095.994	13.03006
1096.343	3.00734
1096.692	-20.05219
1097.041	4.01073
1097.39	-32.07767
1097.739	-24.06078
1098.088	-15.03889
1098.437	25.06462
1098.785	-4.01041
1099.134	-14.03559
1099.482	17.04566
1099.83	10.02551
1100.179	-11.02852
1100.527	-47.12094
1100.875	-7.01818
1101.223	38.09831
1101.571	-25.06742
1101.919	-2.00521
1102.267	18.04987
1102.615	5.01606
1102.962	6.01924
1103.31	0
1103.658	-2.00641
