Data from N1 R1 sample 11_Subt2__1__11-26-07-380.txt Node

Date: Wed Sep 17 11:26:07 PDT 2025
User: uwsun
Spectrometer: HDX01956
Trigger mode: 0
Integration Time (sec): 5.000000E-1
Scans to average: 1
Nonlinearity correction enabled: true
Boxcar width: 0
Storing dark spectrum: false
XAxis mode: Wavelengths
Number of Pixels in Spectrum: 2068
>>>>>Begin Spectral Data<<<<<
194.03	-13.03781
194.578	-2.0065
195.127	-8.02567
195.676	8.02572
196.225	7.01867
196.773	-21.05888
197.321	-40.11269
197.87	-9.02362
198.418	7.01845
198.966	1.0027
199.513	0
200.061	-32.08381
200.609	-8.02162
201.156	-44.10023
201.704	-31.08043
202.251	4.01087
202.798	-46.12301
203.345	23.05825
203.892	-8.02077
204.438	-46.11312
204.985	-21.05152
205.532	-35.09472
206.078	-36.09084
206.624	22.05648
207.17	-24.05823
207.716	16.04023
208.262	-17.03507
208.808	8.02062
209.354	2.00508
209.899	-13.03363
210.445	-22.05674
210.99	19.04752
211.535	9.02181
212.08	-43.10361
212.625	-48.12401
213.17	33.08577
213.715	42.09818
214.259	39.09308
214.804	-21.05302
215.348	-2.00477
215.892	44.10896
216.436	25.05841
216.98	-8.01812
217.524	-8.0197
218.068	29.07467
218.612	42.10873
219.155	18.04359
219.698	-12.02938
220.242	-20.0507
220.785	11.02649
221.328	-38.09674
221.871	45.11644
222.414	-32.08138
222.956	-52.12853
223.499	-40.09222
224.041	-61.14447
224.583	-84.18506
225.126	-49.11137
225.668	14.03468
226.21	-4.01035
226.751	-23.05285
227.293	-30.06988
227.835	-16.0402
228.376	-18.04203
228.918	-14.03564
229.459	-3.00765
230	6.01473
230.541	7.01645
231.082	-10.02493
231.622	-25.05813
232.163	6.01476
232.704	13.03316
233.244	-37.09431
233.784	4.00988
234.324	32.07342
234.864	-20.04642
235.404	-8.01926
235.944	-50.12141
236.484	11.02796
237.023	-14.0338
237.563	-24.05738
238.102	-16.03879
238.641	-37.09537
239.18	-42.10167
239.719	-18.0461
240.258	1.0023
240.797	12.02924
241.335	-4.00993
241.874	4.00803
242.412	28.06921
242.95	55.13457
243.488	-39.09029
244.026	13.0309
244.564	8.0169
245.102	58.13324
245.64	-40.09822
246.177	-66.1521
246.715	21.05136
247.252	-59.13854
247.789	16.03046
248.326	-7.01727
248.863	16.03602
249.4	-12.02792
249.936	50.10664
250.473	8.01934
251.009	-31.07308
251.546	5.01145
252.082	-51.11408
252.618	29.06612
253.154	-30.07423
253.69	-50.11601
254.226	5.01223
254.761	4.00919
255.297	-36.08121
255.832	-11.02682
256.367	-13.03132
256.903	35.07932
257.438	37.08807
257.972	-37.08508
258.507	-10.02352
259.042	-13.0291
259.576	16.03627
260.111	1.00235
260.645	-24.05347
261.179	-4.0096
261.713	52.11821
262.247	-56.13229
262.781	-23.05011
263.315	-55.13756
263.849	-1.00256
264.382	11.02581
264.915	-7.01699
265.449	-35.08786
265.982	-74.17475
266.515	25.06239
267.048	-15.03279
267.58	-24.05336
268.113	-38.08505
268.646	-53.13366
269.178	-24.05524
269.71	40.09016
270.243	10.02372
270.775	11.02877
271.307	-9.0219
271.838	-14.03389
272.37	-1.0025
272.902	-2.00464
273.433	2.00455
273.965	19.04701
274.496	-17.04313
275.027	19.04817
275.558	-13.03254
276.089	-5.01278
276.62	-20.0516
277.15	-5.01256
277.681	-6.01327
278.211	-50.12567
278.741	-39.08968
279.272	-12.02824
279.802	-4.01017
280.332	-16.03882
280.861	-19.04661
281.391	-35.08215
281.921	-18.04413
282.45	6.01517
282.98	3.00797
283.509	47.10881
284.038	-7.01646
284.567	33.07831
285.096	-5.01243
285.625	-25.05797
286.153	27.06582
286.682	-9.02127
287.21	-37.09073
287.739	-11.02667
288.267	-4.00998
288.795	-33.08835
289.323	-49.11913
289.851	18.0433
290.378	-46.10622
290.906	23.0574
291.433	12.03052
291.961	-17.04004
292.488	-45.11499
293.015	-10.02427
293.542	75.19466
294.069	53.13323
294.596	8.01996
295.122	39.09525
295.649	-1.00225
296.175	-41.10177
296.702	52.1291
297.228	-48.11934
297.754	-2.00463
298.28	28.06589
298.806	29.07125
299.332	-5.01153
299.857	-16.03752
300.383	15.03846
300.908	-7.01767
301.433	25.06255
301.958	0
302.483	-53.13567
303.008	11.02798
303.533	4.01053
304.058	-25.06008
304.582	-23.05605
305.107	-13.03463
305.631	-24.05621
306.155	-45.10867
306.679	-27.0656
307.203	10.02382
307.727	-22.05376
308.251	18.04537
308.775	44.10908
309.298	-13.03226
309.822	-37.09574
310.345	14.0343
310.868	35.08615
311.391	20.05032
311.914	-18.04636
312.437	21.04923
312.96	16.03865
313.482	-21.0509
314.005	-51.13151
314.527	-14.03728
315.049	-6.01558
315.571	-13.03028
316.093	-13.0331
316.615	-37.09177
317.137	-25.05659
317.659	40.09876
318.18	-35.08621
318.702	36.0863
319.223	-26.05524
319.744	15.03475
320.265	-19.04775
320.786	57.14478
321.307	35.08817
321.828	-8.01866
322.348	8.01936
322.869	24.05862
323.389	216.42002
323.909	-30.07109
324.43	-8.01969
324.95	-14.03316
325.47	54.13631
325.989	19.04628
326.509	-1.00232
327.029	39.09136
327.548	-8.01876
328.067	32.0795
328.587	31.07946
329.106	-65.15323
329.625	19.05048
330.144	16.03831
330.662	12.02903
331.181	49.11824
331.7	-22.05298
332.218	3.00675
332.736	26.06254
333.255	12.02912
333.773	-14.03418
334.291	74.18792
334.808	-1.00234
335.326	-8.01863
335.844	16.03879
336.361	49.12858
336.879	15.0364
337.396	38.09482
337.913	6.01433
338.43	6.01401
338.947	22.05406
339.464	-22.04959
339.981	-23.05657
340.497	34.08558
341.014	12.0301
341.53	-65.15394
342.046	66.16796
342.562	18.04603
343.078	62.14919
343.594	-8.01968
344.11	58.14204
344.626	40.10323
345.141	24.05667
345.657	38.08859
346.172	60.14792
346.687	-21.05014
347.202	67.15683
347.717	17.04178
348.232	24.06134
348.747	46.10922
349.261	19.04329
349.776	54.13156
350.29	70.17852
350.805	37.09365
351.319	-8.01929
351.833	59.13941
352.347	15.03658
352.861	67.16088
353.374	35.08203
353.888	54.13509
354.401	35.08212
354.915	50.11638
355.428	26.06652
355.941	26.06244
356.454	-5.01158
356.967	-3.00725
357.48	-7.01649
357.993	32.08072
358.505	-8.02011
359.018	31.07798
359.53	25.06278
360.042	73.16766
360.554	109.27026
361.066	-10.02516
361.578	40.09137
362.09	45.10986
362.602	32.07383
363.113	85.2041
363.625	60.13998
364.136	12.02739
364.647	72.1745
365.158	11.02649
365.669	25.06146
366.18	26.06306
366.691	45.10178
367.201	65.15916
367.712	79.18507
368.222	102.23918
368.733	67.14993
369.243	63.14487
369.753	34.08079
370.263	47.11636
370.773	15.03757
371.282	80.19483
371.792	61.14502
372.301	23.05713
372.811	56.14931
373.32	75.167
373.829	14.03407
374.338	62.14168
374.847	78.18405
375.356	9.02192
375.865	63.13941
376.373	67.15628
376.882	106.27099
377.39	96.23502
377.898	65.16275
378.407	100.23137
378.915	53.11968
379.423	65.15465
379.93	110.25945
380.438	79.19308
380.946	79.18753
381.453	80.19534
381.96	135.32477
382.468	125.29695
382.975	181.44202
383.482	91.20791
383.989	131.33743
384.495	158.3702
385.002	155.32907
385.509	214.50611
386.015	214.43757
386.521	222.50055
387.028	181.41053
387.534	175.37526
388.04	243.57502
388.546	154.34155
389.051	255.55176
389.557	262.59315
390.063	212.47312
390.568	280.65371
391.073	242.52755
391.578	321.75397
392.084	328.71803
392.589	300.6287
393.093	436.97894
393.598	403.8753
394.103	464.02738
394.607	487.08624
395.112	522.18098
395.616	554.23108
396.12	593.23123
396.624	591.26961
397.128	662.43544
397.632	774.60363
398.136	824.65261
398.639	893.80638
399.143	1066.19673
399.646	1179.25089
400.15	1296.35454
400.653	1454.48412
401.156	1653.64406
401.659	2019.22539
402.162	2640.27665
402.664	3929.84861
403.167	8053.48537
403.67	25126.8532
404.172	59395.94882
404.674	63858.43483
405.176	63738.15102
405.678	63977.72923
406.18	64011.81569
406.682	63863.44694
407.184	28115.36295
407.686	12144.94254
408.187	7290.26958
408.688	4896.7055
409.19	3857.0603
409.691	3240.60818
410.192	2784.51203
410.693	2560.95822
411.194	2496.15482
411.694	2257.28249
412.195	2081.40175
412.696	1943.02111
413.196	1856.54629
413.696	1898.05414
414.196	1886.73565
414.696	1777.07838
415.196	1599.69518
415.696	1284.24712
416.196	1014.98651
416.695	915.84334
417.195	802.69053
417.694	843.51641
418.194	685.29539
418.693	733.48443
419.192	643.3696
419.691	608.28571
420.19	604.32178
420.688	626.39071
421.187	554.03522
421.685	501.07923
422.184	462.01699
422.682	342.71323
423.18	316.69819
423.678	247.54997
424.176	253.56146
424.674	281.60437
425.172	260.59197
425.669	191.45896
426.167	243.54823
426.664	209.46459
427.161	165.37485
427.659	168.40178
428.156	193.40528
428.652	135.3374
429.149	122.29489
429.646	139.30886
430.143	114.27275
430.639	103.24431
431.135	144.35683
431.632	99.22719
432.128	89.21444
432.624	112.28764
433.12	115.26253
433.616	145.3167
434.111	67.16033
434.607	56.13526
435.103	58.12338
435.598	52.11009
436.093	78.18262
436.588	80.18127
437.083	53.12021
437.578	87.20221
438.073	43.10852
438.568	120.29377
439.062	81.17467
439.557	37.08749
440.051	24.0548
440.546	36.08283
441.04	8.01951
441.534	51.12899
442.028	95.22846
442.522	8.01948
443.015	-46.10177
443.509	15.03692
444.002	50.12295
444.496	-14.03109
444.989	3.00738
445.482	7.01753
445.975	39.09104
446.468	41.08985
446.961	29.0639
447.454	-14.03206
447.947	-14.03401
448.439	29.07169
448.931	36.08346
449.424	60.15275
449.916	43.10545
450.408	35.0808
450.9	-47.11662
451.392	9.02305
451.884	-6.01402
452.375	10.02499
452.867	5.01141
453.358	53.12202
453.849	32.06926
454.341	11.02518
454.832	51.11097
455.323	68.16912
455.814	-26.06066
456.304	6.01406
456.795	-6.01392
457.285	-27.06074
457.776	-27.06276
458.266	6.0144
458.756	-24.05764
459.247	11.02656
459.737	48.11642
460.226	33.07582
460.716	27.06496
461.206	-31.07543
461.695	5.01246
462.185	14.03353
462.674	-10.02321
463.163	5.01137
463.653	-22.04786
464.142	5.01223
464.63	-12.02942
465.119	9.02114
465.608	31.07305
466.096	-30.06648
466.585	17.03917
467.073	-25.05987
467.561	14.03382
468.05	-24.05615
468.538	4.00985
469.026	-47.11354
469.513	-42.09078
470.001	24.05551
470.489	15.03591
470.976	24.05643
471.463	-13.03268
471.951	6.015
472.438	-15.03568
472.925	-1.00238
473.412	-36.08862
473.899	4.00927
474.385	14.03445
474.872	10.0235
475.359	12.02967
475.845	-39.08269
476.331	-29.06297
476.817	-15.03689
477.303	-28.06609
477.789	-40.0968
478.275	-7.01751
478.761	-12.0288
479.247	-15.03394
479.732	0
480.218	-17.04491
480.703	15.03711
481.188	-44.09738
481.673	19.04397
482.158	-22.04841
482.643	24.06142
483.128	45.10509
483.612	38.09074
484.097	-10.02434
484.581	27.06276
485.066	32.07854
485.55	0
486.034	-9.0198
486.518	28.0673
487.002	-48.1186
487.486	-46.11345
487.969	-29.07138
488.453	-59.14933
488.936	-43.09872
489.42	-24.05398
489.903	-40.1009
490.386	-111.23833
490.869	2.00444
491.352	-28.06824
491.835	-13.02705
492.318	-70.16125
492.8	-17.03584
493.283	7.01796
493.765	-24.05954
494.247	-12.02826
494.73	-27.06079
495.212	-50.12063
495.694	-46.11043
496.175	-8.01942
496.657	8.01908
497.139	-53.09396
497.62	-19.04626
498.102	-14.0352
498.583	-65.16263
499.064	-33.07491
499.545	-1.0023
500.026	1.00229
500.507	-26.06075
500.988	22.05517
501.469	-45.11381
501.949	-14.03491
502.43	-6.01461
502.91	-2.0043
503.39	-41.1031
503.87	27.06412
504.35	-41.09755
504.83	-40.08923
505.31	-28.0684
505.79	-66.15935
506.269	-67.15733
506.749	-55.12834
507.228	-19.04533
507.707	-33.075
508.187	27.06478
508.666	-18.04511
509.145	-8.01892
509.623	-38.0905
510.102	-31.07608
510.581	47.11341
511.059	-6.01524
511.538	-33.08612
512.016	19.0458
512.494	-43.10509
512.972	3.00725
513.45	-41.0974
513.928	-19.04678
514.406	-43.10724
514.884	-17.04429
515.361	-23.05582
515.839	-5.01166
516.316	-15.03691
516.793	-22.05619
517.27	-53.12992
517.747	-32.08321
518.224	-55.12945
518.701	-51.11525
519.178	9.02268
519.654	-50.12072
520.131	-27.0678
520.607	-99.24842
521.083	-78.18147
521.56	-50.12017
522.036	-55.12262
522.512	-32.0802
522.987	1.00243
523.463	-41.09894
523.939	-18.04524
524.414	-31.07217
524.89	-44.10696
525.365	-39.08982
525.84	-42.10278
526.315	-24.05897
526.79	12.02732
527.265	-1.00234
527.74	-46.11366
528.215	-90.21582
528.689	-71.15986
529.164	-70.15428
529.638	-57.14708
530.112	-64.15394
530.587	-43.09412
531.061	-56.13832
531.534	-36.0882
532.008	-30.0741
532.482	-66.15543
532.956	-28.07236
533.429	-24.05958
533.903	-26.058
534.376	-16.03593
534.849	-66.15543
535.322	-22.05268
535.795	-37.09083
536.268	-24.05895
536.741	-35.08449
537.213	-58.13638
537.686	-54.13475
538.158	-60.13982
538.631	-41.10106
539.103	-28.0644
539.575	-6.01255
540.047	-58.12966
540.519	-39.09486
540.991	-25.06185
541.463	-17.04144
541.934	-92.2143
542.406	-45.11023
542.877	-46.10609
543.348	-60.14809
543.82	-22.05426
544.291	-40.09523
544.762	-45.10929
545.233	-32.08236
545.703	-33.07494
546.174	-73.17382
546.645	-40.09862
547.115	-52.1282
547.585	-21.04912
548.056	21.05205
548.526	-32.07741
548.996	-71.17404
549.466	-48.11903
549.935	-19.04614
550.405	-16.03581
550.875	-16.0386
551.344	-31.07526
551.814	-66.15537
552.283	-27.06022
552.752	-41.09823
553.221	-5.01123
553.69	-23.05306
554.159	-8.02019
554.628	11.02528
555.096	0
555.565	-24.05418
556.033	32.07691
556.502	-69.17077
556.97	15.03382
557.438	9.02138
557.906	4.00956
558.374	46.10728
558.842	27.0652
559.31	48.1081
559.777	12.02964
560.245	8.01858
560.712	56.12864
561.18	78.17264
561.647	77.17067
562.114	38.08771
562.581	90.22041
563.048	92.2099
563.514	143.35377
563.981	77.17621
564.448	120.26869
564.914	105.24212
565.381	153.34407
565.847	129.29687
566.313	139.31796
566.779	200.4384
567.245	123.2817
567.711	145.3418
568.176	168.36965
568.642	200.49087
569.108	196.46981
569.573	216.48503
570.038	215.43592
570.504	273.59171
570.969	243.58168
571.434	309.65286
571.899	313.70643
572.363	337.73166
572.828	398.85506
573.293	357.77111
573.757	393.85394
574.222	388.81346
574.686	396.85186
575.15	482.06642
575.614	519.11663
576.078	409.89588
576.542	472.98868
577.006	449.93697
577.469	522.17139
577.933	526.08729
578.396	461.00736
578.86	476.02901
579.323	488.07972
579.786	506.99803
580.249	579.22724
580.712	497.10721
581.175	453.03315
581.637	456.95939
582.1	393.799
582.563	387.76708
583.025	421.95554
583.487	467.87894
583.95	344.69508
584.412	397.77623
584.874	396.90555
585.336	387.86128
585.797	365.7458
586.259	326.72419
586.721	296.66356
587.182	330.72119
587.643	369.78815
588.105	335.7502
588.566	309.6119
589.027	361.83532
589.488	276.60778
589.949	353.81065
590.41	283.53523
590.87	275.60418
591.331	242.51097
591.791	281.62385
592.252	281.62774
592.712	207.48263
593.172	212.46901
593.632	241.5179
594.092	229.49423
594.552	227.47646
595.011	181.40553
595.471	208.45901
595.931	255.55482
596.39	188.44101
596.849	159.36386
597.308	157.32881
597.768	173.43737
598.227	160.37753
598.685	181.40352
599.144	167.38631
599.603	174.39842
600.062	159.32946
600.52	159.35316
600.978	102.23937
601.437	148.33139
601.895	177.37151
602.353	170.36603
602.811	181.39951
603.269	132.30989
603.727	163.38393
604.184	169.37771
604.642	153.36961
605.099	202.45955
605.557	205.48492
606.014	176.37113
606.471	167.41072
606.928	170.3706
607.385	161.39582
607.842	202.45099
608.299	198.45082
608.755	189.44673
609.212	218.4718
609.668	216.47307
610.125	215.50286
610.581	185.42335
611.037	194.42345
611.493	173.39494
611.949	262.61409
612.405	200.39633
612.861	199.44512
613.316	245.56605
613.772	256.56374
614.227	255.59008
614.683	216.44326
615.138	211.48012
615.593	219.49227
616.048	230.5084
616.503	194.45846
616.958	183.44724
617.412	233.53447
617.867	187.40791
618.321	204.40823
618.776	184.39499
619.23	198.45082
619.684	172.3748
620.138	223.49303
620.592	182.43043
621.046	206.47244
621.5	185.43372
621.954	192.41251
622.407	175.37737
622.861	157.37325
623.314	157.34784
623.768	152.35196
624.221	130.25182
624.674	132.30007
625.127	148.33739
625.58	139.30642
626.033	145.3108
626.485	115.2714
626.938	154.35914
627.39	132.30359
627.843	170.38237
628.295	121.27489
628.747	168.39117
629.199	144.3215
629.651	133.2997
630.103	104.23584
630.555	68.14276
631.006	87.20053
631.458	56.13142
631.909	78.1735
632.361	69.15835
632.812	110.25127
633.263	140.29794
633.714	75.15784
634.165	111.26237
634.616	83.19452
635.067	74.16194
635.518	81.19042
635.968	48.09432
636.419	108.23284
636.869	91.21326
637.319	102.23384
637.769	102.2266
638.219	72.1687
638.669	71.16763
639.119	-28.06778
639.569	69.16442
640.019	50.11527
640.468	31.06966
640.918	72.1695
641.367	31.06954
641.816	42.09335
642.265	81.18745
642.714	34.07804
643.163	85.19475
643.612	62.15122
644.061	20.04303
644.51	79.17977
644.958	76.16673
645.406	31.07415
645.855	53.12818
646.303	93.21257
646.751	52.12008
647.199	103.23049
647.647	108.2474
648.095	28.06399
648.543	77.15512
648.99	96.22801
649.438	24.05564
649.885	93.22932
650.333	76.14666
650.78	116.27605
651.227	115.27719
651.674	82.18558
652.121	90.21853
652.568	41.10032
653.015	45.111
653.461	69.16297
653.908	88.19996
654.354	57.1351
654.801	35.08209
655.247	63.13574
655.693	10.02607
656.139	24.05736
656.585	39.09301
657.031	41.09627
657.477	74.16064
657.922	42.09532
658.368	49.11994
658.813	-11.02523
659.259	73.17562
659.704	54.12757
660.149	67.15345
660.594	49.11591
661.039	49.11137
661.484	50.11798
661.929	42.09795
662.373	9.02265
662.818	73.17894
663.262	28.06773
663.707	32.08129
664.151	34.08277
664.595	35.08455
665.039	46.1137
665.483	51.12908
665.927	60.13993
666.371	71.16581
666.814	20.04758
667.258	59.1414
667.701	52.11047
668.145	47.11645
668.588	67.16472
669.031	18.04242
669.474	1.00241
669.917	-1.00221
670.36	46.11433
670.803	53.12741
671.245	-21.04349
671.688	67.16168
672.13	33.07464
672.573	46.11557
673.015	60.14372
673.457	43.09336
673.899	55.13222
674.341	22.053
674.783	19.04557
675.225	23.05659
675.666	69.16744
676.108	8.01737
676.549	-7.0164
676.991	-11.02434
677.432	-7.01402
677.873	-22.05068
678.314	36.08541
678.755	66.16134
679.196	9.02063
679.637	15.03591
680.078	26.06066
680.518	-15.03467
680.959	7.01669
681.399	-1.00248
681.839	23.05573
682.28	27.06695
682.72	24.05482
683.16	6.01499
683.6	50.11302
684.039	2.00415
684.479	31.0763
684.919	33.07743
685.358	-29.07266
685.798	-19.04965
686.237	13.03099
686.676	-20.04556
687.115	14.03298
687.554	53.12586
687.993	-31.06926
688.432	-34.07832
688.871	36.0822
689.309	16.03834
689.748	6.01251
690.186	-9.02112
690.625	19.04456
691.063	-14.03353
691.501	34.08364
691.939	45.11251
692.377	6.01454
692.815	71.17159
693.253	-5.01192
693.69	38.0827
694.128	-4.00973
694.565	-14.03328
695.003	36.09142
695.44	59.13832
695.877	6.01412
696.314	-47.10013
696.751	20.04517
697.188	54.124
697.625	-19.04269
698.061	-13.0312
698.498	-69.16518
698.934	-4.00956
699.371	-21.04964
699.807	-18.04262
700.243	-17.04113
700.679	-31.06954
701.115	4.00932
701.551	0
701.987	-34.07475
702.422	31.07353
702.858	8.01905
703.294	9.0206
703.729	2.00485
704.164	-44.10575
704.599	2.00447
705.035	-13.02923
705.47	-4.0097
705.904	-16.03712
706.339	15.03429
706.774	19.04427
707.209	18.04171
707.643	-7.01674
708.078	-36.08794
708.512	-9.02255
708.946	19.04472
709.38	-3.00712
709.814	-38.08649
710.248	7.01706
710.682	44.10463
711.116	0
711.549	-38.09729
711.983	-8.01847
712.416	16.03778
712.85	-12.02967
713.283	15.03521
713.716	12.02955
714.149	-13.03007
714.582	17.03798
715.015	-16.03918
715.448	15.03754
715.881	36.07641
716.313	-3.00699
716.746	46.10757
717.178	-8.0192
717.61	16.04042
718.043	-10.02462
718.475	18.04336
718.907	38.09372
719.339	-20.04539
719.77	20.04756
720.202	-2.00498
720.634	-5.01224
721.065	18.04206
721.497	9.02189
721.928	-35.08564
722.359	26.06275
722.79	-33.07915
723.221	-32.07941
723.652	5.01261
724.083	4.00894
724.514	-14.0321
724.945	-13.03035
725.375	-14.03268
725.806	-33.08128
726.236	27.06821
726.666	0
727.096	-27.06594
727.526	16.04089
727.956	-3.00683
728.386	35.08465
728.816	8.02034
729.246	-1.00246
729.675	-33.08041
730.105	-46.11261
730.534	-3.00695
730.964	8.01977
731.393	16.03876
731.822	13.03291
732.251	8.02013
732.68	-29.06695
733.109	-9.02209
733.537	8.01942
733.966	-2.00497
734.395	-14.03224
734.823	-47.10405
735.251	-34.08156
735.68	-8.01958
736.108	-25.06221
736.536	14.03241
736.964	-41.095
737.392	9.02226
737.82	16.03772
738.247	-31.07362
738.675	9.0209
739.102	-24.0596
739.53	19.04838
739.957	40.10208
740.384	-7.01671
740.811	-49.12176
741.238	-10.0244
741.665	1.00234
742.092	-73.16847
742.519	-11.02716
742.945	66.15736
743.372	3.00739
743.798	-32.08161
744.225	-4.00938
744.651	-23.05721
745.077	2.00494
745.503	-53.12789
745.929	-25.0604
746.355	-8.01928
746.781	-16.03901
747.207	12.02823
747.632	69.16801
748.058	31.07712
748.483	1.00228
748.908	4.00987
749.334	18.04387
749.759	17.04007
750.184	13.03103
750.609	4.00969
751.033	-13.03006
751.458	32.07006
751.883	-21.05131
752.307	-8.01868
752.732	36.09081
753.156	-51.12543
753.58	15.03485
754.005	-3.00745
754.429	45.10492
754.853	2.00494
755.277	-8.01886
755.7	3.00737
756.124	6.01476
756.548	17.03959
756.971	-3.00725
757.394	-26.06603
757.818	-13.0333
758.241	10.02513
758.664	16.03988
759.087	5.01117
759.51	-35.08586
759.933	-25.06024
760.356	24.06114
760.778	42.10133
761.201	-23.05512
761.623	-69.16417
762.046	-4.00923
762.468	26.06114
762.89	-41.0995
763.312	20.04829
763.734	12.02857
764.156	8.01951
764.578	-35.07923
765	29.06948
765.421	-20.05075
765.843	-21.05453
766.264	-34.07988
766.686	-39.09613
767.107	-18.04325
767.528	8.02034
767.949	-28.07053
768.37	60.14563
768.791	-40.09526
769.212	-29.07274
769.632	-13.03022
770.053	-32.08301
770.473	-24.05729
770.894	-51.12474
771.314	31.07154
771.734	2.00459
772.154	-6.01511
772.575	-1.00227
772.994	-41.0922
773.414	-24.05641
773.834	-29.07156
774.254	-22.05312
774.673	40.09599
775.093	5.01229
775.512	-11.02688
775.931	5.01251
776.351	-8.01974
776.77	-34.08302
777.189	-18.04231
777.607	-10.02523
778.026	-1.00246
778.445	-38.09599
778.864	-26.06514
779.282	-55.13026
779.701	14.0345
780.119	-4.01001
780.537	-34.08382
780.955	6.0149
781.373	6.01457
781.791	-23.05179
782.209	-37.08249
782.627	-39.10199
783.045	-55.12414
783.462	-11.02772
783.88	-27.06931
784.297	-43.10739
784.715	-8.02038
785.132	-46.10972
785.549	-48.11899
785.966	5.01237
786.383	-2.00487
786.8	7.01593
787.217	-3.00707
787.633	-11.02737
788.05	-17.03886
788.466	-6.01369
788.883	10.02531
789.299	-43.10101
789.715	46.10943
790.131	4.00977
790.547	10.02443
790.963	-5.01217
791.379	-25.06246
791.795	-33.07339
792.21	-28.06406
792.626	-49.11403
793.041	0
793.457	-49.11904
793.872	-31.07117
794.287	24.05694
794.702	-14.03332
795.117	18.044
795.532	-27.06739
795.947	-33.07707
796.362	-55.12703
796.776	15.03352
797.191	6.01442
797.605	3.007
798.02	-13.03103
798.434	38.082
798.848	27.06587
799.262	-24.05867
799.676	23.0547
800.09	-21.05077
800.504	-30.07128
800.918	-38.08582
801.331	-66.16749
801.745	-39.08767
802.158	-51.12483
802.572	11.02604
802.985	4.00935
803.398	-22.05133
803.811	-28.06928
804.224	-26.06273
804.637	-16.03758
805.05	-49.11101
805.462	-26.06237
805.875	-19.04865
806.288	1.00238
806.7	-46.11282
807.112	-43.09718
807.525	-33.07873
807.937	-5.01214
808.349	-57.14004
808.761	-5.01209
809.173	-44.10563
809.584	-27.06513
809.996	-44.10603
810.408	-42.10832
810.819	-23.05316
811.231	3.00788
811.642	25.06065
812.053	-1.00239
812.464	-62.1451
812.875	5.01257
813.286	-13.03317
813.697	-64.14372
814.108	-30.07156
814.519	-10.02198
814.929	-35.08751
815.34	-62.14686
815.75	-15.03775
816.16	-52.12602
816.571	-17.04316
816.981	-43.09848
817.391	-50.11766
817.801	-8.01953
818.211	-11.02554
818.62	-11.02605
819.03	1.00238
819.44	-52.13154
819.849	-42.10294
820.259	-27.06704
820.668	-5.01207
821.077	-1.00245
821.486	-12.02783
821.895	-16.03805
822.304	-45.11728
822.713	-4.00917
823.122	-54.13249
823.531	-58.13329
823.939	-21.05035
824.348	-24.05672
824.756	8.0194
825.164	-31.0761
825.573	-14.0344
825.981	-21.05064
826.389	-9.02204
826.797	1.00249
827.205	-3.00676
827.612	-27.06486
828.02	-43.09852
828.428	-10.02486
828.835	-22.05727
829.243	-42.09741
829.65	-1.00245
830.057	-9.02118
830.464	36.08603
830.871	44.10213
831.278	-12.02833
831.685	-2.00431
832.092	-11.02599
832.499	-4.00855
832.905	-38.09375
833.312	-36.07865
833.718	44.1068
834.124	-13.02902
834.531	-19.04633
834.937	-19.04792
835.343	-19.04434
835.749	-19.04257
836.155	-28.07196
836.561	2.0048
836.966	-21.04995
837.372	-19.04704
837.777	-25.06121
838.183	-18.03869
838.588	18.04371
838.993	25.05898
839.399	-37.08915
839.804	-31.07418
840.209	-19.04795
840.613	-30.06496
841.018	-16.03936
841.423	-2.00501
841.828	-17.04227
842.232	-17.04034
842.637	-9.02092
843.041	24.06008
843.445	-37.09026
843.849	-17.0413
844.253	-31.07174
844.657	-39.09709
845.061	34.07575
845.465	-63.14989
845.869	5.01126
846.272	-29.0695
846.676	-47.10937
847.079	-7.01753
847.483	11.02656
847.886	0
848.289	23.06058
848.692	13.03175
849.095	12.0278
849.498	14.0339
849.901	-36.07988
850.304	2.00463
850.707	-29.07211
851.109	-6.01471
851.512	-21.05056
851.914	-35.08719
852.316	22.05464
852.718	-1.00259
853.121	-3.00716
853.523	-23.052
853.925	26.06663
854.326	-22.05418
854.728	-37.09375
855.13	-28.07156
855.531	-10.02333
855.933	-31.07191
856.334	-14.03438
856.736	-19.04185
857.137	-4.00912
857.538	-25.06199
857.939	-6.01467
858.34	-49.11578
858.741	-36.092
859.142	-40.09347
859.542	-3.00779
859.943	-12.02905
860.343	-29.0708
860.744	0
861.144	40.09504
861.544	7.01658
861.945	-38.09482
862.345	-12.02843
862.745	-3.00732
863.145	-26.05937
863.544	0
863.944	19.04336
864.344	-52.12503
864.743	-15.03621
865.143	64.15987
865.542	-62.13917
865.941	-19.04609
866.34	3.00687
866.74	-29.07649
867.139	16.03765
867.537	-54.13367
867.936	6.01408
868.335	-20.04958
868.734	-15.03752
869.132	-24.05356
869.531	-2.00463
869.929	-18.04012
870.327	9.0209
870.726	-4.00959
871.124	-15.03377
871.522	-41.10203
871.92	9.02154
872.318	-61.14536
872.715	-33.07858
873.113	-54.12831
873.511	-4.00966
873.908	-13.0326
874.306	-24.05884
874.703	-16.03862
875.1	-32.07889
875.497	-44.10277
875.894	-12.02921
876.291	5.01194
876.688	-33.08352
877.085	-19.04404
877.482	-8.01948
877.878	17.04018
878.275	-24.05978
878.671	-75.15854
879.068	4.00935
879.464	16.03739
879.86	-15.03449
880.256	-19.04491
880.652	-37.09214
881.048	-21.05016
881.444	-30.06853
881.84	-42.10446
882.236	29.0704
882.631	-18.04331
883.027	5.01168
883.422	-27.06704
883.817	-88.22046
884.213	-24.06023
884.608	0
885.003	-55.12885
885.398	-58.14283
885.793	-30.07325
886.188	-68.16604
886.582	-9.02227
886.977	14.03186
887.371	-48.11816
887.766	-80.19759
888.16	-52.12498
888.554	-32.07668
888.949	7.01704
889.343	-15.03544
889.737	-32.08453
890.131	-21.05142
890.525	-10.02512
890.918	-14.0343
891.312	-15.03449
891.706	-10.02554
892.099	12.02952
892.492	-49.1023
892.886	-1.00237
893.279	-34.08453
893.672	-14.03502
894.065	-8.01952
894.458	-77.18882
894.851	-21.04973
895.244	-41.10255
895.637	-25.05891
896.029	1.00239
896.422	-63.14915
896.814	-23.05556
897.206	2.00469
897.599	34.08097
897.991	-14.03316
898.383	-31.0716
898.775	25.055
899.167	-14.03224
899.559	-18.044
899.951	-48.10951
900.342	-64.15842
900.734	25.06156
901.125	-43.10988
901.517	23.05468
901.908	-1.00229
902.299	-14.03343
902.69	-5.01156
903.082	5.01173
903.473	23.05409
903.863	-39.09684
904.254	-5.0114
904.645	-10.02385
905.036	-21.05062
905.426	-4.00871
905.817	-44.10487
906.207	-51.11751
906.597	-3.00688
906.987	-38.09561
907.378	-26.06462
907.768	-27.07015
908.158	-44.10467
908.547	15.03819
908.937	-47.1167
909.327	-18.04242
909.717	-44.10752
910.106	-41.09571
910.495	-16.03841
910.885	1.00247
911.274	6.01452
911.663	-45.1108
912.052	-21.04983
912.441	8.01992
912.83	-38.08432
913.219	5.01267
913.608	-23.05514
913.997	-19.04694
914.385	8.01849
914.774	-27.06392
915.162	7.01635
915.55	-10.02329
915.939	-25.06214
916.327	-23.05548
916.715	28.0702
917.103	-19.04467
917.491	8.0191
917.878	-6.01428
918.266	-18.04535
918.654	16.03998
919.041	16.04114
919.429	-42.09675
919.816	53.12905
920.203	34.08029
920.591	-9.02175
920.978	-38.09088
921.365	-34.08778
921.752	-65.14947
922.139	29.06033
922.525	-6.01405
922.912	-32.0758
923.299	-26.06315
923.685	-43.10895
924.072	-62.13625
924.458	-17.04122
924.844	-11.02649
925.231	-50.11256
925.617	-17.04267
926.003	-32.07968
926.389	-42.10366
926.774	-21.05169
927.16	-8.01926
927.546	5.01262
927.931	-17.04101
928.317	-66.14772
928.702	-39.0895
929.088	45.10468
929.473	-45.1132
929.858	-31.07458
930.243	0
930.628	1.00239
931.013	-14.03383
931.398	-22.04818
931.783	-26.06617
932.167	-14.03367
932.552	11.0266
932.937	-2.00479
933.321	-16.03948
933.705	-91.22381
934.09	-49.11864
934.474	-2.00455
934.858	-28.07121
935.242	-40.09005
935.626	-19.04773
936.009	1.00262
936.393	14.03506
936.777	12.03002
937.16	-22.05642
937.544	-43.0971
937.927	-15.03733
938.311	-22.05185
938.694	27.06945
939.077	-36.08405
939.46	-52.12203
939.843	-4.00782
940.226	-48.12003
940.609	17.0381
940.991	-52.12895
941.374	12.02858
941.757	4.00952
942.139	-19.04157
942.522	10.02265
942.904	-20.04677
943.286	-3.00738
943.668	34.08616
944.05	-13.03117
944.432	-21.05023
944.814	-28.06648
945.196	-64.15452
945.578	7.0164
945.959	-39.08806
946.341	-23.05382
946.722	7.01576
947.104	-37.0863
947.485	-8.01804
947.866	-17.04212
948.247	1.00248
948.628	-55.12859
949.009	-38.09527
949.39	-23.05537
949.771	-84.18716
950.152	-59.14221
950.532	28.06852
950.913	-34.07979
951.293	-19.05072
951.674	-52.12308
952.054	-5.01228
952.434	0
952.814	-63.14498
953.194	-36.09094
953.574	2.00475
953.954	-56.12859
954.334	10.02439
954.714	-40.09577
955.093	42.09922
955.473	7.01718
955.853	-16.04043
956.232	6.016
956.611	-14.03211
956.99	-6.01473
957.37	-46.11399
957.749	-81.1867
958.128	-32.0793
958.506	-33.08397
958.885	-23.05636
959.264	11.02646
959.643	3.00664
960.021	10.02419
960.4	-39.08587
960.778	-5.01175
961.156	-56.13704
961.535	-36.08074
961.913	-9.02053
962.291	-32.08141
962.669	-44.10979
963.047	8.01993
963.424	33.08257
963.802	-19.04559
964.18	-26.06301
964.557	43.0942
964.935	-24.05518
965.312	-16.04092
965.69	-29.07009
966.067	-78.18441
966.444	-75.17797
966.821	-6.01507
967.198	10.02313
967.575	-15.03555
967.952	17.03845
968.329	21.04966
968.705	27.05582
969.082	13.03283
969.458	-31.07359
969.835	-3.00707
970.211	21.05281
970.587	3.00726
970.963	-18.04457
971.339	-3.00767
971.715	-32.07817
972.091	-2.00477
972.467	-34.08144
972.843	17.04133
973.219	-14.03224
973.594	-41.10517
973.97	-1.00223
974.345	-29.06791
974.721	-31.07188
975.096	2.00473
975.471	-15.03434
975.846	-9.02079
976.221	-1.00247
976.596	16.03771
976.971	19.04568
977.346	-50.11251
977.72	-66.16433
978.095	-3.00753
978.469	7.01605
978.844	26.06266
979.218	-1.00236
979.593	-8.01847
979.967	-61.14262
980.341	11.02453
980.715	26.06346
981.089	-5.01214
981.463	-6.01332
981.837	-2.0048
982.21	-44.09682
982.584	-11.02591
982.957	-31.07608
983.331	-21.04738
983.704	26.06247
984.078	-85.20588
984.451	-32.07621
984.824	3.00713
985.197	-40.09317
985.57	-50.12063
985.943	-48.11357
986.316	-2.00467
986.688	-19.04439
987.061	24.05431
987.434	10.02566
987.806	-42.09779
988.179	-66.1518
988.551	-6.01471
988.923	-25.05953
989.295	19.04557
989.667	-16.03774
990.039	16.03892
990.411	-67.14832
990.783	3.00656
991.155	-49.11569
991.527	4.00932
991.898	8.01941
992.27	12.02903
992.641	-8.01934
993.012	-79.17729
993.384	-47.10877
993.755	-29.07264
994.126	8.01877
994.497	-57.13708
994.868	-42.09265
995.239	2.00467
995.61	-28.0688
995.98	-39.09222
996.351	-12.0291
996.722	-6.01363
997.092	-14.03234
997.462	-21.04827
997.833	-6.01362
998.203	-42.09768
998.573	2.00485
998.943	-40.09192
999.313	-30.07043
999.683	-17.03976
1000.053	-83.18267
1000.423	7.0163
1000.792	-65.16357
1001.162	-46.10976
1001.531	9.0215
1001.901	-30.07246
1002.27	-51.10847
1002.639	-24.05928
1003.009	-14.03217
1003.378	7.01739
1003.747	-34.07754
1004.116	-23.05333
1004.485	-19.04402
1004.853	-36.08771
1005.222	-72.17489
1005.591	-1.00228
1005.959	-5.01093
1006.328	-22.04816
1006.696	-38.08886
1007.064	-41.09968
1007.433	-23.05544
1007.801	-36.08448
1008.169	-12.0291
1008.537	17.03603
1008.905	-41.09375
1009.273	-23.05477
1009.64	-5.01171
1010.008	-11.02532
1010.375	-52.12089
1010.743	-57.12402
1011.11	20.04653
1011.478	-8.01936
1011.845	-26.05894
1012.212	13.02866
1012.579	-12.02864
1012.946	-31.07077
1013.313	-1.00228
1013.68	-27.05837
1014.047	-23.05318
1014.414	-64.14755
1014.78	15.03618
1015.147	-34.07892
1015.513	-22.05147
1015.88	-34.08416
1016.246	-15.03543
1016.612	-18.03946
1016.978	30.07126
1017.344	-5.01201
1017.71	17.03964
1018.076	-43.09753
1018.442	32.07973
1018.808	25.06092
1019.174	-49.1194
1019.539	-35.07457
1019.905	-20.04602
1020.27	-23.05506
1020.636	-20.0458
1021.001	30.06925
1021.366	-64.15125
1021.731	51.12807
1022.096	-55.13736
1022.461	-3.00688
1022.826	29.06679
1023.191	-27.06923
1023.556	-42.09517
1023.92	-25.05912
1024.285	-18.04211
1024.649	-36.08531
1025.014	-10.02371
1025.378	2.00491
1025.742	-26.06221
1026.107	-14.03044
1026.471	-1.00223
1026.835	-18.04335
1027.199	-44.10354
1027.562	-40.08931
1027.926	-15.03532
1028.29	13.03186
1028.654	-29.06433
1029.017	-6.01433
1029.381	18.04156
1029.744	-22.0547
1030.107	15.03413
1030.471	9.02091
1030.834	-60.13069
1031.197	-28.0654
1031.56	-22.04999
1031.923	-19.04797
1032.286	22.04959
1032.648	-50.11477
1033.011	-13.02931
1033.374	12.02679
1033.736	-28.07204
1034.099	-57.13598
1034.461	-3.00742
1034.823	-29.07069
1035.185	-19.04602
1035.548	4.00946
1035.91	-2.00462
1036.272	-2.00441
1036.634	-30.07131
1036.995	-18.04059
1037.357	-28.06663
1037.719	-26.06156
1038.08	51.1168
1038.442	-54.12479
1038.803	-74.17101
1039.165	-59.14506
1039.526	-33.07764
1039.887	-14.03239
1040.248	12.02909
1040.609	-16.0379
1040.97	-68.1622
1041.331	22.0542
1041.692	7.01606
1042.053	-32.07009
1042.413	-54.12171
1042.774	39.09122
1043.134	-33.07518
1043.495	-38.09313
1043.855	10.02369
1044.215	-10.02391
1044.576	-70.16524
1044.936	6.01314
1045.296	-13.03146
1045.656	-30.07073
1046.016	-20.0465
1046.375	-53.12552
1046.735	16.03553
1047.095	-3.00678
1047.454	-10.02007
1047.814	-12.02796
1048.173	-9.02045
1048.533	-12.02654
1048.892	-83.19664
1049.251	-12.02898
1049.61	-16.03828
1049.969	-31.07066
1050.328	4.00831
1050.687	-26.06099
1051.046	-8.01877
1051.405	-46.11052
1051.763	-54.12251
1052.122	-15.03625
1052.48	-4.00953
1052.839	11.02538
1053.197	-21.04781
1053.555	-11.02359
1053.914	-2.00471
1054.272	-72.16646
1054.63	-61.14636
1054.988	-35.0817
1055.345	-51.10478
1055.703	4.00931
1056.061	25.06291
1056.419	-32.0823
1056.776	-64.14896
1057.134	-109.24371
1057.491	-11.02674
1057.848	-39.094
1058.206	-82.18573
1058.563	-22.04664
1058.92	0
1059.277	-21.05029
1059.634	-70.15848
1059.991	-8.01858
1060.348	-38.08372
1060.704	35.08203
1061.061	14.03056
1061.418	-19.04477
1061.774	-13.03113
1062.131	26.06766
1062.487	-50.11306
1062.843	2.00482
1063.199	-34.08243
1063.555	-17.0385
1063.911	-14.0341
1064.267	4.00783
1064.623	-5.0119
1064.979	-55.12201
1065.335	3.00684
1065.691	-67.15443
1066.046	10.02099
1066.402	-70.15409
1066.757	-42.10358
1067.112	0
1067.468	-15.03481
1067.823	-53.12148
1068.178	-36.08402
1068.533	16.03733
1068.888	7.01601
1069.243	-6.01434
1069.598	-59.13903
1069.952	-19.04236
1070.307	8.01925
1070.662	-23.05371
1071.016	-16.03518
1071.371	25.05479
1071.725	-3.00685
1072.079	-45.10571
1072.434	-21.04973
1072.788	-17.03859
1073.142	12.02851
1073.496	-39.08968
1073.85	0
1074.203	-4.00939
1074.557	18.04703
1074.911	-7.016
1075.265	-26.05846
1075.618	2.00472
1075.971	-6.01376
1076.325	-2.00497
1076.678	-3.00662
1077.031	-102.22161
1077.385	-40.08487
1077.738	-25.05437
1078.091	-4.00886
1078.444	-88.19753
1078.796	0
1079.149	-7.01691
1079.502	-3.0069
1079.855	37.08266
1080.207	16.03783
1080.56	-28.07111
1080.912	-5.01174
1081.264	-46.10846
1081.617	10.02361
1081.969	-29.07177
1082.321	-30.0709
1082.673	-28.06301
1083.025	-33.07546
1083.377	-40.09126
1083.728	-16.03584
1084.08	-75.18241
1084.432	-22.05121
1084.783	-42.0935
1085.135	-50.12313
1085.486	-24.05352
1085.838	-27.06491
1086.189	-2.00474
1086.54	2.00458
1086.891	30.07467
1087.242	4.00959
1087.593	-23.0534
1087.944	19.04164
1088.295	12.02607
1088.646	21.05002
1088.996	-36.08498
1089.347	-35.08299
1089.698	-30.06972
1090.048	7.0175
1090.398	-41.0916
1090.749	-27.06201
1091.099	-26.06455
1091.449	3.00726
1091.799	-27.06574
1092.149	-30.07232
1092.499	-41.09748
1092.849	-42.1045
1093.199	-39.09436
1093.548	7.01642
1093.898	-30.07273
1094.248	-63.15706
1094.597	-38.09612
1094.947	2.0052
1095.296	-16.03859
1095.645	-18.04537
1095.994	-32.07466
1096.343	2.00489
1096.692	3.0078
1097.041	15.04016
1097.39	-58.14146
1097.739	4.01008
1098.088	-35.09106
1098.437	-5.01299
1098.785	-40.10477
1099.134	-36.09188
1099.482	13.03494
1099.83	-24.0616
1100.179	51.13082
1100.527	-41.10539
1100.875	-38.09922
1101.223	31.0803
1101.571	-40.10813
1101.919	-24.06273
1102.267	-11.03061
1102.615	6.01926
1102.962	1.00321
1103.31	14.04491
1103.658	-8.02567
