Data from N1 R1 sample 2_Subt2__0__12-10-20-317.txt Node

Date: Wed Sep 17 12:10:20 PDT 2025
User: uwsun
Spectrometer: HDX01956
Trigger mode: 0
Integration Time (sec): 5.000000E-1
Scans to average: 1
Nonlinearity correction enabled: true
Boxcar width: 0
Storing dark spectrum: false
XAxis mode: Wavelengths
Number of Pixels in Spectrum: 2068
>>>>>Begin Spectral Data<<<<<
194.03	-1.0029
194.578	-3.00976
195.127	2.00641
195.676	4.01286
196.225	-29.07782
196.773	-11.03079
197.321	-22.06181
197.87	28.07301
198.418	25.06569
198.966	58.1549
199.513	52.13434
200.061	38.09834
200.609	52.13915
201.156	18.04049
201.704	24.06168
202.251	45.12147
202.798	17.04499
203.345	46.11603
203.892	46.1183
204.438	16.03889
204.985	35.08497
205.532	15.04026
206.078	33.08224
206.624	71.18072
207.17	57.13619
207.716	49.12247
208.262	52.1056
208.808	54.13806
209.354	63.15837
209.899	22.05656
210.445	16.04099
210.99	42.10461
211.535	76.18183
212.08	5.01194
212.625	38.09671
213.17	67.17312
213.715	57.13285
214.259	36.08597
214.804	64.15912
215.348	80.18767
215.892	41.10158
216.436	-6.0141
216.98	17.03831
217.524	70.1699
218.068	77.19661
218.612	124.31645
219.155	44.10603
219.698	63.15208
220.242	27.06787
220.785	79.18782
221.328	24.06043
221.871	97.24873
222.414	54.13523
222.956	-27.06643
223.499	-29.06671
224.041	34.07904
224.583	7.01513
225.126	74.16399
225.668	35.08637
226.21	20.05154
226.751	71.16006
227.293	44.101
227.835	58.14378
228.376	48.11062
228.918	-2.00508
229.459	42.10621
230	67.16259
230.541	61.14184
231.082	56.13796
231.622	-24.05579
232.163	1.00246
232.704	84.21158
233.244	54.13543
233.784	45.11035
234.324	42.09617
234.864	14.03228
235.404	28.06697
235.944	39.09311
236.484	65.16363
237.023	17.04081
237.563	55.1295
238.102	51.12209
238.641	14.03577
239.18	27.06451
239.719	34.08628
240.258	25.05721
240.797	49.11855
241.335	12.0297
241.874	77.15191
242.412	65.15957
242.95	68.16598
243.488	13.02979
244.026	90.21071
244.564	91.18873
245.102	76.17396
245.64	15.03646
246.177	4.00909
246.715	59.14329
247.252	27.06233
247.789	98.18284
248.326	40.09785
248.863	9.02029
249.4	92.20965
249.936	109.22949
250.473	100.23751
251.009	19.04435
251.546	27.06156
252.082	15.0331
252.618	66.14937
253.154	65.15803
253.69	20.04576
254.226	40.09723
254.761	38.08673
255.297	26.05791
255.832	64.15388
256.367	36.08593
256.903	93.20828
257.438	78.18419
257.972	47.10626
258.507	57.13233
259.042	27.05995
259.576	92.20532
260.111	43.10018
260.645	66.14431
261.179	47.11174
261.713	97.21849
262.247	38.08813
262.781	52.11148
263.315	-10.02481
263.849	66.16677
264.382	55.12794
264.915	38.09144
265.449	35.08675
265.982	60.138
266.515	90.22196
267.048	40.08642
267.58	43.09428
268.113	12.02658
268.646	43.10658
269.178	16.03653
269.71	77.17224
270.243	105.24443
270.775	71.18378
271.307	41.09882
271.838	103.24384
272.37	17.04241
272.902	67.15339
273.433	125.27752
273.965	32.07898
274.496	53.1328
275.027	85.21298
275.558	71.17501
276.089	79.19895
276.62	30.07672
277.15	64.15883
277.681	43.09412
278.211	8.0199
278.741	103.23011
279.272	46.10702
279.802	67.16812
280.332	74.17651
280.861	40.09705
281.391	52.11998
281.921	36.08738
282.45	90.22417
282.98	83.2175
283.509	84.19304
284.038	100.23027
284.567	77.18116
285.096	78.19095
285.625	27.06196
286.153	112.26868
286.682	43.10058
287.21	23.05577
287.739	74.17657
288.267	50.12354
288.795	60.15816
289.323	56.13347
289.851	80.19016
290.378	69.15568
290.906	76.18785
291.433	81.20347
291.961	85.19624
292.488	61.15296
293.015	80.19089
293.542	99.25589
294.069	80.20013
294.596	48.1189
295.122	119.28628
295.649	32.0715
296.175	51.12446
296.702	104.25574
297.228	90.21812
297.754	75.17087
298.28	94.21835
298.806	47.11508
299.332	105.2369
299.857	103.2359
300.383	70.17776
300.908	72.17914
301.433	88.21767
301.958	56.13044
302.483	49.12318
303.008	92.23065
303.533	64.16677
304.058	39.09258
304.582	33.07957
305.107	61.1605
305.631	73.16773
306.155	77.18165
306.679	45.10785
307.203	121.28213
307.727	87.20827
308.251	53.13275
308.775	133.32432
309.298	55.13477
309.822	57.14508
310.345	112.26939
310.868	119.28834
311.391	111.27471
311.914	97.2448
312.437	86.19906
312.96	118.27951
313.482	10.0241
314.005	64.16172
314.527	43.11341
315.049	94.23981
315.571	90.20534
316.093	120.29834
316.615	88.21327
317.137	112.24644
317.659	114.27763
318.18	79.19049
318.702	123.28995
319.223	85.17621
319.744	103.23448
320.265	73.1804
320.786	110.27676
321.307	97.24165
321.828	61.14032
322.348	88.20974
322.869	132.31593
323.389	454.83285
323.909	52.12127
324.43	112.26949
324.95	91.21118
325.47	131.3261
325.989	86.20686
326.509	100.22714
327.029	118.27215
327.548	94.21602
328.067	101.24776
328.587	136.34218
329.106	98.22368
329.625	145.37712
330.144	165.3838
330.662	147.34652
331.181	161.38026
331.7	121.28346
332.218	146.31882
332.736	195.45394
333.255	176.41383
333.773	126.29961
334.291	169.42192
334.808	163.36836
335.326	153.34505
335.844	130.30841
336.361	192.49152
336.879	184.4323
337.396	213.51454
337.913	181.41786
338.43	152.34469
338.947	195.46376
339.464	198.42614
339.981	159.37786
340.497	162.39835
341.014	194.4705
341.53	140.31838
342.046	235.58007
342.562	175.43515
343.078	191.44831
343.594	200.473
344.11	233.552
344.626	213.5331
345.141	187.42758
345.657	210.47292
346.172	214.51256
346.687	190.43523
347.202	237.53623
347.717	203.48167
348.232	199.49284
348.747	223.51133
349.261	163.36053
349.776	267.62446
350.29	258.63601
350.805	253.61553
351.319	191.44322
351.833	242.55144
352.347	258.60046
352.861	277.63844
353.374	264.59086
353.888	265.63748
354.401	244.54903
354.915	265.59053
355.428	275.67254
355.941	220.5088
356.454	222.49072
356.967	228.52688
357.48	209.47172
357.993	283.68154
358.505	210.50701
359.018	289.69309
359.53	294.70226
360.042	281.6184
360.554	317.75588
361.066	254.60859
361.578	323.69559
362.09	286.66666
362.602	336.72809
363.113	372.84418
363.625	287.63955
364.136	320.68484
364.647	280.65191
365.158	317.71896
365.669	317.73702
366.18	316.72439
366.691	319.68107
367.201	328.76364
367.712	371.81917
368.222	361.80342
368.733	268.5748
369.243	338.7343
369.753	340.75999
370.263	362.84411
370.773	308.73035
371.282	383.87953
371.792	383.85379
372.301	381.88403
372.811	358.90606
373.32	378.78865
373.829	379.85884
374.338	411.8729
374.847	424.93284
375.356	389.87971
375.865	419.85807
376.373	439.9486
376.882	471.12377
377.39	486.10075
377.898	476.10031
378.407	531.12093
378.915	539.09403
379.423	500.08744
379.93	661.38909
380.438	588.29754
380.946	642.35533
381.453	651.41666
381.96	725.54513
382.468	686.45023
382.975	801.72567
383.482	791.54949
383.989	818.84831
384.495	909.81281
385.002	855.53726
385.509	997.99584
386.015	1029.71729
386.521	1135.07822
387.028	1152.09416
387.534	1123.91675
388.04	1242.36408
388.546	1118.98123
389.051	1310.19754
389.557	1345.37215
390.063	1464.42442
390.568	1511.67053
391.073	1528.43067
391.578	1687.90403
392.084	1724.67629
392.589	1758.52372
393.093	1962.04326
393.598	2067.93913
394.103	2283.20006
394.607	2521.34974
395.112	2675.5064
395.616	2851.47167
396.12	3046.13972
396.624	3408.2806
397.128	3703.35622
397.632	4122.05075
398.136	4387.78151
398.639	4603.82151
399.143	5265.8431
399.646	5829.21829
400.15	6502.86725
400.653	7334.7986
401.156	8209.32734
401.659	9641.82881
402.162	11596.98842
402.664	15566.41748
403.167	22471.33492
403.67	44366.76612
404.172	61503.4829
404.674	63858.43483
405.176	63738.15102
405.678	63977.72923
406.18	64011.81569
406.682	63863.44694
407.184	63926.60148
407.686	63841.39382
408.187	64025.8516
408.688	38943.81941
409.19	27184.65849
409.691	22027.88765
410.192	18462.44171
410.693	16014.22519
411.194	14545.80119
411.694	13691.00221
412.195	12686.48035
412.696	11471.31218
413.196	10860.10959
413.696	10628.74809
414.196	10640.03395
414.696	10462.10644
415.196	9811.25136
415.696	9050.52549
416.196	7264.89805
416.695	5618.26737
417.195	4882.8074
417.694	4663.01741
418.194	4341.25865
418.693	4117.8488
419.192	3863.15624
419.691	3794.08767
420.19	3690.34081
420.688	3681.47487
421.187	3447.44414
421.685	3181.22213
422.184	2934.31474
422.682	2514.8519
423.18	2121.96215
423.678	1864.78061
424.176	1754.69214
424.674	1659.52611
425.172	1553.61289
425.669	1500.6994
426.167	1435.44952
426.664	1319.25645
427.161	1195.14473
427.659	1131.19951
428.156	1051.79056
428.652	1008.11132
429.149	931.90133
429.646	917.70631
430.143	854.74986
430.639	736.52889
431.135	763.67183
431.632	676.36917
432.128	672.43671
432.624	622.45078
433.12	645.31255
433.616	642.25276
434.111	532.15715
434.607	527.1567
435.103	517.98981
435.598	536.01289
436.093	480.0328
436.588	512.05593
437.083	424.88893
437.578	438.94705
438.073	431.00931
438.568	438.0063
439.062	389.7833
439.557	351.77923
440.051	318.68291
440.546	317.68824
441.04	380.86163
441.534	326.78374
442.028	369.84094
442.522	257.5966
443.015	267.552
443.509	302.70368
444.002	320.74737
444.496	257.53847
444.989	317.73411
445.482	294.69796
445.975	362.79111
446.468	302.62534
446.961	302.6273
447.454	247.53582
447.947	265.60981
448.439	271.64002
448.931	272.60098
449.424	320.77689
449.916	271.6363
450.408	252.55656
450.9	234.55062
451.392	237.58264
451.884	219.48904
452.375	263.6269
452.867	209.45725
453.358	253.55912
453.849	225.46684
454.341	224.49079
454.832	236.49327
455.323	258.61935
455.814	118.26748
456.304	198.44662
456.795	185.41295
457.285	173.37321
457.776	173.38617
458.266	166.3862
458.756	164.37974
459.247	213.49466
459.737	206.48474
460.226	225.49704
460.716	153.35926
461.206	150.35256
461.695	164.39685
462.185	188.43531
462.674	161.36102
463.163	191.41787
463.653	174.36272
464.142	175.41444
464.63	186.43921
465.119	187.42397
465.608	209.47538
466.096	128.2743
466.585	183.40764
467.073	171.39415
467.561	110.26086
468.05	124.28165
468.538	138.3313
469.026	138.3217
469.513	156.32288
470.001	173.38824
470.489	128.2998
470.976	198.44973
471.463	156.38019
471.951	141.34383
472.438	93.21659
472.925	152.35084
473.412	109.26113
473.899	107.24279
474.385	170.40625
474.872	139.31847
475.359	149.35913
475.845	105.21562
476.331	51.10884
476.817	115.27603
477.303	130.29743
477.789	91.21476
478.275	82.20186
478.761	84.1979
479.247	122.26833
479.732	92.22731
480.218	128.32987
480.703	82.20037
481.188	75.16187
481.673	103.23438
482.158	83.1786
482.643	106.26737
483.128	126.28956
483.612	117.27516
484.097	78.18676
484.581	78.17947
485.066	153.3671
485.55	43.09543
486.034	68.14717
486.518	114.26951
487.002	35.08516
487.486	70.16895
487.969	52.12607
488.453	82.20231
488.936	78.17472
489.42	79.17394
489.903	71.17552
490.386	-7.01469
490.869	109.23636
491.352	56.13434
491.835	42.08631
492.318	50.11242
492.8	43.08946
493.283	85.21505
493.765	65.15863
494.247	86.19866
494.73	43.09543
495.212	26.06183
495.694	73.17128
496.175	53.12722
496.657	90.21129
497.139	10.01744
497.62	70.16761
498.102	31.07731
498.583	-26.0646
499.064	37.0828
499.545	70.15893
500.026	59.13339
500.507	11.02552
500.988	89.22051
501.469	-6.01507
501.949	77.18882
502.43	53.1276
502.91	93.19607
503.39	33.08188
503.87	33.07828
504.35	11.02591
504.83	50.10946
505.31	65.15602
505.79	-1.00238
506.269	44.10108
506.749	29.06655
507.228	74.17339
507.707	89.19727
508.187	76.18065
508.666	90.22115
509.145	39.0914
509.623	57.13327
510.102	49.11846
510.581	81.1942
511.059	71.17784
511.538	59.15155
512.016	90.21401
512.494	21.05071
512.972	42.10072
513.45	42.09818
513.928	95.22898
514.406	96.23336
514.884	138.34994
515.361	96.22775
515.839	120.2729
516.316	99.23844
516.793	111.27682
517.27	89.21241
517.747	72.18388
518.224	102.23272
518.701	65.14341
519.178	89.22107
519.654	132.30771
520.131	100.24536
520.607	63.15346
521.083	58.13131
521.56	54.12722
522.036	85.184
522.512	88.21575
522.987	96.22942
523.463	84.1979
523.939	142.34659
524.414	94.21342
524.89	117.2758
525.365	74.16658
525.84	40.0964
526.315	83.19991
526.79	73.16416
527.265	83.19086
527.74	33.08035
528.215	42.09818
528.689	13.02877
529.164	20.04325
529.638	13.03314
530.112	8.01898
530.587	61.13058
531.061	20.04871
531.534	44.1062
532.008	78.18882
532.482	56.12875
532.956	4.01028
533.429	65.15874
533.903	58.12714
534.376	47.10418
534.849	41.09454
535.322	39.09229
535.795	20.04858
536.268	62.14986
536.741	10.02393
537.213	25.05783
537.686	20.04924
538.158	28.06412
538.631	15.03659
539.103	41.093
539.575	22.04572
540.047	76.16519
540.519	15.03611
540.991	50.122
541.463	-21.05123
541.934	11.0251
542.406	30.07246
542.877	27.06137
543.348	49.11851
543.82	36.08784
544.291	97.22483
544.762	55.13106
545.233	100.25142
545.703	5.01127
546.174	64.14837
546.645	61.14759
547.115	73.17582
547.585	27.06256
548.056	98.23947
548.526	100.23587
548.996	32.07694
549.466	79.19135
549.935	77.18363
550.405	69.15173
550.875	72.17081
551.344	74.1761
551.814	106.24116
552.283	116.25106
552.752	122.28317
553.221	144.31365
553.69	154.34269
554.159	177.43177
554.628	142.31782
555.096	148.3709
555.565	115.25224
556.033	177.41366
556.502	137.32621
556.97	134.29472
557.438	127.29483
557.906	130.30317
558.374	193.43704
558.842	197.4604
559.31	188.41122
559.777	176.42155
560.245	165.37135
560.712	156.35117
561.18	185.4003
561.647	195.42158
562.114	227.50418
562.581	199.47746
563.048	237.52486
563.514	287.69117
563.981	246.54377
564.448	293.63262
564.914	286.63561
565.381	303.66037
565.847	278.62065
566.313	312.68877
566.779	281.60541
567.245	303.66877
567.711	280.64265
568.176	326.69345
568.642	308.74075
569.108	340.79251
569.573	284.6288
570.038	366.71646
570.504	379.80284
570.969	332.78117
571.434	387.80366
571.899	372.82944
572.363	415.88601
572.828	454.96358
573.293	392.84035
573.757	465.99488
574.222	428.88939
574.686	453.96251
575.15	424.95122
575.614	568.20939
576.078	448.97322
576.542	466.97741
577.006	506.04073
577.469	509.14521
577.933	498.03575
578.396	438.96364
578.86	513.10039
579.323	552.2053
579.786	516.01364
580.249	557.18619
580.712	467.0467
581.175	474.07657
581.637	435.91944
582.1	460.92094
582.563	459.89448
583.025	466.04596
583.487	534.98853
583.95	427.84636
584.412	478.91668
584.874	488.09318
585.336	443.97443
585.797	440.88375
586.259	431.9365
586.721	418.91347
587.182	486.02511
587.643	468.97813
588.105	466.01336
588.566	406.78574
589.027	475.07208
589.488	444.94319
589.949	446.00303
590.41	452.81957
590.87	430.91385
591.331	453.91217
591.791	398.86205
592.252	429.92898
592.712	409.91551
593.172	425.89831
593.632	446.91605
594.092	409.84859
594.552	373.75765
595.011	384.82427
595.471	470.98014
595.931	396.83574
596.39	366.82855
596.849	348.76599
597.308	350.70169
597.768	361.88182
598.227	331.75497
598.685	353.75888
599.144	357.79452
599.603	309.68828
600.062	341.67779
600.52	385.81484
600.978	318.71463
601.437	392.83346
601.895	419.83245
602.353	341.70719
602.811	379.80179
603.269	344.774
603.727	337.76679
604.184	362.77672
604.642	363.84194
605.099	379.83123
605.557	369.84501
606.014	353.71539
606.471	371.87783
606.928	391.81233
607.385	418.97847
607.842	388.83286
608.299	357.78662
608.755	398.90244
609.212	318.67349
609.668	424.88775
610.125	393.88694
610.581	434.94322
611.037	371.77937
611.493	389.84921
611.949	408.92886
612.405	392.74194
612.861	348.75441
613.316	365.82309
613.772	372.79921
614.227	420.93993
614.683	368.72924
615.138	357.78826
615.593	361.78776
616.048	418.88758
616.503	369.8423
616.958	370.87259
617.412	399.88466
617.867	367.76995
618.321	385.73814
618.776	392.80369
619.23	373.81911
619.684	378.7876
620.138	360.7731
620.592	274.63643
621.046	365.8103
621.5	313.71536
621.954	325.67823
622.407	359.74352
622.861	312.71953
623.314	317.67886
623.768	369.81748
624.221	350.64235
624.674	331.722
625.127	314.69174
625.58	316.67072
626.033	332.68284
626.485	317.71866
626.938	335.75329
627.39	374.81837
627.843	342.74204
628.295	315.68739
628.747	348.7814
629.199	369.78542
629.651	289.63039
630.103	326.70582
630.555	311.61788
631.006	319.70113
631.458	340.7534
631.909	341.71699
632.361	294.64415
632.812	332.72433
633.263	357.72383
633.714	380.74598
634.165	332.75098
634.616	348.77305
635.067	409.83153
635.518	361.80209
635.968	387.69972
636.419	393.79536
636.869	342.76194
637.319	420.90115
637.769	402.83723
638.219	381.83843
638.669	369.82054
639.119	376.84044
639.569	410.91264
640.019	369.79634
640.468	387.80581
640.918	404.88922
641.367	379.78916
641.816	465.94236
642.265	450.96467
642.714	421.89102
643.163	435.92628
643.612	452.01946
644.061	417.82036
644.51	446.93918
644.958	489.97922
645.406	394.87667
645.855	483.07064
646.303	476.00178
646.751	510.06782
647.199	485.99952
647.647	492.03779
648.095	445.9311
648.543	559.00001
648.99	553.195
649.438	503.0529
649.885	515.16819
650.333	581.98592
650.78	501.10138
651.227	487.08848
651.674	500.03298
652.121	525.16776
652.568	547.20922
653.015	494.11481
653.461	501.08154
653.908	450.94718
654.354	529.13672
654.801	478.02144
655.247	459.90469
655.693	463.1097
656.139	468.02074
656.585	461.00778
657.031	491.04904
657.477	456.90913
657.922	450.93635
658.368	508.13432
658.813	453.94196
659.259	486.07484
659.704	483.0435
660.149	444.93949
660.594	463.00491
661.039	487.0063
661.484	517.1066
661.929	519.09412
662.373	440.01856
662.818	479.08289
663.262	454.00729
663.707	517.19689
664.151	504.11611
664.595	467.03339
665.039	502.13382
665.483	533.22959
665.927	527.11345
666.371	536.13472
666.814	487.05171
667.258	540.17259
667.701	617.14779
668.145	582.29713
668.588	546.22031
669.031	543.14631
669.474	546.17708
669.917	551.07311
670.36	590.31715
670.803	584.25913
671.245	519.94517
671.688	570.24151
672.13	535.08392
672.573	549.25096
673.015	571.23132
673.457	559.07839
673.899	590.27099
674.341	574.23489
674.783	575.22989
675.225	612.33818
675.666	624.35295
676.108	563.07624
676.549	547.13961
676.991	579.12133
677.432	631.07695
677.873	581.1746
678.314	627.31466
678.755	604.32511
679.196	595.20076
679.637	559.19613
680.078	663.34984
680.518	563.14908
680.959	622.30502
681.399	611.34246
681.839	677.43462
682.28	684.4876
682.72	608.22282
683.16	639.40875
683.6	638.26675
684.039	644.14325
684.479	676.46147
684.919	703.43009
685.358	652.42814
685.798	632.46258
686.237	655.36559
686.676	647.27239
687.115	703.43074
687.554	705.4602
687.993	722.35983
688.432	711.39124
688.871	765.48719
689.309	745.53283
689.748	797.36984
690.186	757.50655
690.625	733.47564
691.063	740.51331
691.501	815.71007
691.939	813.74406
692.377	756.56909
692.815	811.68148
693.253	796.60153
693.69	774.41945
694.128	847.72574
694.565	845.67179
695.003	826.79665
695.44	854.68686
695.877	801.58906
696.314	735.29876
696.751	857.60235
697.188	850.63741
697.625	813.51245
698.061	840.68396
698.498	873.70874
698.934	896.76827
699.371	858.67815
699.807	905.75561
700.243	889.7778
700.679	853.56345
701.115	920.75213
701.551	945.77938
701.987	891.57677
702.422	929.81679
702.858	924.80742
703.294	1002.83303
703.729	980.93516
704.164	926.80963
704.599	980.74413
705.035	965.73286
705.47	932.85658
705.904	932.75271
706.339	934.73672
706.774	938.7856
707.209	1028.90147
707.643	960.86556
708.078	950.88723
708.512	978.00344
708.946	965.84819
709.38	982.88215
709.814	978.76568
710.248	982.95087
710.682	1004.94102
711.116	983.94335
711.549	935.97493
711.983	951.77232
712.416	983.88091
712.85	898.84257
713.283	940.80326
713.716	983.97956
714.149	893.69034
714.582	964.73062
715.015	921.85629
715.448	916.91159
715.881	862.49963
716.313	898.71595
716.746	890.73263
717.178	892.76859
717.61	859.83567
718.043	886.81385
718.475	884.77471
718.907	832.74615
719.339	828.55299
719.77	826.6551
720.202	818.72805
720.634	821.69542
721.065	779.54464
721.497	812.6727
721.928	741.54647
722.359	736.53365
722.79	776.56983
723.221	702.50351
723.652	736.60823
724.083	683.31052
724.514	659.30395
724.945	668.34739
725.375	675.35872
725.806	635.36718
726.236	659.47226
726.666	626.28395
727.096	618.32398
727.526	672.51398
727.956	611.2156
728.386	561.21903
728.816	556.27228
729.246	581.26951
729.675	481.05646
730.105	537.16879
730.534	538.10915
730.964	512.14468
731.393	505.10787
731.822	525.20438
732.251	471.08334
732.68	498.02654
733.109	515.1379
733.537	481.06133
733.966	516.15648
734.395	470.97709
734.823	431.85868
735.251	416.91179
735.68	379.86024
736.108	360.83251
736.536	391.83694
736.964	376.79875
737.392	391.89861
737.82	340.75089
738.247	365.8002
738.675	345.74775
739.102	291.68085
739.53	390.92722
739.957	375.89996
740.384	307.68836
740.811	267.62495
741.238	343.78138
741.665	308.67568
742.092	204.44471
742.519	261.61211
742.945	299.68089
743.372	291.67898
743.798	267.64472
744.225	237.52923
744.651	242.57276
745.077	207.49173
745.503	214.4902
745.929	265.60494
746.355	218.50277
746.781	218.50817
747.207	211.47702
747.632	256.60144
748.058	250.59695
748.483	262.56484
748.908	232.54846
749.334	227.53155
749.759	236.53255
750.184	218.49976
750.609	188.43963
751.033	177.39379
751.458	218.45848
751.883	170.4005
752.307	153.3459
752.732	181.44466
753.156	167.39412
753.58	162.36542
754.005	112.27215
754.429	175.39757
754.853	155.37175
755.277	151.34499
755.7	192.45496
756.124	135.32416
756.548	87.19981
756.971	138.32448
757.394	68.1698
757.818	105.26338
758.241	117.28839
758.664	122.29822
759.087	94.20614
759.51	101.24151
759.933	95.22368
760.356	145.36148
760.778	89.21281
761.201	118.27518
761.623	68.15752
762.046	89.20146
762.468	148.33971
762.89	97.22928
763.312	118.27962
763.734	78.18333
764.156	70.16876
764.578	86.18987
765	84.19913
765.421	67.1674
765.843	101.25671
766.264	64.14749
766.686	71.17146
767.107	89.20947
767.528	122.30387
767.949	87.21461
768.37	90.21722
768.791	68.15858
769.212	85.20882
769.632	32.07372
770.053	23.0591
770.473	68.15946
770.894	42.10095
771.314	45.10356
771.734	26.05944
772.154	59.14687
772.575	58.13003
772.994	33.07308
773.414	30.06977
773.834	38.09261
774.254	23.05506
774.673	83.19756
775.093	64.15563
775.512	68.16375
775.931	44.10931
776.351	28.06865
776.77	47.11303
777.189	32.07448
777.607	36.09009
778.026	23.05628
778.445	47.11692
778.864	14.03482
779.282	46.10681
779.701	18.04433
780.119	21.05233
780.537	-7.01717
780.955	30.07418
781.373	48.11563
781.791	58.12842
782.209	35.07687
782.627	9.02334
783.045	15.03337
783.462	69.17139
783.88	8.02041
784.297	25.06167
784.715	8.02032
785.132	21.04945
785.549	15.03676
785.966	41.10076
786.383	46.11106
786.8	34.07695
787.217	61.14201
787.633	50.12304
788.05	11.025
788.466	27.06122
788.883	-3.00761
789.299	5.01164
789.715	55.13061
790.131	1.00244
790.547	4.00978
790.963	28.06776
791.379	17.04215
791.795	-25.05551
792.21	12.02723
792.626	-9.02078
793.041	6.01448
793.457	-26.06289
793.872	5.0114
794.287	15.03565
794.702	8.01896
795.117	8.01959
795.532	22.05442
795.947	-8.01859
796.362	-12.02748
796.776	-1.00224
797.191	59.14038
797.605	15.03491
798.02	-13.03103
798.434	60.12886
798.848	47.11423
799.262	-3.0073
799.676	31.07362
800.09	29.06945
800.504	20.04706
800.918	-22.04953
801.331	-12.03016
801.745	15.03334
802.158	-31.0756
802.572	28.06607
802.985	3.00701
803.398	-9.02094
803.811	2.00492
804.224	-3.00721
804.637	-4.00937
805.05	42.09338
805.462	4.00954
805.875	12.03056
806.288	3.00713
806.7	-25.06108
807.112	18.04017
807.525	-20.04759
807.937	-6.01457
808.349	14.03394
808.761	48.11493
809.173	23.05451
809.584	-19.04576
809.996	-39.0939
810.408	11.02811
810.819	8.01838
811.231	65.16894
811.642	52.1255
812.053	56.13245
812.464	-31.07211
812.875	26.06511
813.286	1.00255
813.697	48.10531
814.108	46.10812
814.519	62.13419
814.929	16.03963
815.34	0
815.75	22.055
816.16	-25.06028
816.571	-26.06612
816.981	-20.04559
817.391	-39.09158
817.801	-13.03177
818.211	18.04155
818.62	77.17925
819.03	2.00476
819.44	-18.04526
819.849	-18.04392
820.259	-25.06205
820.668	4.00964
821.077	70.16933
821.486	-14.03248
821.895	-15.03566
822.304	2.00517
822.713	6.01373
823.122	6.01456
823.531	-25.05707
823.939	24.05705
824.348	0
824.756	25.06042
825.164	-24.05884
825.573	2.0049
825.981	21.05023
826.389	38.09223
826.797	33.0817
827.205	19.04262
827.612	-9.02155
828.02	-5.01137
828.428	-3.00745
828.835	28.07226
829.243	-53.12319
829.65	28.06814
830.057	-20.04717
830.464	30.07178
830.871	40.09292
831.278	8.01881
831.685	11.02364
832.092	-22.05209
832.499	15.03192
832.905	-12.02946
833.312	-20.04354
833.718	4.00978
834.124	39.08612
834.531	-18.04389
834.937	20.05009
835.343	1.00232
835.749	13.02893
836.155	21.05351
836.561	-29.06995
836.966	-17.0404
837.372	-22.0545
837.777	17.0413
838.183	46.09751
838.588	25.06062
838.993	20.04723
839.399	12.02864
839.804	-38.09106
840.209	23.05761
840.613	-5.01077
841.018	-10.02457
841.423	22.05488
841.828	0
842.232	-12.02845
842.637	37.08522
843.041	-31.07838
843.445	-19.04619
843.849	6.01451
844.253	46.10482
844.657	-56.13984
845.061	58.12859
845.465	-28.06617
845.869	31.06946
846.272	5.01191
846.676	-26.06025
847.079	12.02994
847.483	68.16244
847.886	31.07211
848.289	2.00529
848.692	-4.0098
849.095	43.099
849.498	-9.02189
849.901	-19.04201
850.304	17.03926
850.707	-25.06212
851.109	40.0972
851.512	6.01437
851.914	-23.05717
852.316	27.06699
852.718	17.04387
853.121	17.04042
853.523	-20.04519
853.925	-2.00515
854.326	31.0756
854.728	9.02262
855.13	40.101
855.531	-1.00233
855.933	13.02989
856.334	-26.06398
856.736	28.06107
857.137	22.04991
857.538	18.04428
857.939	37.08972
858.34	-19.04463
858.741	23.05817
859.142	2.00463
859.542	26.06717
859.943	13.03132
860.343	-10.02433
860.744	37.08705
861.144	43.10211
861.544	26.06135
861.945	-34.08478
862.345	0
862.745	-2.00488
863.145	-7.01592
863.544	7.01726
863.944	70.1581
864.344	-1.00238
864.743	7.01683
865.143	82.20417
865.542	-13.02889
865.941	4.00966
866.34	-15.03448
866.74	27.07054
867.139	13.03061
867.537	-14.0344
867.936	2.0047
868.335	10.02465
868.734	-1.00249
869.132	-23.05132
869.531	-13.03019
869.929	10.02216
870.327	37.08546
870.726	34.08094
871.124	19.04248
871.522	28.0688
871.92	37.08807
872.318	-4.00943
872.715	-3.0071
873.113	-30.07095
873.511	2.00482
873.908	-13.0326
874.306	21.05106
874.703	-6.01445
875.1	-4.00981
875.497	-16.03717
875.894	20.0484
876.291	25.05946
876.688	23.05763
877.085	25.05744
877.482	-6.01461
877.878	54.12673
878.275	6.01486
878.671	-40.0839
879.068	40.09288
879.464	16.03739
879.86	12.02744
880.256	-11.02596
880.652	1.00247
881.048	-11.02622
881.444	-35.08003
881.84	34.08339
882.236	-7.01711
882.631	24.05729
883.027	3.00701
883.422	-29.07204
883.817	27.06623
884.213	16.03987
884.608	55.13277
885.003	1.00232
885.398	-7.01708
885.793	-27.06589
886.188	-39.09471
886.582	24.05902
886.977	28.06355
887.371	20.04862
887.766	-9.02194
888.16	-17.04059
888.554	18.04272
888.949	15.03647
889.343	-1.00236
889.737	-10.02632
890.131	0
890.525	37.09214
890.918	-7.01713
891.312	8.01831
891.706	-1.00255
892.099	42.10275
892.492	35.07171
892.886	11.02599
893.279	-4.00989
893.672	27.06704
894.065	64.15406
894.458	-14.03393
894.851	2.00472
895.244	-27.06736
895.637	35.08151
896.029	36.08544
896.422	-31.07293
896.814	-52.12631
897.206	25.05831
897.599	68.16089
897.991	26.06111
898.383	2.00459
898.775	38.08337
899.167	34.07754
899.559	12.02917
899.951	21.04724
900.342	13.03173
900.734	11.02715
901.125	17.04298
901.517	23.05468
901.908	3.00685
902.299	56.13193
902.69	1.00231
903.082	13.03045
903.473	42.09841
903.863	-38.09434
904.254	29.06564
904.645	24.05687
905.036	68.16114
905.426	51.10979
905.817	6.01416
906.207	-42.0966
906.597	29.06604
906.987	-21.05268
907.378	26.06401
907.768	10.02582
908.158	-2.00472
908.547	43.10895
908.937	8.01967
909.327	-19.04479
909.717	-14.03402
910.106	-1.00232
910.495	-20.04805
910.885	9.02218
911.274	-16.03888
911.663	-7.01711
912.052	9.02123
912.441	27.06699
912.83	8.01758
913.219	11.02785
913.608	31.07356
913.997	-20.04942
914.385	42.0964
914.774	23.05392
915.162	54.12494
915.55	49.11281
915.939	20.04931
916.327	-2.00481
916.715	30.07518
917.103	18.04201
917.491	37.08783
917.878	7.01662
918.266	-7.0176
918.654	40.09952
919.041	23.05906
919.429	13.02962
919.816	8.01964
920.203	24.05678
920.591	32.07674
920.978	8.01896
921.365	20.05115
921.752	-52.11926
922.139	54.11172
922.525	33.07667
922.912	0
923.299	-38.09251
923.685	-24.0606
924.072	-45.09854
924.458	50.11972
924.844	-1.0024
925.231	-60.13534
925.617	-1.0025
926.003	14.03457
926.389	-31.07636
926.774	9.02203
927.16	-3.00722
927.546	40.10032
927.931	-6.01444
928.317	-4.00884
928.702	1.00228
929.088	40.09314
929.473	29.07198
929.858	12.02863
930.243	13.03051
930.628	35.08299
931.013	27.06473
931.398	18.03909
931.783	14.03538
932.167	63.14932
932.552	-14.03402
932.937	-6.01437
933.321	38.09282
933.705	0
934.09	-4.0096
934.474	-12.02735
934.858	-18.04569
935.242	-41.09232
935.626	10.02499
936.009	25.06525
936.393	46.11453
936.777	12.03002
937.16	44.11154
937.544	-11.02468
937.927	13.03219
938.311	-7.01645
938.694	19.04894
939.077	-28.06527
939.46	-49.11492
939.843	-23.04514
940.226	-43.10743
940.609	5.01123
940.991	19.04651
941.374	29.06884
941.757	43.10156
942.139	42.09071
942.522	24.0542
942.904	43.09931
943.286	-2.00492
943.668	2.0051
944.05	3.00717
944.432	-8.01909
944.814	15.03532
945.196	7.01667
945.578	5.01172
945.959	-6.01346
946.341	-8.01866
946.722	-40.09093
947.104	-9.02088
947.485	22.0493
947.866	3.00741
948.247	29.07146
948.628	-6.01389
949.009	-2.00498
949.39	20.04776
949.771	-8.01754
950.152	-21.05025
950.532	48.11703
950.913	-4.00933
951.293	43.1136
951.674	0
952.054	2.00491
952.434	-8.01934
952.814	0
953.194	-24.06049
953.574	9.02133
953.954	-8.01819
954.334	17.04141
954.714	-4.00951
955.093	9.0214
955.473	26.06358
955.853	7.01762
956.232	15.03995
956.611	-31.07134
956.99	7.01714
957.37	7.01718
957.749	-28.06386
958.128	39.09539
958.506	-8.02027
958.885	-9.022
959.264	46.10993
959.643	72.15703
960.021	57.13666
960.4	-19.04166
960.778	-2.0047
961.156	-7.01697
961.535	-12.02678
961.913	25.05664
962.291	35.08798
962.669	25.0616
963.047	25.0621
963.424	-4.01008
963.802	-8.01915
964.18	7.01686
964.557	23.0506
964.935	7.01599
965.312	13.03308
965.69	-3.00721
966.067	-29.06791
966.444	-64.15154
966.821	14.03505
967.198	19.04387
967.575	-13.0308
967.952	41.09228
968.329	22.05201
968.705	42.08654
969.082	58.1453
969.458	-8.01891
969.835	-13.03072
970.211	27.06782
970.587	28.06743
970.963	0
971.339	-6.01534
971.715	-5.01215
972.091	1.00238
972.467	-27.06459
972.843	11.02677
973.219	16.03662
973.594	-11.02807
973.97	-44.09921
974.345	-5.01165
974.721	-16.03699
975.096	20.04712
975.471	36.08157
975.846	-36.08359
976.221	-2.00494
976.596	75.17473
976.971	26.06242
977.346	10.02223
977.72	-17.04195
978.095	11.02755
978.469	4.00918
978.844	11.02658
979.218	16.03765
979.593	7.01611
979.967	-44.10253
980.341	32.07106
980.715	36.08771
981.089	27.06515
981.463	-5.0111
981.837	-4.00961
982.21	-26.05699
982.584	25.05847
982.957	2.00488
983.331	-17.03832
983.704	24.05768
984.078	-19.04545
984.451	-16.03799
984.824	17.04028
985.197	-49.11434
985.57	-25.06003
985.943	12.02806
986.316	-2.00467
986.688	35.0809
987.061	38.08575
987.434	71.18027
987.806	-46.10719
988.179	-1.00227
988.551	13.03176
988.923	-14.03327
989.295	63.14984
989.667	-5.01177
990.039	19.04619
990.411	15.03264
990.783	21.04573
991.155	-8.01874
991.527	-10.02338
991.898	52.12512
992.27	48.11532
992.641	17.04091
993.012	-24.05325
993.384	-13.02988
993.755	44.10876
994.126	48.11176
994.497	-16.03818
994.868	6.0131
995.239	-19.04456
995.61	-10.02449
995.98	-8.0188
996.351	2.00484
996.722	42.09451
997.092	-17.03929
997.462	26.0592
997.833	0
998.203	-15.0347
998.573	32.07715
998.943	55.12399
999.313	15.03491
999.683	-8.01868
1000.053	-35.07625
1000.423	56.12911
1000.792	-12.02991
1001.162	9.02125
1001.531	18.04293
1001.901	-10.02406
1002.27	-29.06138
1002.639	-15.03699
1003.009	7.01602
1003.378	0
1003.747	16.03612
1004.116	-42.09776
1004.485	11.02533
1004.853	-34.0828
1005.222	-55.13317
1005.591	69.15542
1005.959	-7.01531
1006.328	20.0434
1006.696	-7.01627
1007.064	-32.07767
1007.433	-24.05786
1007.801	-31.07268
1008.169	-17.04127
1008.537	19.04025
1008.905	-23.0524
1009.273	-11.02613
1009.64	40.09288
1010.008	-5.0115
1010.375	-9.02075
1010.743	-13.02802
1011.11	34.07889
1011.478	39.09354
1011.845	-4.00903
1012.212	60.13097
1012.579	6.01427
1012.946	-5.01135
1013.313	13.0295
1013.68	20.0428
1014.047	16.03671
1014.414	-16.03653
1014.78	10.02414
1015.147	-7.01616
1015.513	-30.07029
1015.88	-13.03206
1016.246	-19.04491
1016.612	-4.00874
1016.978	36.08541
1017.344	22.05256
1017.71	15.03499
1018.076	-11.02479
1018.442	42.10446
1018.808	0
1019.174	-34.08262
1019.539	-38.08101
1019.905	8.0183
1020.27	3.00715
1020.636	18.0409
1021.001	30.06925
1021.366	7.01632
1021.731	47.11811
1022.096	22.05418
1022.461	30.06836
1022.826	37.08508
1023.191	19.04833
1023.556	-12.02702
1023.92	34.07948
1024.285	-13.03038
1024.649	-18.04251
1025.014	-8.01896
1025.378	51.124
1025.742	8.01902
1026.107	-29.06326
1026.471	13.02896
1026.835	13.03112
1027.199	21.04879
1027.562	-16.03555
1027.926	19.04444
1028.29	37.09026
1028.654	5.01101
1029.017	59.13919
1029.381	28.06453
1029.744	27.06653
1030.107	48.1085
1030.471	40.09237
1030.834	19.04069
1031.197	38.08761
1031.56	-3.00679
1031.923	16.04014
1032.286	54.12091
1032.648	9.02041
1033.011	2.00449
1033.374	28.06231
1033.736	-17.04365
1034.099	23.05403
1034.461	42.10301
1034.823	34.08191
1035.185	-31.07526
1035.548	26.06121
1035.91	21.04825
1036.272	17.03737
1036.634	26.06114
1036.995	-23.05191
1037.357	-34.081
1037.719	-9.02124
1038.08	68.15521
1038.442	9.02054
1038.803	-46.10571
1039.165	-39.09553
1039.526	-8.01873
1039.887	8.01843
1040.248	25.06046
1040.609	-9.02129
1040.97	-3.00707
1041.331	24.0591
1041.692	35.07987
1042.053	12.02604
1042.413	-1.00223
1042.774	41.09586
1043.134	15.03384
1043.495	41.09901
1043.855	58.13611
1044.215	-25.05994
1044.576	2.00466
1044.936	-8.01757
1045.296	26.06247
1045.656	-17.03998
1046.016	20.04613
1046.375	11.02573
1046.735	40.08838
1047.095	56.12503
1047.454	-31.06251
1047.814	-7.0163
1048.173	11.02489
1048.533	28.0614
1048.892	-1.00233
1049.251	-25.06053
1049.61	-1.00239
1049.969	6.01357
1050.328	33.06813
1050.687	-41.09646
1051.046	-19.04467
1051.405	5.0119
1051.763	2.00449
1052.122	-45.10937
1052.48	15.03559
1052.839	57.13028
1053.197	-4.00907
1053.555	31.06587
1053.914	20.04692
1054.272	-7.01597
1054.63	-21.05
1054.988	29.06685
1055.345	-41.08404
1055.703	38.08785
1056.061	17.04284
1056.419	43.10914
1056.776	2.00459
1057.134	-46.10151
1057.491	33.07957
1057.848	-19.04562
1058.206	-67.15129
1058.563	5.01054
1058.92	10.02202
1059.277	35.08292
1059.634	-18.04032
1059.991	2.00464
1060.348	-10.0219
1060.704	59.13762
1061.061	-8.01754
1061.418	-22.05187
1061.774	35.08305
1062.131	-9.02356
1062.487	-37.08345
1062.843	27.06476
1063.199	-8.0193
1063.555	9.02027
1063.911	1.00243
1064.267	-1.00196
1064.623	27.06387
1064.979	-56.12425
1065.335	12.02732
1065.691	-16.0365
1066.046	3.00631
1066.402	-39.08529
1066.757	25.0609
1067.112	-2.00472
1067.468	7.01617
1067.823	-19.04325
1068.178	-22.05121
1068.533	23.05359
1068.888	-1.00229
1069.243	-18.04313
1069.598	-5.01166
1069.952	40.08809
1070.307	-11.02656
1070.662	65.14917
1071.016	-6.01316
1071.371	26.05697
1071.725	-8.0183
1072.079	28.06484
1072.434	6.01414
1072.788	-56.12813
1073.142	48.11326
1073.496	18.04092
1073.85	-38.0853
1074.203	25.05838
1074.557	3.00786
1074.911	46.10402
1075.265	13.02899
1075.618	45.10538
1075.971	15.03426
1076.325	13.03223
1076.678	-10.02209
1077.031	-62.13355
1077.385	11.02308
1077.738	-34.07409
1078.091	-5.01107
1078.444	-25.05539
1078.796	-11.02634
1079.149	18.04328
1079.502	8.01836
1079.855	-32.07251
1080.207	30.07073
1080.56	-18.04563
1080.912	24.05604
1081.264	-15.03515
1081.617	-17.04035
1081.969	-18.04446
1082.321	-1.00235
1082.673	41.09095
1083.025	24.05425
1083.377	251.53892
1083.728	-23.0516
1084.08	-41.09909
1084.432	0
1084.783	3.00662
1085.135	-9.022
1085.486	-27.06025
1085.838	38.09022
1086.189	41.09635
1086.54	24.05474
1086.891	52.12891
1087.242	25.05969
1087.593	-1.00231
1087.944	24.05254
1088.295	18.03906
1088.646	66.15585
1088.996	-22.05179
1089.347	2.00471
1089.698	7.01615
1090.048	-1.0025
1090.398	-21.04672
1090.749	-35.08051
1091.099	5.01234
1091.449	43.10333
1091.799	-15.03644
1092.149	-10.02402
1092.499	-8.0189
1092.849	-46.11453
1093.199	11.02636
1093.548	6.01408
1093.898	-41.09961
1094.248	-16.03955
1094.597	-14.03526
1094.947	-22.05747
1095.296	5.01201
1095.645	3.00753
1095.994	-3.00696
1096.343	42.10202
1096.692	-13.03388
1097.041	26.06948
1097.39	-9.02175
1097.739	14.03521
1098.088	5.01292
1098.437	7.01815
1098.785	-12.03128
1099.134	-30.07648
1099.482	13.03494
1099.83	-13.0333
1100.179	59.15113
1100.527	-31.07955
1100.875	1.00259
1101.223	34.08802
1101.571	-35.09454
1101.919	45.11624
1102.267	-6.01669
1102.615	-7.02251
1102.962	3.00962
1103.31	1.00321
1103.658	-12.03853
