Data from N1 R1 sample 6_Subt2__0__11-27-46-374.txt Node

Date: Wed Sep 17 11:27:46 PDT 2025
User: uwsun
Spectrometer: HDX01956
Trigger mode: 0
Integration Time (sec): 5.000000E-1
Scans to average: 1
Nonlinearity correction enabled: true
Boxcar width: 0
Storing dark spectrum: false
XAxis mode: Wavelengths
Number of Pixels in Spectrum: 2068
>>>>>Begin Spectral Data<<<<<
194.03	-7.02034
194.578	-5.01627
195.127	-4.01283
195.676	-9.02899
196.225	25.06649
196.773	-6.01678
197.321	-27.07591
197.87	-41.10817
198.418	-18.04764
198.966	-12.03242
199.513	14.03641
200.061	9.02341
200.609	-23.06231
201.156	-16.03624
201.704	-38.09872
202.251	47.12682
202.798	-21.05593
203.345	54.13601
203.892	0
204.438	-49.12056
204.985	-19.04659
205.532	-20.05399
206.078	-23.0579
206.624	31.07946
207.17	22.05292
207.716	24.06026
208.262	-5.01029
208.808	-11.02844
209.354	-1.00254
209.899	5.01289
210.445	-14.03606
210.99	-1.00251
211.535	-3.00729
212.08	-9.02155
212.625	18.04597
213.17	32.08319
213.715	26.06097
214.259	19.04552
214.804	-28.07078
215.348	33.07812
215.892	8.01994
216.436	-43.1018
216.98	-3.00679
217.524	40.09763
218.068	30.07724
218.612	37.09587
219.155	22.05324
219.698	18.04382
220.242	-25.06343
220.785	40.09581
221.328	-24.06095
221.871	33.08556
222.414	18.04537
222.956	-30.07385
223.499	-27.06209
224.041	1.00234
224.583	-66.14486
225.126	-32.07248
225.668	-6.01492
226.21	-15.03889
226.751	71.16006
227.293	-45.10513
227.835	-3.00752
228.376	-43.10089
228.918	-32.08172
229.459	33.08358
230	46.11207
230.541	-8.01885
231.082	8.01988
231.622	-74.17373
232.163	-33.08176
232.704	29.07376
233.244	7.0177
233.784	8.01975
234.324	24.05515
234.864	-5.01157
235.404	14.03357
235.944	-2.00481
236.484	41.10366
237.023	11.02643
237.563	-11.02623
238.102	-9.02179
238.641	-28.07206
239.18	-48.11633
239.719	23.05848
240.258	-7.01612
240.797	-20.04902
241.335	12.0297
241.874	40.0796
242.412	39.0962
242.95	5.01235
243.488	-8.01841
244.026	33.07812
244.564	25.05261
245.102	48.11049
245.64	-3.00732
246.177	-37.08477
246.715	4.00981
247.252	-9.02093
247.789	35.06632
248.326	-14.03459
248.863	-12.02717
249.4	7.01623
249.936	78.16535
250.473	44.10563
251.009	11.02572
251.546	36.08194
252.082	-15.0333
252.618	11.02517
253.154	-14.03454
253.69	7.01606
254.226	28.06822
254.761	31.07086
255.297	-44.09942
255.832	22.05332
256.367	-3.00721
256.903	40.09056
257.438	7.01676
257.972	-7.016
258.507	-35.08273
259.042	-5.01117
259.576	92.20532
260.111	-20.04717
260.645	-13.0289
261.179	15.03588
261.713	25.05714
262.247	-26.06106
262.781	-19.04136
263.315	-32.0797
263.849	6.01532
264.382	-8.01884
264.915	19.04588
265.449	-48.12077
265.982	-4.00932
266.515	45.1119
267.048	-33.07241
267.58	-35.078
268.113	11.02437
268.646	-29.07282
269.178	-36.08306
269.71	50.11246
270.243	50.11766
270.775	26.06782
271.307	-29.07082
271.838	43.10298
272.37	-21.05275
272.902	1.00232
273.433	-24.05493
273.965	21.05194
274.496	-28.07118
275.027	31.07843
275.558	-2.005
276.089	27.06863
276.62	-51.13228
277.15	-6.01508
277.681	-43.09583
278.211	-20.05
278.741	11.02504
279.272	1.00235
279.802	12.03041
280.332	1.00242
280.861	-4.00979
281.391	-8.01868
281.921	-10.02448
282.45	24.06049
282.98	33.08721
283.509	40.09273
284.038	0
284.567	0
285.096	55.13522
285.625	-79.18514
286.153	2.0049
286.682	44.1029
287.21	-24.05871
287.739	8.01933
288.267	25.06205
288.795	-29.07759
289.323	6.01444
289.851	52.12427
290.378	20.04558
290.906	-20.0503
291.433	0
291.961	0
292.488	-12.03048
293.015	47.11286
293.542	61.15871
294.069	49.12327
294.596	15.03738
295.122	51.12427
295.649	-13.02932
296.175	-12.02963
296.702	28.06982
297.228	2.00493
297.754	18.04148
298.28	30.07057
298.806	19.04676
299.332	44.10051
299.857	16.03728
300.383	-16.04125
300.908	26.06523
301.433	13.0326
301.958	10.0235
302.483	-37.09444
303.008	46.11628
303.533	5.01316
304.058	-5.01197
304.582	15.03629
305.107	-4.01064
305.631	-14.03273
306.155	4.00957
306.679	15.03616
307.203	6.01431
307.727	-19.0464
308.251	-2.00506
308.775	59.14586
309.298	25.0616
309.822	2.00514
310.345	73.17689
310.868	53.13002
311.391	6.01513
311.914	-11.0283
312.437	12.02818
312.96	28.06748
313.482	-22.05334
314.005	-29.07449
314.527	1.00266
315.049	13.03364
315.571	7.01624
316.093	4.01015
316.615	12.0295
317.137	25.05601
317.659	41.10121
318.18	-18.0442
318.702	58.13845
319.223	-21.04457
319.744	54.12415
320.265	-16.04018
320.786	44.11202
321.307	18.04548
321.828	11.02556
322.348	41.0986
322.869	27.06592
323.389	250.48219
323.909	3.00706
324.43	18.04408
324.95	-1.00236
325.47	66.16624
325.989	34.08259
326.509	34.07826
327.029	41.09601
327.548	-23.05409
328.067	36.08937
328.587	67.17066
329.106	8.01859
329.625	13.03457
330.144	34.08113
330.662	45.10818
331.181	62.14924
331.7	-37.08935
332.218	33.07379
332.736	51.12209
333.255	37.08935
333.773	-7.01707
334.291	78.19794
334.808	73.168
335.326	7.01626
335.844	59.14189
336.361	109.2831
336.879	77.18468
337.396	91.22488
337.913	40.09493
338.43	59.13632
338.947	16.03936
339.464	16.03578
339.981	45.10929
340.497	57.14288
341.014	29.07251
341.53	20.04659
342.046	97.2455
342.562	43.10949
343.078	56.1349
343.594	18.04407
344.11	121.29286
344.626	60.15431
345.141	76.17766
345.657	73.169
346.172	128.31161
346.687	0
347.202	105.24395
347.717	82.1991
348.232	86.21739
348.747	47.11157
349.261	69.15561
349.776	67.16284
350.29	119.30086
350.805	102.25516
351.319	97.22928
351.833	88.20676
352.347	71.17133
352.861	99.23627
353.374	85.19725
353.888	87.21634
354.401	75.1746
354.915	78.18054
355.428	77.19523
355.941	55.13136
356.454	84.19103
356.967	38.09112
357.48	40.09339
357.993	108.26871
358.505	101.24886
359.018	119.29462
359.53	145.35622
360.042	73.16766
360.554	161.39538
361.066	75.18582
361.578	136.30465
362.09	105.25347
362.602	133.30068
363.113	136.32339
363.625	148.3393
364.136	79.17788
364.647	131.31396
365.158	111.26227
365.669	109.26382
366.18	118.28124
366.691	110.24549
367.201	123.29792
367.712	147.33977
368.222	174.40226
368.733	90.20044
369.243	163.3673
369.753	108.25295
370.263	167.40434
370.773	70.17359
371.282	150.36052
371.792	153.3573
372.301	110.26889
372.811	164.42938
373.32	149.32668
373.829	112.26755
374.338	163.3649
374.847	191.44077
375.356	166.39244
375.865	177.38233
376.373	198.44991
376.882	178.44928
377.39	221.52842
377.898	171.41994
378.407	197.447
378.915	196.42963
379.423	158.36919
379.93	295.6707
380.438	173.4154
380.946	226.52122
381.453	291.68245
381.96	308.71652
382.468	315.7208
382.975	348.82326
383.482	301.65851
383.989	341.84597
384.495	418.92929
385.002	354.71889
385.509	397.90546
386.015	447.86571
386.521	430.92817
387.028	453.97047
387.534	435.88036
388.04	527.17609
388.546	481.99395
389.051	571.15013
389.557	562.19245
390.063	640.2997
390.568	641.38779
391.073	652.2958
391.578	724.564
392.084	750.49364
392.589	772.44777
393.093	878.79017
393.598	961.83786
394.103	1031.0141
394.607	1119.17099
395.112	1197.33693
395.616	1234.35672
396.12	1337.32145
396.624	1524.62518
397.128	1563.7459
397.632	1776.87393
398.136	1959.93249
398.639	2101.11512
399.143	2432.54074
399.646	2742.39179
400.15	3000.30752
400.653	3288.17473
401.156	3831.94805
401.659	4499.1491
402.162	5769.12144
402.664	8819.98226
403.167	17270.20876
403.67	52451.21826
404.172	62422.28966
404.674	63858.43483
405.176	63738.15102
405.678	63977.72923
406.18	64011.81569
406.682	63863.44694
407.184	63926.60148
407.686	29669.25065
408.187	17556.20183
408.688	11732.56673
409.19	9081.61306
409.691	7732.2933
410.192	6531.10721
410.693	5926.66633
411.194	5591.08897
411.694	5182.62519
412.195	4746.23903
412.696	4409.94044
413.196	4336.26414
413.696	4409.05706
414.196	4309.56963
414.696	4170.40566
415.196	3696.18925
415.696	3035.11389
416.196	2429.24996
416.695	2031.07561
417.195	1956.10336
417.694	1865.51411
418.194	1661.41548
418.693	1564.57716
419.192	1552.66246
419.691	1490.5514
420.19	1552.72436
420.688	1444.66662
421.187	1314.00497
421.685	1228.23618
422.184	1103.10342
422.682	931.68705
423.18	838.64748
423.678	702.41347
424.176	699.40516
424.674	685.34345
425.172	620.30654
425.669	532.19289
426.167	544.14968
426.664	444.93867
427.161	476.011
427.659	414.94327
428.156	383.77051
428.652	384.91612
429.149	401.9179
429.646	341.72583
430.143	354.8079
430.639	303.69083
431.135	346.82549
431.632	293.64616
432.128	282.6545
432.624	281.70021
433.12	214.47877
433.616	230.4933
434.111	196.45743
434.607	246.57276
435.103	151.3147
435.598	222.45248
436.093	202.46141
436.588	200.44209
437.083	167.37
437.578	242.5452
438.073	132.32782
438.568	146.35569
439.062	136.28981
439.557	121.28146
440.051	71.16058
440.546	116.26263
441.04	138.32827
441.534	105.263
442.028	119.28487
442.522	85.20402
443.015	79.17021
443.509	118.2849
444.002	108.26272
444.496	73.15917
444.989	139.33325
445.482	97.23901
445.975	85.19663
446.468	97.21007
446.961	115.24884
447.454	43.09733
447.947	63.15082
448.439	152.36726
448.931	98.2244
449.424	127.31948
449.916	102.24739
450.408	80.18304
450.9	56.13633
451.392	58.14729
451.884	96.21982
452.375	16.03994
452.867	49.11083
453.358	61.14021
453.849	99.21119
454.341	85.1917
454.832	96.20688
455.323	128.31487
455.814	23.05314
456.304	62.14374
456.795	54.1238
457.285	54.11947
457.776	53.12124
458.266	45.10719
458.756	32.07603
459.247	34.08175
459.737	91.21892
460.226	124.27971
460.716	49.11739
461.206	60.1435
461.695	30.07442
462.185	71.16821
462.674	38.08736
463.163	72.16148
463.653	66.14089
464.142	77.18581
464.63	38.0923
465.119	60.13954
465.608	100.23247
466.096	-30.06648
466.585	6.01385
467.073	9.02141
467.561	42.10091
468.05	42.09698
468.538	23.05642
469.026	-8.01918
469.513	33.07018
470.001	94.21438
470.489	50.1189
470.976	85.19749
471.463	30.07483
471.951	42.10431
472.438	21.0496
472.925	12.02847
473.412	22.05358
473.899	61.13971
474.385	66.16086
474.872	16.03756
475.359	76.18571
475.845	12.02516
476.331	-28.06078
476.817	40.09738
477.303	25.05841
477.789	-4.00961
478.275	38.0943
478.761	3.00718
479.247	26.05834
479.732	45.11215
480.218	84.21814
480.703	27.06665
481.188	2.00438
481.673	55.12637
482.158	44.09547
482.643	59.15007
483.128	47.10972
483.612	50.11912
484.097	18.04359
484.581	30.06969
485.066	54.132
485.55	51.113
486.034	38.08277
486.518	81.19272
487.002	6.01468
487.486	16.03901
487.969	-3.00735
488.453	-15.03767
488.936	24.05436
489.42	51.11295
489.903	30.07472
490.386	-6.01259
490.869	51.11196
491.352	7.01695
491.835	38.07816
492.318	34.0767
492.8	51.10591
493.283	100.25233
493.765	71.17307
494.247	84.19412
494.73	91.19994
495.212	30.07128
495.694	136.31516
496.175	94.22387
496.657	161.37272
497.139	104.17684
497.62	136.32152
498.102	169.41088
498.583	105.25461
499.064	191.41381
499.545	215.47376
500.026	294.63273
500.507	217.48277
500.988	316.75018
501.469	267.63741
501.949	380.8791
502.43	403.90542
502.91	448.87076
503.39	500.13159
503.87	555.1809
504.35	606.2591
504.83	621.19364
505.31	711.49298
505.79	735.50138
506.269	788.53742
506.749	901.70302
507.228	1002.91686
507.707	1110.93655
508.187	1239.27838
508.666	1429.62905
509.145	1488.4954
509.623	1669.66991
510.102	1835.93842
510.581	1984.03746
511.059	2103.3224
511.538	2363.6058
512.016	2586.2739
512.494	2784.32142
512.972	2992.31251
513.45	3274.11858
513.928	3670.29991
514.406	3896.28543
514.884	4305.51688
515.361	4679.71386
515.839	4959.27636
516.316	5373.44669
516.793	5599.62899
517.27	5936.08459
517.747	6267.46409
518.224	6540.61917
518.701	6923.38727
519.178	7053.1229
519.654	7240.80525
520.131	7515.13801
520.607	7541.06678
521.083	7724.81127
521.56	7687.95682
522.036	7631.60068
522.512	7656.17636
522.987	7458.96593
523.463	7337.83706
523.939	7162.07789
524.414	6926.56955
524.89	6758.81886
525.365	6472.51377
525.84	6144.00637
526.315	5916.15331
526.79	5722.73616
527.265	5390.06538
527.74	5154.55623
528.215	4891.40225
528.689	4558.16279
529.164	4416.10191
529.638	4146.44311
530.112	3971.9473
530.587	3839.39379
531.061	3547.30833
531.534	3362.31902
532.008	3224.40517
532.482	3081.0608
532.956	2983.7323
533.429	2820.44685
533.903	2666.80988
534.376	2560.84575
534.849	2418.01306
535.322	2287.09896
535.795	2159.1518
536.268	2099.13241
536.741	1970.95881
537.213	1932.79679
537.686	1829.98929
538.158	1720.61019
538.631	1708.84111
539.103	1568.4597
539.575	1456.07571
540.047	1481.26686
540.519	1391.46632
540.991	1374.51309
541.463	1305.38466
541.934	1195.07272
542.406	1197.24475
542.877	1097.95044
543.348	1068.0782
543.82	1033.04271
544.291	969.85408
544.762	883.76497
545.233	982.06761
545.703	820.5372
546.174	856.6695
546.645	836.72219
547.115	796.64999
547.585	719.43414
548.056	742.5913
548.526	714.47985
548.996	644.36491
549.466	713.5169
549.935	655.38553
550.405	637.23151
550.875	596.268
551.344	608.29524
551.814	532.10364
552.283	583.13394
552.752	549.16406
553.221	489.98692
553.69	570.15681
554.159	507.15792
554.628	493.02146
555.096	483.13439
555.565	437.89331
556.033	512.11547
556.502	462.02889
556.97	444.91276
557.438	481.03607
557.906	478.03598
558.374	469.00022
558.842	450.99916
559.31	480.98499
559.777	419.95678
560.245	403.86263
560.712	426.90574
561.18	424.87047
561.647	425.87351
562.114	448.94919
562.581	450.02568
563.048	457.96551
563.514	525.20486
563.981	470.99014
564.448	482.99847
564.914	453.97173
565.381	487.018
565.847	447.96299
566.313	471.00319
566.779	483.99539
567.245	471.00102
567.711	531.15522
568.176	550.11106
568.642	530.21854
569.108	542.21086
569.573	548.14448
570.038	609.1222
570.504	633.2647
570.969	602.33955
571.434	620.21892
571.899	637.34036
572.363	700.40039
572.828	772.52326
573.293	718.42916
573.757	732.47396
574.222	746.43884
574.686	754.49535
575.15	806.66405
575.614	815.64318
576.078	780.5729
576.542	791.53854
577.006	798.53488
577.469	850.78004
577.933	844.62194
578.396	790.60766
578.86	771.56291
579.323	850.74008
579.786	796.46207
580.249	870.72813
580.712	828.71943
581.175	754.61637
581.637	768.50331
582.1	751.40105
582.563	741.34619
583.025	739.56682
583.487	708.25257
583.95	640.20394
584.412	702.27228
584.874	651.41006
585.336	696.44764
585.797	697.31556
586.259	646.33755
586.721	617.28968
587.182	609.25043
587.643	617.24522
588.105	611.2884
588.566	583.07903
589.027	599.31826
589.488	580.19375
589.949	553.2169
590.41	537.9527
590.87	539.11645
591.331	522.03269
591.791	474.00806
592.252	492.04914
592.712	460.01681
593.172	442.93076
593.632	506.02342
594.092	425.87863
594.552	418.84034
595.011	389.8341
595.471	440.92369
595.931	430.90071
596.39	363.82226
596.849	385.84083
597.308	352.70537
597.768	382.92945
598.227	363.82259
598.685	355.76285
599.144	367.81508
599.603	327.72566
600.062	294.59078
600.52	307.66085
600.978	343.76685
601.437	270.58933
601.895	350.70655
602.353	308.64347
602.811	363.77063
603.269	287.6533
603.727	284.65314
604.184	292.63599
604.642	318.74416
605.099	311.69188
605.557	316.73136
606.014	254.52642
606.471	268.64677
606.928	312.65963
607.385	271.65265
607.842	238.5274
608.299	276.61848
608.755	289.66981
609.212	273.58388
609.668	254.55182
610.125	271.62685
610.581	258.58171
611.037	217.47134
611.493	225.50825
611.949	265.62076
612.405	260.50799
612.861	214.47719
613.316	213.49525
613.772	241.53238
614.227	251.58129
614.683	199.40994
615.138	185.42318
615.593	130.29755
616.048	242.53358
616.503	192.45391
616.958	214.51998
617.412	197.45516
617.867	187.40791
618.321	181.36413
618.776	174.37432
619.23	213.4835
619.684	157.3432
620.138	187.41655
620.592	177.41901
621.046	221.50532
621.5	165.38834
621.954	102.2234
622.407	185.39807
622.861	159.37786
623.314	148.32852
623.768	216.49379
624.221	203.38636
624.674	154.34851
625.127	184.4164
625.58	141.3107
626.033	149.3191
626.485	183.42617
626.938	198.45774
627.39	157.35928
627.843	182.40835
628.295	166.37368
628.747	172.40016
629.199	203.44769
629.651	146.32812
630.103	131.29544
630.555	138.28524
631.006	180.40719
631.458	180.41216
631.909	114.25168
632.361	124.28142
632.812	162.36617
633.263	172.36349
633.714	161.33241
634.165	175.40851
634.616	148.34243
635.067	163.34998
635.518	173.39939
635.968	161.30792
636.419	205.43275
636.869	156.36093
637.319	178.40184
637.769	174.38076
638.219	236.53516
638.669	147.34194
639.119	135.31675
639.569	163.38139
640.019	154.34766
640.468	153.33516
640.918	152.35224
641.367	160.34939
641.816	203.43605
642.265	192.43451
642.714	124.27948
643.163	206.46049
643.612	163.39005
644.061	144.30152
644.51	159.35594
644.958	111.24172
645.406	163.38005
645.855	142.33766
646.303	131.29713
646.751	163.36805
647.199	144.31951
647.647	151.34291
648.095	132.29532
648.543	185.36343
648.99	158.37078
649.438	144.32588
649.885	192.46478
650.333	187.35123
650.78	158.37295
651.227	175.417
651.674	186.41201
652.121	163.39034
652.568	147.35257
653.015	101.24657
653.461	131.30568
653.908	141.31695
654.354	167.38738
654.801	139.31937
655.247	124.26366
655.693	153.38901
656.139	151.35207
656.585	118.27713
657.031	176.40235
657.477	137.2934
657.922	151.33511
658.368	168.40209
658.813	75.16908
659.259	169.39915
659.704	175.40369
660.149	107.24309
660.594	179.41275
661.039	142.31664
661.484	157.36274
661.929	131.30014
662.373	101.24996
662.818	168.40454
663.262	163.38423
663.707	131.32693
664.151	143.34101
664.595	118.28059
665.039	178.42927
665.483	157.38983
665.927	168.38344
666.371	172.39368
666.814	168.38823
667.258	192.44845
667.701	185.38162
668.145	148.35989
668.588	160.38659
669.031	133.30644
669.474	116.2735
669.917	149.31841
670.36	183.44341
670.803	159.37451
671.245	58.118
671.688	205.48173
672.13	124.27525
672.573	135.33374
673.015	152.35768
673.457	131.27909
673.899	146.3449
674.341	109.25824
674.783	74.17563
675.225	106.2568
675.666	185.43914
676.108	122.2585
676.549	96.22035
676.991	110.23726
677.432	157.3026
677.873	110.24671
678.314	135.31415
678.755	155.3726
679.196	85.19186
679.637	53.12596
680.078	133.30375
680.518	142.31795
680.959	93.21812
681.399	98.23876
681.839	108.2575
682.28	125.30436
682.72	80.18068
683.16	142.34595
683.6	108.24123
684.039	85.17305
684.479	116.28102
684.919	98.22701
685.358	63.15523
685.798	113.28863
686.237	71.16737
686.676	62.13888
687.115	147.33734
687.554	102.23993
687.993	89.1939
688.432	113.25266
688.871	117.26279
689.309	62.14726
689.748	105.21416
690.186	32.07448
690.625	95.2195
691.063	85.19975
691.501	82.19993
691.939	108.26694
692.377	52.12493
692.815	151.3594
693.253	75.17604
693.69	55.11926
694.128	76.18204
694.565	92.21421
695.003	101.25353
695.44	115.26666
695.877	90.20832
696.314	87.17995
696.751	65.14545
697.188	123.27853
697.625	47.10418
698.061	57.13499
698.498	51.11929
698.934	73.17195
699.371	23.0539
699.807	72.16751
700.243	87.20636
700.679	48.10593
701.115	94.21507
701.551	94.21412
701.987	49.10585
702.422	89.20874
702.858	60.14141
703.294	109.24452
703.729	35.08443
704.164	20.04749
704.599	116.25288
705.035	101.22181
705.47	41.0986
705.904	43.0986
706.339	69.156
706.774	97.22251
707.209	95.21679
707.643	95.22272
708.078	52.12493
708.512	29.07217
708.946	63.14701
709.38	72.16837
709.814	62.13825
710.248	95.22777
710.682	78.18426
711.116	57.13713
711.549	35.08846
711.983	48.10956
712.416	89.20719
712.85	26.06384
713.283	64.14878
713.716	81.19693
714.149	24.05511
714.582	72.15902
715.015	32.07767
715.448	106.26094
715.881	26.05531
716.313	43.09923
716.746	97.22456
717.178	60.14213
717.61	50.12553
718.043	55.13377
718.475	55.13156
718.907	54.13279
719.339	9.02031
719.77	62.14624
720.202	31.07678
720.634	61.14748
721.065	82.1892
721.497	85.20379
721.928	21.05085
722.359	43.10345
722.79	53.12503
723.221	38.0931
723.652	57.14246
724.083	42.09315
724.514	46.10419
724.945	60.13805
725.375	35.0809
725.806	6.01467
726.236	72.18044
726.666	28.06525
727.096	11.02667
727.526	60.15215
727.956	31.07009
728.386	44.10624
728.816	65.16357
729.246	106.25515
729.675	-6.01455
730.105	73.17475
730.534	1.00231
730.964	44.108
731.393	16.03876
731.822	55.13821
732.251	28.0702
732.68	-18.04147
733.109	25.06096
733.537	76.18218
733.966	20.04945
734.395	45.1024
734.823	-1.00219
735.251	14.03328
735.68	31.07531
736.108	-40.09981
736.536	52.11945
736.964	17.03893
737.392	47.11543
737.82	-5.01184
738.247	21.04937
738.675	5.01162
739.102	3.00741
739.53	45.11405
739.957	42.10715
740.384	-21.05025
740.811	-34.08425
741.238	29.07024
741.665	50.11564
742.092	-74.17081
742.519	21.05155
742.945	78.18555
743.372	-4.00987
743.798	-2.00507
744.225	1.00234
744.651	17.04198
745.077	32.07857
745.503	11.02622
745.929	87.20572
746.355	-4.00963
746.781	-15.03657
747.207	14.03292
747.632	29.07114
748.058	58.14357
748.483	13.02952
748.908	0
749.334	19.0463
749.759	34.07988
750.184	63.14891
750.609	24.05792
751.033	-2.00461
751.458	32.07006
751.883	-44.10796
752.307	1.00233
752.732	33.08328
753.156	5.01217
753.58	8.01861
754.005	3.00744
754.429	51.11877
754.853	33.08098
755.277	19.04456
755.7	6.01473
756.124	25.06128
756.548	-24.05634
756.971	-7.01692
757.394	-6.01518
757.818	1.00256
758.241	-1.00252
758.664	38.09434
759.087	-23.05168
759.51	-9.02197
759.933	-5.012
760.356	15.03827
760.778	11.02669
761.201	6.0143
761.623	4.00938
762.046	-41.09526
762.468	-26.06175
762.89	5.01203
763.312	88.20974
763.734	-16.0383
764.156	-4.00978
764.578	-17.03834
765	23.05517
765.421	-4.01012
765.843	5.01292
766.264	5.01166
766.686	-22.05406
767.107	27.06431
767.528	36.09107
767.949	-19.04778
768.37	45.10953
768.791	-31.0737
769.212	27.06704
769.632	-4.00928
770.053	-26.06738
770.473	-17.04053
770.894	-32.07799
771.314	-17.03961
771.734	0
772.154	-1.00252
772.575	-7.0159
772.994	-29.06506
773.414	-2.00468
773.834	-13.03199
774.254	-18.04343
774.673	33.0793
775.093	8.01966
775.512	26.06311
775.931	0
776.351	-3.0074
776.77	29.06998
777.189	7.01637
777.607	-8.02018
778.026	-10.02462
778.445	24.05995
778.864	-40.10046
779.282	-8.01877
779.701	-19.04711
780.119	-12.03008
780.537	-27.06648
780.955	-10.02491
781.373	-20.0488
781.791	31.06903
782.209	-32.07127
782.627	7.01816
783.045	-31.06963
783.462	0
783.88	-1.00256
784.297	-45.11243
784.715	-2.00509
785.132	-43.10251
785.549	-25.06171
785.966	34.08367
786.383	-26.06363
786.8	14.03181
787.217	21.04927
787.633	-8.0199
788.05	-4.00912
788.466	-29.0665
788.883	18.04548
789.299	-65.15334
789.715	23.05495
790.131	0
790.547	-22.05406
790.963	0
791.379	1.00249
791.795	15.03303
792.21	12.02723
792.626	0
793.041	-7.01694
793.457	-8.01929
793.872	-41.09432
794.287	-16.03825
794.702	-23.05483
795.117	6.0147
795.532	-35.08748
795.947	-4.00929
796.362	4.00913
796.776	15.03352
797.191	27.06464
797.605	-55.12975
798.02	-6.0143
798.434	27.0584
798.848	30.07314
799.262	-5.01218
799.676	14.03335
800.09	-10.02413
800.504	18.04237
800.918	-12.02696
801.331	-58.14698
801.745	9.02003
802.158	-31.0756
802.572	12.0284
802.985	-10.02343
803.398	-3.00697
803.811	-30.07426
804.224	-53.12852
804.637	30.06983
805.05	-16.036
805.462	13.03095
805.875	-19.04865
806.288	0
806.7	-47.1153
807.112	-26.05855
807.525	-24.05716
807.937	-20.04871
808.349	-11.02679
808.761	37.08878
809.173	36.08511
809.584	-9.02164
809.996	-10.02394
810.408	-19.04881
810.819	-11.02537
811.231	22.0576
811.642	44.10636
812.053	36.08547
812.464	-22.05108
812.875	-19.04797
813.286	43.10864
813.697	-32.07139
814.108	-14.03329
814.519	39.08482
814.929	27.06675
815.34	-26.06116
815.75	9.02255
816.16	-38.09185
816.571	11.02779
816.981	-23.05246
817.391	-19.04444
817.801	-17.04158
818.211	-13.03019
818.62	-4.00946
819.03	-1.00238
819.44	-37.09334
819.849	-18.04392
820.259	-48.11964
820.668	-24.05817
821.077	-42.10374
821.486	-24.05579
821.895	-10.02375
822.304	-18.0467
822.713	18.0411
823.122	-20.04876
823.531	-65.14959
823.939	-6.01434
824.348	-18.04249
824.756	-20.04874
825.164	-59.14559
825.573	-39.09627
825.981	22.05262
826.389	-9.02204
826.797	28.06939
827.205	20.04486
827.612	-29.06969
828.02	-79.18231
828.428	-3.00745
828.835	-13.03379
829.243	-21.0485
829.65	-20.04911
830.057	-36.08518
830.464	-3.00722
830.871	26.06056
831.278	5.01176
831.685	42.08966
832.092	-51.12144
832.499	-16.03427
832.905	-21.05165
833.312	-60.13174
833.718	9.02199
834.124	-12.02678
834.531	6.01456
834.937	-19.04792
835.343	-36.08429
835.749	-15.03358
836.155	3.00767
836.561	-34.08209
836.966	-8.01898
837.372	-21.05201
837.777	-45.1106
838.183	-1.00214
838.588	8.01946
838.993	-14.03328
839.399	-34.08187
839.804	-64.15412
840.209	-5.01259
840.613	-7.01508
841.018	-43.1063
841.423	-27.06795
841.828	13.03215
842.232	-21.04987
842.637	22.05082
843.041	-61.15505
843.445	-19.04619
843.849	-34.08287
844.253	32.07313
844.657	-4.00989
845.061	33.07354
845.465	-44.10431
845.869	-36.08177
846.272	-43.10333
846.676	-63.14707
847.079	-13.03259
847.483	7.01692
847.886	2.00468
848.289	13.0343
848.692	-34.08376
849.095	-16.03727
849.498	-19.0463
849.901	-40.08883
850.304	16.03696
850.707	-37.09214
851.109	-21.05161
851.512	24.05729
851.914	-15.03723
852.316	12.02986
852.718	8.02068
853.121	0
853.523	-40.09075
853.925	-1.00257
854.326	25.06103
854.728	-26.06575
855.13	-3.00763
855.531	-10.02333
855.933	-62.1447
856.334	-17.04177
856.736	-3.00659
857.137	-32.07339
857.538	-27.06697
857.939	-16.03918
858.34	-28.06589
858.741	-11.02799
859.142	-9.0209
859.542	-4.01039
859.943	-17.04119
860.343	-21.05119
860.744	10.02365
861.144	-4.00958
861.544	-6.01425
861.945	-45.11243
862.345	-35.08328
862.745	-9.02197
863.145	-17.03875
863.544	-18.04459
863.944	-37.08539
864.344	-38.09112
864.743	33.07894
865.143	47.11777
865.542	-58.13008
865.941	-7.01694
866.34	-15.03448
866.74	4.01049
867.139	41.09601
867.537	-50.12368
867.936	-4.0094
868.335	-1.00247
868.734	20.04971
869.132	-38.08505
869.531	-37.08634
869.929	-12.02671
870.327	-2.00466
870.726	16.03822
871.124	18.04025
871.522	-1.00247
871.92	19.04538
872.318	-27.06392
872.715	-29.069
873.113	-35.08286
873.511	-29.07035
873.908	-10.02506
874.306	7.01706
874.703	-15.0362
875.1	-29.07146
875.497	-15.03484
875.894	6.01456
876.291	14.03337
876.688	4.01006
877.085	-36.08372
877.482	19.04604
877.878	11.02603
878.275	-39.0974
878.671	-39.08179
879.068	-22.05171
879.464	6.01405
879.86	-56.12983
880.256	-32.07583
880.652	-25.06212
881.048	-12.02861
881.444	-74.17054
881.84	7.01725
882.236	-12.02936
882.631	17.04063
883.027	-9.02108
883.422	-53.13223
883.817	-7.01728
884.213	-12.03005
884.608	38.09203
885.003	-47.10993
885.398	-36.0883
885.793	-29.0708
886.188	-38.09227
886.582	5.01234
886.977	-27.06196
887.371	-32.07854
887.766	-34.08327
888.16	-53.12741
888.554	17.04035
888.949	0
889.343	-14.03307
889.737	-26.06861
890.131	0
890.525	8.02003
890.918	-41.10095
891.312	-4.00918
891.706	-15.03834
892.099	8.01969
892.492	0
892.886	-57.13645
893.279	-7.01732
893.672	-33.08284
894.065	53.12784
894.458	-49.11954
894.851	2.00472
895.244	-4.00994
895.637	25.05834
896.029	11.02623
896.422	-4.00936
896.814	11.0264
897.206	17.03972
897.599	25.05964
897.991	-7.01656
898.383	12.02748
898.775	47.10292
899.167	-16.03686
899.559	-8.01952
899.951	-11.02491
900.342	-23.05651
900.734	22.0542
901.125	-14.03559
901.517	1.00239
901.908	-24.05511
902.299	-35.08391
902.69	-10.02314
903.082	28.0654
903.473	-4.00946
903.863	-19.04701
904.254	15.03405
904.645	-14.03342
905.036	15.03591
905.426	-27.0591
905.817	-24.05698
906.207	-95.22081
906.597	25.05698
906.987	-6.01501
907.378	-11.02726
907.768	-13.0337
908.158	-4.00944
908.547	-12.0307
908.937	-58.14431
909.327	11.02578
909.717	-46.11245
910.106	-32.07457
910.495	2.00479
910.885	57.13926
911.274	-31.07554
911.663	-15.03673
912.052	-7.01657
912.441	0
912.83	-8.01764
913.219	35.08824
913.608	20.04756
913.997	-10.02466
914.385	12.02771
914.774	-59.14054
915.162	13.03032
915.55	19.044
915.939	-12.02976
916.327	-18.04338
916.715	23.05771
917.103	-16.03759
917.491	-15.03596
917.878	-39.09343
918.266	-45.11393
918.654	-9.02259
919.041	-4.01032
919.429	-26.0597
919.816	5.01228
920.203	0
920.591	-23.05573
920.978	8.01896
921.365	-7.01799
921.752	-37.0846
922.139	20.04169
922.525	-39.0919
922.912	-7.0165
923.299	19.04576
923.685	-37.09365
924.072	-28.06109
924.458	11.02653
924.844	-6.01444
925.231	-60.13534
925.617	-29.07295
926.003	-6.01487
926.389	-30.07388
926.774	-44.10876
927.16	-17.04101
927.546	3.00757
927.931	-13.03133
928.317	-32.07112
928.702	-15.03426
929.088	42.09776
929.473	17.04229
929.858	-33.07942
930.243	7.01645
930.628	-6.01434
931.013	-30.07271
931.398	1.00218
931.783	-18.04574
932.167	1.0024
932.552	-28.06822
932.937	-14.03357
933.321	23.05634
933.705	-37.09009
934.09	-56.13577
934.474	-69.15904
934.858	3.00759
935.242	-53.11963
935.626	14.03496
936.009	38.09895
936.393	29.07243
936.777	-8.02009
937.16	17.0433
937.544	-23.05172
937.927	-11.02735
938.311	31.07231
938.694	25.06433
939.077	-17.03954
939.46	-64.15055
939.843	5.00975
940.226	-20.04976
940.609	6.01348
940.991	-47.11645
941.374	-8.01913
941.757	1.00238
942.139	-32.0702
942.522	-5.01136
942.904	25.05795
943.286	5.01228
943.668	19.04828
944.05	-16.03838
944.432	-24.05744
944.814	-30.07126
945.196	-11.02629
945.578	2.00469
945.959	-32.07215
946.341	28.06486
946.722	-16.0362
947.104	-12.02785
947.485	-5.01127
947.866	33.08101
948.247	34.0837
948.628	-60.14042
949.009	-21.05249
949.39	-34.08203
949.771	-26.05723
950.152	11.02616
950.532	22.0539
950.913	8.01862
951.293	-5.01332
951.674	5.0117
952.054	11.02694
952.434	1.00241
952.814	-22.05021
953.194	-13.0327
953.574	-33.07885
953.954	-13.02959
954.334	28.06806
954.714	1.00238
955.093	35.08279
955.473	24.05871
955.853	27.0677
956.232	-40.1075
956.611	-28.0644
956.99	24.05858
957.37	-49.12149
957.749	-81.1867
958.128	-23.0569
958.506	-8.02027
958.885	-59.14554
959.264	29.06953
959.643	45.0987
960.021	-1.00242
960.4	18.03916
960.778	-26.06135
961.156	-28.06817
961.535	-41.09205
961.913	35.07913
962.291	-35.08909
962.669	6.01484
963.047	14.03485
963.424	3.00755
963.802	14.03338
964.18	-37.08986
964.557	-4.00885
964.935	17.03876
965.312	20.05083
965.69	-9.02167
966.067	-32.07498
966.444	-31.07293
966.821	-8.02011
967.198	-17.03953
967.575	-8.01894
967.952	-30.0685
968.329	-9.02141
968.705	15.0311
969.082	36.09055
969.458	-20.04738
969.835	-17.0402
970.211	19.0478
970.587	4.00968
970.963	-9.02225
971.339	1.00255
971.715	19.04597
972.091	-25.05987
972.467	-38.09109
972.843	10.02434
973.219	-2.00459
973.594	-40.10259
973.97	-27.06067
974.345	17.03945
974.721	-47.10933
975.096	23.05416
975.471	-23.05274
975.846	-15.03469
976.221	-21.05209
976.596	45.10546
976.971	9.02168
977.346	-46.10342
977.72	3.00738
978.095	-7.01759
978.469	-4.00919
978.844	-18.04374
979.218	42.09833
979.593	-32.07422
979.967	-62.14499
980.341	5.01117
980.715	-12.0295
981.089	-14.03404
981.463	-5.0111
981.837	10.02395
982.21	-15.0328
982.584	-7.01648
982.957	-33.08101
983.331	-67.15259
983.704	18.04331
984.078	-73.17642
984.451	-58.13882
984.824	-25.05971
985.197	-58.13558
985.57	-4.00957
985.943	-18.04234
986.316	-26.06104
986.688	8.01859
987.061	-8.01822
987.434	29.07418
987.806	-73.17101
988.179	-12.0273
988.551	-14.03438
988.923	-5.01186
989.295	31.07418
989.667	-11.02592
990.039	27.06555
990.411	-65.14383
990.783	-47.10383
991.155	-24.05639
991.527	-1.00233
991.898	-31.07577
992.27	27.06513
992.641	-8.01934
993.012	-45.10028
993.384	-26.05992
993.755	16.03975
994.126	-7.01648
994.497	-19.04536
994.868	-36.07931
995.239	-9.02107
995.61	-23.05646
995.98	-32.07557
996.351	-23.0559
996.722	20.04521
997.092	-20.04626
997.462	3.00686
997.833	-18.04095
998.203	-20.04631
998.573	-45.11006
998.943	29.06572
999.313	-11.02573
999.683	-34.07979
1000.053	-62.13585
1000.423	-12.02804
1000.792	-57.14324
1001.162	-32.07615
1001.531	-1.00239
1001.901	-25.06033
1002.27	-81.17339
1002.639	-81.20215
1003.009	-40.0924
1003.378	-6.01494
1003.747	-70.1608
1004.116	-45.1048
1004.485	-26.06032
1004.853	-52.12707
1005.222	-113.27658
1005.591	29.06586
1005.959	-44.09698
1006.328	31.06711
1006.696	-56.13142
1007.064	-24.05817
1007.433	-34.08212
1007.801	-46.10816
1008.169	-61.14931
1008.537	-1.00213
1008.905	-20.04554
1009.273	1.00237
1009.64	9.02103
1010.008	23.05259
1010.375	-6.01382
1010.743	10.02145
1011.11	7.01633
1011.478	-1.00242
1011.845	-41.09322
1012.212	13.02866
1012.579	21.04981
1012.946	-55.12617
1013.313	-35.08019
1013.68	10.02145
1014.047	-49.11389
1014.414	-62.14288
1014.78	-31.07543
1015.147	-36.08359
1015.513	-1.00233
1015.88	-31.07669
1016.246	-27.06392
1016.612	12.02614
1016.978	2.00478
1017.344	9.02155
1017.71	-2.00468
1018.076	-20.04515
1018.442	7.01752
1018.808	25.06092
1019.174	-23.05577
1019.539	-53.11336
1019.905	-12.02757
1020.27	-50.12031
1020.636	-40.09196
1021.001	-1.00232
1021.366	-33.07752
1021.731	32.08063
1022.096	-27.06709
1022.461	17.03884
1022.826	-5.01159
1023.191	13.0331
1023.556	-66.15028
1023.92	-20.04725
1024.285	-27.06328
1024.649	-52.1236
1025.014	-40.09537
1025.378	-15.03692
1025.742	-70.16888
1026.107	-12.02608
1026.471	-17.0381
1026.835	-37.08942
1027.199	-53.12494
1027.562	-32.07133
1027.926	-24.05661
1028.29	0
1028.654	-1.00221
1029.017	19.04517
1029.381	-40.09343
1029.744	-13.03227
1030.107	8.01823
1030.471	-10.02332
1030.834	-23.0497
1031.197	1.00232
1031.56	-32.07286
1031.923	-23.05811
1032.286	16.03611
1032.648	0
1033.011	-8.01802
1033.374	-21.04721
1033.736	-52.13434
1034.099	-3.00708
1034.461	-31.07706
1034.823	-43.10509
1035.185	-29.07038
1035.548	-18.04274
1035.91	0
1036.272	0
1036.634	-30.07131
1036.995	-22.04965
1037.357	-35.0834
1037.719	2.00471
1038.08	19.0438
1038.442	-33.07594
1038.803	-18.04113
1039.165	-41.10047
1039.526	-15.03517
1039.887	-22.05098
1040.248	33.07969
1040.609	-23.05456
1040.97	-48.11405
1041.331	12.02962
1041.692	22.05034
1042.053	-2.00435
1042.413	-27.06052
1042.774	32.07495
1043.134	-12.02722
1043.495	8.01944
1043.855	18.04257
1044.215	-4.00955
1044.576	-21.0491
1044.936	-6.01317
1045.296	-5.01208
1045.656	-60.14229
1046.016	1.00232
1046.375	2.00469
1046.735	17.03774
1047.095	-36.0819
1047.454	11.02197
1047.814	-45.10554
1048.173	-43.09836
1048.533	-44.09795
1048.892	-53.12484
1049.251	-29.07027
1049.61	6.01429
1049.969	-41.09364
1050.328	-33.06914
1050.687	-66.15604
1051.046	-60.14218
1051.405	-24.05742
1051.763	-15.03376
1052.122	19.04562
1052.48	-28.06699
1052.839	50.11445
1053.197	-27.06154
1053.555	-18.03866
1053.914	19.04458
1054.272	-53.12207
1054.63	-6.01425
1054.988	6.01389
1055.345	-59.12143
1055.703	8.01861
1056.061	18.04535
1056.419	-5.0128
1056.776	-77.17968
1057.134	-73.16201
1057.491	2.00485
1057.848	-28.06735
1058.206	-76.17193
1058.563	-39.08298
1058.92	-35.0778
1059.277	-5.01194
1059.634	-24.05383
1059.991	9.02084
1060.348	-53.11713
1060.704	36.08435
1061.061	-10.02194
1061.418	-23.05424
1061.774	-26.06242
1062.131	-29.07618
1062.487	-33.07436
1062.843	-10.02415
1063.199	-30.07268
1063.555	-34.07726
1063.911	-4.00972
1064.267	-5.0098
1064.623	2.00475
1064.979	-85.18974
1065.335	14.03186
1065.691	-107.2486
1066.046	-8.01685
1066.402	-7.01521
1066.757	27.06574
1067.112	-20.04738
1067.468	6.01387
1067.823	-69.15866
1068.178	-53.12411
1068.533	-29.06826
1068.888	-20.046
1069.243	-7.01674
1069.598	-42.09864
1069.952	44.09682
1070.307	-41.09957
1070.662	16.03708
1071.016	-10.02196
1071.371	23.05043
1071.725	-17.03895
1072.079	-13.03035
1072.434	-12.02837
1072.788	-44.10043
1073.142	6.01427
1073.496	-27.06194
1073.85	-7.01561
1074.203	-35.0827
1074.557	37.09637
1074.911	26.05903
1075.265	-11.02466
1075.618	-9.0213
1075.971	-23.05293
1076.325	-1.00249
1076.678	-54.12037
1077.031	-87.18841
1077.385	-7.01474
1077.738	-13.0282
1078.091	-57.1276
1078.444	-44.09787
1078.796	2.00478
1079.149	-26.06304
1079.502	-36.08333
1079.855	-5.01127
1080.207	1.00237
1080.56	-15.038
1080.912	-72.17128
1081.264	26.06044
1081.617	-24.05705
1081.969	-6.01479
1082.321	-40.09471
1082.673	3.00671
1083.025	-67.15425
1083.377	185.40287
1083.728	-36.08097
1084.08	-22.05298
1084.432	-75.17639
1084.783	-17.03765
1085.135	5.01219
1085.486	-8.01778
1085.838	-14.03357
1086.189	16.03778
1086.54	-17.03909
1086.891	21.05235
1087.242	48.1141
1087.593	-17.03942
1087.944	-22.04863
1088.295	57.12265
1088.646	1.00239
1088.996	-30.07073
1089.347	-39.09254
1089.698	-3.00693
1090.048	-21.05277
1090.398	-34.07585
1090.749	-40.09211
1091.099	-16.03965
1091.449	-10.02427
1091.799	-18.04376
1092.149	45.10694
1092.499	-13.03074
1092.849	-28.06949
1093.199	-16.03854
1093.548	-3.00705
1093.898	-43.10451
1094.248	-24.05941
1094.597	-5.01257
1094.947	-35.09162
1095.296	7.01681
1095.645	-10.02517
1095.994	-38.08876
1096.343	-33.08128
1096.692	-16.04172
1097.041	37.0987
1097.39	7.01687
1097.739	-23.05823
1098.088	-21.05451
1098.437	-8.0208
1098.785	-42.11004
1099.134	-39.09958
1099.482	-19.05134
1099.83	-2.00511
1100.179	33.08492
1100.527	-33.08471
1100.875	2.00519
1101.223	-22.0575
1101.571	-45.12174
1101.919	-35.09166
1102.267	-12.0334
1102.615	2.00642
1102.962	-5.01605
1103.31	-6.01929
1103.658	2.00641
