Data from N1 R1 sample 11_Subt2__4__11-26-10-376.txt Node

Date: Wed Sep 17 11:26:10 PDT 2025
User: uwsun
Spectrometer: HDX01956
Trigger mode: 0
Integration Time (sec): 5.000000E-1
Scans to average: 1
Nonlinearity correction enabled: true
Boxcar width: 0
Storing dark spectrum: false
XAxis mode: Wavelengths
Number of Pixels in Spectrum: 2068
>>>>>Begin Spectral Data<<<<<
194.03	-12.0349
194.578	2.0065
195.127	-7.02246
195.676	-4.01288
196.225	-21.05628
196.773	-35.09834
197.321	-22.06181
197.87	-36.0949
198.418	-11.02908
198.966	13.03498
199.513	-3.00782
200.061	-21.0549
200.609	-16.04329
201.156	-25.05673
201.704	-26.0674
202.251	-3.00816
202.798	-4.01062
203.345	26.06582
203.892	25.06453
204.438	-35.08589
204.985	-19.04659
205.532	-23.06212
206.078	-26.06549
206.624	37.09474
207.17	19.04573
207.716	20.05025
208.262	-12.02473
208.808	-50.13016
209.354	19.04814
209.899	-29.07522
210.445	-35.09047
210.99	19.04752
211.535	33.0796
212.08	-22.0528
212.625	-16.04111
213.17	10.02609
213.715	-4.00943
214.259	-3.00722
214.804	-9.02267
215.348	-1.00238
215.892	62.15302
216.436	-66.15694
216.98	5.01129
217.524	11.02699
218.068	10.02583
218.612	17.0442
219.155	35.08449
219.698	25.06078
220.242	-16.04053
220.785	36.0863
221.328	-34.0865
221.871	9.02343
222.414	15.03783
222.956	-37.0912
223.499	-44.10152
224.041	-26.06116
224.583	-43.09392
225.126	-29.06564
225.668	-39.09755
226.21	8.02066
226.751	14.03193
227.293	-31.07222
227.835	-26.06544
228.376	-25.05845
228.918	-22.05609
229.459	-18.046
230	29.07088
230.541	5.01175
231.082	-19.04745
231.622	-73.17135
232.163	-28.06931
232.704	39.09902
233.244	-48.12259
233.784	-26.0646
234.324	28.0643
234.864	-46.10732
235.404	4.00961
235.944	-24.05799
236.484	14.03557
237.023	-23.05563
237.563	-12.02862
238.102	13.03135
238.641	-29.07465
239.18	-66.1605
239.719	-16.04096
240.258	17.03897
240.797	-10.02446
241.335	-30.07483
241.874	16.03202
242.412	-4.00994
242.95	14.03452
243.488	-33.07631
244.026	-10.02387
244.564	-20.04251
245.102	13.03013
245.64	-39.09574
246.177	-34.07785
246.715	16.03917
247.252	-43.10066
247.789	60.113
248.326	-25.0619
248.863	-5.0113
249.4	17.03933
249.936	57.12138
250.473	9.02175
251.009	-30.07071
251.546	18.04112
252.082	-63.14127
252.618	0
253.154	-19.04692
253.69	-20.04613
254.226	22.05366
254.761	24.05493
255.297	-20.04497
255.832	-30.07342
256.367	1.0024
256.903	-5.01142
257.438	5.01197
257.972	-34.07814
258.507	-50.11853
259.042	-25.05611
259.576	44.09917
260.111	-15.03535
260.645	-22.049
261.179	-6.01441
261.713	6.01377
262.247	-83.1971
262.781	-48.10513
263.315	-27.06719
263.849	-16.04102
264.382	-16.03774
264.915	-10.02428
265.449	-23.05761
265.982	-23.05378
266.515	-3.00753
267.048	-48.10566
267.58	-1.00221
268.113	-55.12353
268.646	-37.09304
269.178	-38.08771
269.71	18.04075
270.243	76.17794
270.775	16.04181
271.307	-7.01703
271.838	-1.00241
272.37	-20.05023
272.902	-33.07707
273.433	44.09933
273.965	-27.06736
274.496	-7.01773
275.027	-17.04338
275.558	11.02741
276.089	-1.00255
276.62	-76.19797
277.15	-8.02011
277.681	-7.01548
278.211	-24.06004
278.741	-3.00685
279.272	15.03511
279.802	3.00761
280.332	-14.03396
280.861	15.03657
281.391	-11.0257
281.921	-39.09599
282.45	-6.0152
282.98	44.11607
283.509	8.01866
284.038	-2.0047
284.567	1.00239
285.096	3.00745
285.625	-43.10006
286.153	19.04639
286.682	-2.00472
287.21	-48.11795
287.739	28.0674
288.267	14.03482
288.795	8.02127
289.323	-5.01206
289.851	3.00724
290.378	-42.09691
290.906	10.02502
291.433	41.10373
291.961	-16.03768
292.488	-11.02794
293.015	-8.01941
293.542	63.16386
294.069	62.1556
294.596	-32.08043
295.122	-17.04195
295.649	-2.0045
296.175	-11.02715
296.702	81.20003
297.228	36.08813
297.754	-44.10265
298.28	44.10322
298.806	-32.0795
299.332	-11.02541
299.857	3.00701
300.383	-8.0206
300.908	8.02014
301.433	43.10724
301.958	6.01411
302.483	-30.07648
303.008	17.04319
303.533	5.01316
304.058	-23.05525
304.582	-5.01214
305.107	-18.04799
305.631	-38.08925
306.155	6.01435
306.679	25.06014
307.203	14.03333
307.727	-8.0195
308.251	-7.01772
308.775	61.15075
309.298	9.02224
309.822	-12.03092
310.345	44.1072
310.868	38.09348
311.391	-18.0456
311.914	-10.02572
312.437	-5.01178
312.96	5.0121
313.482	-23.05577
314.005	-39.10035
314.527	-43.11505
315.049	19.04911
315.571	-1.00232
316.093	-13.0331
316.615	-24.05939
317.137	1.00225
317.659	8.01987
318.18	-33.08125
318.702	-2.00483
319.223	-19.0403
319.744	23.05321
320.265	-26.06542
320.786	38.09684
321.307	6.01519
321.828	22.051
322.348	-5.01213
322.869	39.095
323.389	273.52365
323.909	-18.04256
324.43	13.03187
324.95	13.03063
325.47	19.04826
325.989	37.08982
326.509	0
327.029	11.02591
327.548	11.0257
328.067	-8.02002
328.587	32.08201
329.106	-49.11515
329.625	5.01332
330.144	41.0977
330.662	3.00727
331.181	65.15638
331.7	14.03348
332.218	36.08044
332.736	17.04096
333.255	9.02185
333.773	10.02431
334.291	29.07423
334.808	-3.00701
335.326	25.05785
335.844	34.08215
336.361	54.14158
336.879	16.03882
337.396	21.05256
337.913	-12.02877
338.43	0
338.947	43.10525
339.464	-11.02474
339.981	-20.04916
340.497	7.0177
341.014	-4.01006
341.53	-23.05403
342.046	99.25047
342.562	45.11454
343.078	9.02187
343.594	40.09753
344.11	43.1056
344.626	31.08013
345.141	32.07545
345.657	47.10937
346.172	29.0719
346.687	-9.02144
347.202	46.10812
347.717	12.02952
348.232	8.0205
348.747	17.04059
349.261	-9.02062
349.776	49.11949
350.29	49.12543
350.805	26.06593
351.319	15.03602
351.833	36.08544
352.347	34.08262
352.861	38.09175
353.374	15.03529
353.888	88.21879
354.401	13.03063
354.915	2.0047
355.428	48.12233
355.941	25.06005
356.454	25.05753
356.967	-23.05579
357.48	-8.01885
357.993	31.07821
358.505	11.02755
359.018	57.14272
359.53	84.20869
360.042	38.08789
360.554	89.22147
361.066	9.02257
361.578	66.14997
362.09	15.03682
362.602	39.08986
363.113	76.1828
363.625	28.06574
364.136	1.00229
364.647	39.0951
365.158	66.1573
365.669	23.05657
366.18	32.07752
366.691	20.04547
367.201	51.1252
367.712	11.02611
368.222	26.06187
368.733	30.06764
369.243	72.16526
369.753	63.14886
370.263	77.18959
370.773	53.13184
371.282	113.2735
371.792	36.086
372.301	41.10151
372.811	55.14667
373.32	78.17357
373.829	28.06796
374.338	33.07585
374.847	63.14909
375.356	55.13282
375.865	96.21097
376.373	50.11702
376.882	72.18517
377.39	94.23021
377.898	30.07559
378.407	51.11915
378.915	123.27377
379.423	33.079
379.93	183.4255
380.438	50.12286
380.946	101.23873
381.453	91.22174
381.96	101.24455
382.468	101.24104
382.975	140.34451
383.482	73.16739
383.989	157.40257
384.495	215.49812
385.002	151.32086
385.509	230.54226
386.015	212.43367
386.521	173.39398
387.028	208.46918
387.534	157.33797
388.04	267.62887
388.546	190.41823
389.051	268.57827
389.557	220.50232
390.063	249.55143
390.568	292.68011
391.073	226.49434
391.578	299.70532
392.084	325.71191
392.589	344.71389
393.093	403.91099
393.598	395.85938
394.103	457.01332
394.607	481.07416
395.112	496.12798
395.616	559.24092
396.12	564.17848
396.624	644.36788
397.128	639.39228
397.632	734.53421
398.136	792.60005
398.639	917.84484
399.143	1074.2093
399.646	1170.23849
400.15	1263.31342
400.653	1476.50722
401.156	1670.65879
401.659	2002.213
402.162	2497.24205
402.664	3853.89025
403.167	7960.42125
403.67	24407.76172
404.172	59334.15406
404.674	63858.43483
405.176	63738.15102
405.678	63977.72923
406.18	64011.81569
406.682	63863.44694
407.184	28443.33621
407.686	12229.42998
408.187	7275.26764
408.688	4920.69188
409.19	3804.08107
409.691	3227.60919
410.192	2833.51925
410.693	2562.95853
411.194	2344.10713
411.694	2238.27277
412.195	2011.34871
412.696	1937.01681
413.196	1894.5681
413.696	1875.03595
414.196	1835.70176
414.696	1745.04773
415.196	1580.6765
415.696	1284.24712
416.196	1016.98949
416.695	904.82574
417.195	795.67833
417.694	805.46197
418.194	648.23636
418.693	707.4402
419.192	672.42246
419.691	593.25805
420.19	639.38816
420.688	582.30462
421.187	568.05776
421.685	537.14799
422.184	493.07832
422.682	349.72669
423.18	354.77592
423.678	270.59831
424.176	259.57405
424.674	272.58615
425.172	245.55951
425.669	190.45665
426.167	203.46174
426.664	199.44328
427.161	187.42293
427.659	128.30846
428.156	212.44331
428.652	152.37872
429.149	170.40718
429.646	119.26552
430.143	97.23283
430.639	95.22568
431.135	135.33508
431.632	116.2653
432.128	98.23572
432.624	128.32781
433.12	100.22898
433.616	119.26135
434.111	72.17213
434.607	74.17813
435.103	47.10022
435.598	136.28262
436.093	77.18031
436.588	74.16788
437.083	77.1738
437.578	125.28835
438.073	55.13851
438.568	61.15097
439.062	40.08702
439.557	3.00714
440.051	6.01375
440.546	27.06224
441.04	32.07767
441.534	33.08373
442.028	45.10924
442.522	21.05102
443.015	-27.0595
443.509	9.02218
444.002	44.10832
444.496	-18.04001
444.989	21.05148
445.482	-9.02261
445.975	45.10492
446.468	-34.07569
446.961	55.12054
447.454	37.08385
447.947	8.01935
448.439	14.03471
448.931	46.10643
449.424	60.15275
449.916	47.11517
450.408	12.02783
450.9	-16.03948
451.392	18.04603
451.884	23.05344
452.375	-31.07804
452.867	23.0523
453.358	-29.06786
453.849	39.08428
454.341	-6.01378
454.832	-48.10664
455.323	50.12476
455.814	-1.00232
456.304	-11.02587
456.795	25.05765
457.285	-21.04719
457.776	17.03917
458.266	-47.11393
458.756	-67.16223
459.247	6.0145
459.737	47.11401
460.226	28.0644
460.716	1.00242
461.206	32.07694
461.695	-30.07524
462.185	23.055
462.674	-16.03718
463.163	-7.01595
463.653	5.01081
464.142	17.04149
464.63	-27.06638
465.119	19.04455
465.608	30.07071
466.096	-13.02871
466.585	-31.07211
467.073	-23.05506
467.561	14.03382
468.05	5.01163
468.538	-4.00986
469.026	-18.04325
469.513	18.03841
470.001	15.03475
470.489	-22.05304
470.976	36.08445
471.463	-31.07818
471.951	15.03744
472.438	-1.00237
472.925	-46.11035
473.412	5.01222
473.899	13.03006
474.385	-41.10192
474.872	-34.0806
475.359	-34.08478
475.845	-32.06775
476.331	-11.02379
476.817	0
477.303	1.00235
477.789	-11.02647
478.275	-24.06023
478.761	-37.08922
479.247	8.01802
479.732	-35.08849
480.218	-7.01846
480.703	-27.06731
481.188	-14.03079
481.673	22.05088
482.158	-10.02195
482.643	-10.02575
483.128	41.09582
483.612	39.09311
484.097	-19.04633
484.581	-7.01638
485.066	17.04184
485.55	8.01788
486.034	-26.0574
486.518	31.07447
487.002	-19.0467
487.486	-27.06636
487.969	-35.08624
488.453	-29.07301
488.936	-25.05719
489.42	26.05788
489.903	-59.14933
490.386	-87.18584
490.869	-23.05128
491.352	-28.06824
491.835	-7.01454
492.318	-47.10777
492.8	-29.0613
493.283	0
493.765	-41.10203
494.247	-3.00705
494.73	24.05347
495.212	-78.18918
495.694	-44.10559
496.175	-7.01699
496.657	-15.03594
497.139	-70.12464
497.62	-14.03406
498.102	3.00752
498.583	-63.15757
499.064	-47.10699
499.545	-13.03001
500.026	-9.02063
500.507	-36.08429
500.988	8.02011
501.469	-33.08328
501.949	-37.09264
502.43	-3.0073
502.91	28.05987
503.39	-40.10057
503.87	25.05939
504.35	-56.13362
504.83	-16.03552
505.31	-47.11521
505.79	-56.13495
506.269	-74.174
506.749	-74.17332
507.228	-49.11757
507.707	7.01578
508.187	6.01445
508.666	-23.05769
509.145	-56.13368
509.623	-38.0905
510.102	-27.06621
510.581	14.03399
511.059	-21.05347
511.538	13.03366
512.016	-17.04125
512.494	-35.08541
512.972	-35.08516
513.45	-56.13342
513.928	-40.09887
514.406	-25.06214
514.884	-44.11517
515.361	-55.13427
515.839	-20.04677
516.316	-20.04925
516.793	-39.0999
517.27	-77.18959
517.747	-38.09892
518.224	-68.16045
518.701	-77.17493
519.178	-12.03036
519.654	-50.12072
520.131	-44.11083
520.607	-70.17473
521.083	-84.19566
521.56	-73.17622
522.036	-47.10461
522.512	-53.13333
522.987	-26.06358
523.463	-28.0674
523.939	7.01751
524.414	-47.10976
524.89	-11.02657
525.365	-57.13175
525.84	-58.14236
526.315	-20.04911
526.79	-56.12926
527.265	23.05352
527.74	-61.15114
528.215	-83.19877
528.689	-63.14162
529.164	-61.13419
529.638	-105.27318
530.112	-97.23477
530.587	-46.10075
531.061	-48.11838
531.534	-50.12282
532.008	-34.08404
532.482	-51.11976
532.956	-58.15067
533.429	8.01974
533.903	-69.1553
534.376	-71.16124
534.849	-79.18652
535.322	-34.08159
535.795	-91.22563
536.268	-33.08119
536.741	-93.22696
537.213	-56.13162
537.686	-40.09956
538.158	-70.16344
538.631	-81.20113
539.103	-49.11317
539.575	-34.07154
540.047	-55.12287
540.519	-43.10466
540.991	-70.17461
541.463	-69.16983
541.934	-129.30267
542.406	-17.04143
542.877	-55.12708
543.348	-12.02936
543.82	-51.12645
544.291	-18.04267
544.762	-46.11174
545.233	-23.0591
545.703	-55.12546
546.174	-59.14011
546.645	-42.10358
547.115	-41.10088
547.585	-67.15812
548.056	-17.04243
548.526	0
548.996	-38.09258
549.466	-26.06422
549.935	-31.07546
550.405	-53.11953
550.875	-49.11896
551.344	-56.13659
551.814	-32.07483
552.283	29.06393
552.752	-31.07413
553.221	-43.09737
553.69	25.05712
554.159	-30.076
554.628	27.06186
555.096	2.00514
555.565	-41.09288
556.033	18.04338
556.502	1.00244
556.97	-38.08659
557.438	-24.05738
557.906	-21.05043
558.374	24.05621
558.842	22.05318
559.31	14.03175
559.777	16.03949
560.245	-36.08435
560.712	64.14678
561.18	17.0381
561.647	36.08048
562.114	8.01858
562.581	65.15993
563.048	72.16493
563.514	109.27134
563.981	67.15363
564.448	112.2512
564.914	97.22403
565.381	139.31348
565.847	117.2699
566.313	82.18973
566.779	137.30429
567.245	151.34388
567.711	142.33493
568.176	139.30771
568.642	217.53092
569.108	156.37678
569.573	210.47214
570.038	180.36788
570.504	224.49059
570.969	214.5151
571.434	264.56329
571.899	258.58884
572.363	310.67691
572.828	344.74765
573.293	319.69465
573.757	363.7938
574.222	379.79618
574.686	375.81033
575.15	391.88315
575.614	436.95642
576.078	410.89788
576.542	419.88795
577.006	402.84765
577.469	415.95337
577.933	420.89027
578.396	447.98158
578.86	492.06003
579.323	477.05775
579.786	441.8831
580.249	487.05261
580.712	417.94608
581.175	393.90898
581.637	397.84611
582.1	409.8285
582.563	390.77248
583.025	368.84425
583.487	348.67413
583.95	314.63883
584.412	326.64813
584.874	360.8292
585.336	375.83665
585.797	316.65286
586.259	295.65955
586.721	290.65092
587.182	308.67625
587.643	299.64833
588.105	282.63842
588.566	227.45815
589.027	278.65388
589.488	222.49441
589.949	276.64361
590.41	241.46048
590.87	221.49106
591.331	256.53887
591.791	242.54163
592.252	224.5063
592.712	192.44898
593.172	175.39015
593.632	252.54025
594.092	196.426
594.552	178.37765
595.011	131.29653
595.471	170.37814
595.931	180.39789
596.39	173.40701
596.849	164.37492
597.308	101.21415
597.768	174.43982
598.227	118.2807
598.685	112.25326
599.144	187.43085
599.603	73.17054
600.062	89.1873
600.52	88.19834
600.978	123.28747
601.437	121.27244
601.895	152.3208
602.353	63.13877
602.811	160.35471
603.269	120.28238
603.727	122.28965
604.184	134.30165
604.642	123.29882
605.099	146.33592
605.557	116.27912
606.014	97.20809
606.471	143.35325
606.928	140.30714
607.385	152.37431
607.842	111.25248
608.299	135.31129
608.755	126.30145
609.212	185.40321
609.668	166.3674
610.125	189.4443
610.581	175.40127
611.037	124.27467
611.493	170.38832
611.949	128.30788
612.405	185.36789
612.861	101.23048
613.316	142.3348
613.772	167.37462
614.227	154.36351
614.683	149.3104
615.138	185.42318
615.593	137.31313
616.048	187.41707
616.503	99.23826
616.958	190.46374
617.412	171.39713
617.867	180.39323
618.321	147.29805
618.776	136.29497
619.23	124.28656
619.684	149.32626
620.138	158.35407
620.592	114.27316
621.046	168.38823
621.5	102.24301
621.954	123.2682
622.407	122.26607
622.861	106.25448
623.314	69.15568
623.768	157.36318
624.221	135.2612
624.674	95.21758
625.127	102.23469
625.58	111.24613
626.033	95.20583
626.485	64.15254
626.938	112.26335
627.39	94.21784
627.843	105.23932
628.295	113.25714
628.747	94.22206
629.199	74.16761
629.651	20.04611
630.103	93.21137
630.555	53.11164
631.006	59.13675
631.458	72.16844
631.909	54.12071
632.361	68.15608
632.812	58.13388
633.263	90.19362
633.714	28.05954
634.165	21.0505
634.616	52.1226
635.067	43.09471
635.518	38.09008
635.968	48.09432
636.419	62.13499
636.869	67.15776
637.319	78.17968
637.769	38.08554
638.219	42.09899
638.669	26.06192
639.119	1.00241
639.569	25.06008
640.019	26.06023
640.468	46.10304
640.918	43.1018
641.367	25.05615
641.816	46.10215
642.265	66.15319
642.714	15.03456
643.163	81.18574
643.612	44.10768
644.061	44.09417
644.51	23.05293
644.958	26.05764
645.406	33.07891
645.855	-7.01712
646.303	67.15394
646.751	68.15652
647.199	57.12876
647.647	45.10439
648.095	19.0435
648.543	21.04285
648.99	32.07694
649.438	29.06717
649.885	50.12427
650.333	71.13717
650.78	47.11333
651.227	53.12924
651.674	53.12065
652.121	52.12716
652.568	65.15833
653.015	-14.03491
653.461	21.05006
653.908	18.04148
654.354	101.23735
654.801	1.00236
655.247	42.0909
655.693	44.11403
656.139	26.06211
656.585	1.0024
657.031	44.10326
657.477	52.11341
657.922	5.01143
658.368	-3.00741
658.813	35.07955
659.259	47.11363
659.704	72.1695
660.149	-21.04895
660.594	32.07595
661.039	41.09334
661.484	56.13198
661.929	23.05384
662.373	-1.00252
662.818	10.0248
663.262	30.07254
663.707	7.01786
664.151	38.09244
664.595	49.11806
665.039	35.08669
665.483	15.03821
665.927	31.07271
666.371	10.02363
666.814	-4.00956
667.258	72.17213
667.701	19.04066
668.145	60.1483
668.588	42.10374
669.031	-8.01895
669.474	-9.02173
669.917	13.0286
670.36	42.10446
670.803	25.06042
671.245	-56.11689
671.688	5.01221
672.13	12.02726
672.573	21.053
673.015	24.05788
673.457	12.02623
673.899	45.10838
674.341	18.04339
674.783	22.05274
675.225	46.1127
675.666	80.19374
676.108	-13.02836
676.549	-37.08719
676.991	-3.00663
677.432	-33.06651
677.873	3.00688
678.314	12.0286
678.755	77.18784
679.196	-24.05538
679.637	7.01678
680.078	31.07225
680.518	-16.03699
680.959	-16.03832
681.399	0
681.839	-26.06358
682.28	-7.01746
682.72	-28.06463
683.16	1.0025
683.6	18.04095
684.039	-29.06057
684.479	18.04441
684.919	11.02592
685.358	-18.04501
685.798	-2.00521
686.237	-18.04316
686.676	-15.03413
687.115	28.06579
687.554	59.13995
687.993	2.00444
688.432	7.01599
688.871	51.1161
689.309	-2.00481
689.748	-29.06095
690.186	-64.15178
690.625	30.07021
691.063	-28.06725
691.501	42.10316
691.939	10.02516
692.377	-28.06829
692.815	41.09965
693.253	29.06868
693.69	-9.01978
694.128	-10.02434
694.565	-6.01424
695.003	30.07627
695.44	23.0543
695.877	15.03524
696.314	-34.07223
696.751	-9.02045
697.188	11.02548
697.625	-30.06756
698.061	-18.04325
698.498	-46.10964
698.934	22.05233
699.371	-43.10207
699.807	15.03529
700.243	-9.02174
700.679	-6.01339
701.115	-27.06328
701.551	-48.11247
701.987	-58.12816
702.422	17.04043
702.858	29.06876
703.294	62.14043
703.729	17.04115
704.164	-45.10818
704.599	-20.04486
705.035	-18.04052
705.47	9.02178
705.904	-31.07214
706.339	-5.01147
706.774	-37.08715
707.209	11.02553
707.643	-5.01195
708.078	25.06037
708.512	-71.17989
708.946	-39.09283
709.38	25.059
709.814	3.00677
710.248	28.06799
710.682	42.09991
711.116	54.12999
711.549	-49.12569
711.983	24.05504
712.416	17.04014
712.85	-42.10442
713.283	34.07951
713.716	1.00247
714.149	-66.15428
714.582	13.02907
715.015	-26.06379
715.448	31.07737
715.881	-13.02789
716.313	-15.03502
716.746	-8.01891
717.178	-35.08443
717.61	35.08811
718.043	-41.10151
718.475	5.01207
718.907	7.01736
719.339	-9.02038
719.77	-8.01913
720.202	6.01493
720.634	3.00733
721.065	-14.03292
721.497	0
721.928	-45.11031
722.359	-58.1422
722.79	-28.06709
723.221	0
723.652	-32.08126
724.083	-14.03141
724.514	16.03646
724.945	-8.01866
725.375	8.01859
725.806	-8.01961
726.236	44.11083
726.666	29.06756
727.096	-7.01703
727.526	28.07141
727.956	-10.0228
728.386	-23.05623
728.816	17.04315
729.246	45.10957
729.675	-49.11976
730.105	0
730.534	-19.04413
730.964	5.01236
731.393	-28.0684
731.822	29.07321
732.251	41.10255
732.68	-39.09022
733.109	-24.05906
733.537	40.09654
733.966	-20.04982
734.395	-1.0023
734.823	-24.05288
735.251	-35.08398
735.68	-31.07619
736.108	-29.07222
736.536	-8.0186
736.964	-28.06471
737.392	-12.02979
737.82	-4.00947
738.247	12.02826
738.675	-7.01631
739.102	-11.02725
739.53	23.05852
739.957	24.06142
740.384	-29.0695
740.811	-69.17208
741.238	2.00487
741.665	32.07427
742.092	-95.2202
742.519	-29.07185
742.945	47.11247
743.372	-12.02966
743.798	-33.08417
744.225	-35.08254
744.651	-17.04224
745.077	-21.05207
745.503	-17.04074
745.929	51.12144
746.355	-6.01445
746.781	-72.17738
747.207	-18.04259
747.632	1.00247
748.058	32.07959
748.483	5.01137
748.908	-15.03715
749.334	21.05115
749.759	23.05416
750.184	3.00717
750.609	4.00969
751.033	-5.01154
751.458	20.0439
751.883	-11.02682
752.307	-51.12008
752.732	31.07826
753.156	-13.03175
753.58	-27.06325
754.005	-16.03981
754.429	-3.00706
754.853	-3.00741
755.277	44.10269
755.7	-2.00492
756.124	-19.04695
756.548	-14.0328
756.971	-22.05334
757.394	-39.09927
757.818	10.02551
758.241	-3.00756
758.664	-25.06278
759.087	-45.10157
759.51	-7.01708
759.933	-28.0675
760.356	14.03573
760.778	-11.0268
761.201	-2.00477
761.623	-81.19317
762.046	-22.05092
762.468	-10.02368
762.89	-17.04107
763.312	1.00242
763.734	-28.06717
764.156	34.08252
764.578	4.00898
765	21.05039
765.421	6.01516
765.843	-27.07018
766.264	-20.04686
766.686	-58.14347
767.107	-21.05048
767.528	-17.04341
767.949	2.00501
768.37	68.1648
768.791	18.04239
769.212	14.03485
769.632	-11.02556
770.053	-53.13799
770.473	-37.08854
770.894	-31.07554
771.314	-14.0326
771.734	8.01836
772.154	5.01257
772.575	20.04519
772.994	-30.06731
773.414	-43.10144
773.834	-28.06908
774.254	9.0216
774.673	7.0169
775.093	-15.03701
775.512	-16.03914
775.931	-10.02509
776.351	8.01969
776.77	-25.06094
777.189	10.02338
777.607	-8.02018
778.026	18.04408
778.445	-2.00502
778.864	-27.06765
779.282	-20.04705
779.701	-9.02227
780.119	-4.01001
780.537	-68.16869
780.955	-16.0399
781.373	-29.07088
781.791	5.01119
782.209	19.04187
782.627	19.0492
783.045	-70.15848
783.462	-11.02772
783.88	1.00255
784.297	-7.01737
784.715	14.03553
785.132	-25.05939
785.549	-36.08905
785.966	11.02718
786.383	-12.02929
786.8	21.04765
787.217	13.03055
787.633	-37.09251
788.05	-46.10576
788.466	7.01594
788.883	10.02531
789.299	-65.15334
789.715	16.03828
790.131	9.02196
790.547	-6.0147
790.963	3.00729
791.379	-11.02741
791.795	-15.03323
792.21	-9.02051
792.626	-28.06489
793.041	-10.02421
793.457	-17.04105
793.872	-66.15258
794.287	6.01428
794.702	-46.11014
795.117	-5.01227
795.532	-3.00745
795.947	-17.03958
796.362	-22.05048
796.776	20.04465
797.191	-24.05801
797.605	-11.02573
798.02	-30.07183
798.434	37.07986
798.848	38.09251
799.262	-46.11291
799.676	-12.02873
800.09	27.06468
800.504	11.02593
800.918	-46.10406
801.331	-46.11632
801.745	-35.07861
802.158	-41.10017
802.572	37.08715
802.985	15.03497
803.398	-14.03261
803.811	-26.06431
804.224	-25.0603
804.637	-13.03051
805.05	-1.00224
805.462	-12.02871
805.875	-11.02813
806.288	-16.03816
806.7	-66.16248
807.112	-25.05629
807.525	-92.22196
807.937	-22.0536
808.349	-21.05125
808.761	36.08639
809.173	-13.03103
809.584	15.0359
809.996	-37.08905
810.408	31.07893
810.819	-25.05781
811.231	60.15608
811.642	44.10636
812.053	-17.04077
812.464	-39.09086
812.875	11.02762
813.286	5.01272
813.697	-50.11196
814.108	-24.05718
814.519	-41.09069
814.929	-7.01741
815.34	-50.11816
815.75	3.00753
816.16	-24.05786
816.571	-4.01013
816.981	-26.05934
817.391	-35.08212
817.801	-14.03422
818.211	-36.08399
818.62	34.07982
819.03	-34.08156
819.44	-74.18792
819.849	-32.07828
820.259	-24.05956
820.668	-49.11931
821.077	7.01713
821.486	-13.03016
821.895	-50.11967
822.304	-31.0806
822.713	-17.03909
823.122	-7.01703
823.531	-38.08698
823.939	29.06887
824.348	-8.01885
824.756	-7.01702
825.164	-6.01466
825.573	-12.02948
825.981	-1.0024
826.389	-10.02449
826.797	10.02486
827.205	14.03144
827.612	-35.0842
828.02	-41.0939
828.428	-9.02237
828.835	-11.02858
829.243	-71.16561
829.65	-47.11598
830.057	-14.03298
830.464	34.08128
830.871	22.05129
831.278	-11.02596
831.685	-39.08471
832.092	-33.07831
832.499	4.00853
832.905	-32.07886
833.312	-74.16296
833.718	39.09475
834.124	5.01112
834.531	-29.07085
834.937	-37.09361
835.343	-9.02096
835.749	-32.07189
836.155	-47.12119
836.561	-17.04091
836.966	-2.00474
837.372	1.00247
837.777	-19.04647
838.183	-5.01072
838.588	6.0146
838.993	-13.0309
839.399	-29.06977
839.804	-47.11281
840.209	14.03512
840.613	-9.0194
841.018	-22.05418
841.423	4.01001
841.828	4.00991
842.232	-52.12422
842.637	40.09207
843.041	-19.04793
843.445	-67.16436
843.849	-36.08777
844.253	-13.02998
844.657	-43.10712
845.061	67.14826
845.465	-21.04956
845.869	16.03596
846.272	-3.00715
846.676	-52.12113
847.079	3.0075
847.483	2.00484
847.886	23.05359
848.289	19.05008
848.692	-30.07385
849.095	4.00928
849.498	15.03632
849.901	-44.09779
850.304	-39.09108
850.707	-52.12985
851.109	-3.00735
851.512	16.03825
851.914	-6.01487
852.316	16.03978
852.718	28.07211
853.121	-38.0913
853.523	-25.05654
853.925	-19.04908
854.326	-12.0295
854.728	-18.04545
855.13	-18.04592
855.531	-37.08678
855.933	-14.03237
856.334	-22.0541
856.736	-11.02419
857.137	-5.01141
857.538	-24.0595
857.939	17.04138
858.34	-2.00468
858.741	-34.08686
859.142	-42.09818
859.542	0
859.943	-45.10961
860.343	-24.05854
860.744	-8.01899
861.144	-8.01918
861.544	-3.00712
861.945	-20.04974
862.345	-22.05221
862.745	4.00974
863.145	-13.02961
863.544	-12.02969
863.944	8.0183
864.344	-56.13475
864.743	21.05035
865.143	4.0101
865.542	-18.04004
865.941	-17.04122
866.34	-36.0831
866.74	-20.05267
867.139	21.04937
867.537	-42.10374
867.936	-15.03533
868.335	-49.12211
868.734	13.03235
869.132	-6.01334
869.531	-16.03718
869.929	-27.06029
870.327	11.02554
870.726	-23.05535
871.124	-6.01348
871.522	-30.07451
871.92	19.04538
872.318	-11.02596
872.715	-24.05705
873.113	-55.13071
873.511	-22.0533
873.908	-38.09571
874.306	-5.01222
874.703	-75.18303
875.1	-42.10374
875.497	0
875.894	11.02666
876.291	0
876.688	-32.08098
877.085	6.01384
877.482	-17.04147
877.878	19.04489
878.275	0
878.671	-69.14566
879.068	12.02802
879.464	2.00469
879.86	-16.0368
880.256	-48.1141
880.652	-29.07211
881.048	-18.04297
881.444	-56.12859
881.84	-37.09194
882.236	5.01219
882.631	-16.03849
883.027	-19.04458
883.422	-45.1121
883.817	-11.02717
884.213	-21.05268
884.608	11.02677
885.003	-30.06994
885.398	-49.12047
885.793	-52.12749
886.188	-22.05326
886.582	-15.03715
886.977	-15.03434
887.371	-36.08843
887.766	-36.0882
888.16	-32.07662
888.554	-8.01908
888.949	-17.04158
889.343	-40.09497
889.737	10.02623
890.131	-29.07111
890.525	-1.00251
890.918	-40.09847
891.312	-43.09943
891.706	-16.04091
892.099	12.02952
892.492	3.00619
892.886	-28.06666
893.279	-39.09705
893.672	-45.1132
894.065	-19.04645
894.458	-24.05827
894.851	-52.12389
895.244	-46.11516
895.637	16.0374
896.029	-18.04316
896.422	-33.07767
896.814	-39.0945
897.206	4.00937
897.599	8.01915
897.991	9.02122
898.383	-11.0253
898.775	9.01987
899.167	2.00459
899.559	-32.07843
899.951	-49.11182
900.342	15.03659
900.734	-9.0223
901.125	-14.03559
901.517	-7.01674
901.908	-21.04819
902.299	-30.07186
902.69	66.1504
903.082	-9.02117
903.473	18.04237
903.863	-46.11437
904.254	43.09706
904.645	-30.07183
905.036	12.02874
905.426	-16.03494
905.817	-56.13378
906.207	-86.19953
906.597	-28.0645
906.987	-71.1797
907.378	12.02962
907.768	-31.0806
908.158	-13.03074
908.547	-6.01533
908.937	-39.0967
909.327	3.00704
909.717	-31.07557
910.106	-50.11693
910.495	-9.02158
910.885	38.09317
911.274	-4.0097
911.663	-37.09097
912.052	-7.01657
912.441	-6.01498
912.83	-16.03534
913.219	-12.03051
913.608	36.08534
913.997	-20.04942
914.385	32.0736
914.774	3.00706
915.162	-8.01874
915.55	-9.02096
915.939	2.00495
916.327	-34.08218
916.715	36.09012
917.103	-18.04231
917.491	-34.08181
917.878	-27.06454
918.266	-38.09609
918.654	37.09211
919.041	-14.03618
919.429	-23.05278
919.816	5.01228
920.203	11.02609
920.591	-20.04843
920.978	-2.00475
921.365	-17.04376
921.752	-50.11463
922.139	18.03754
922.525	0
922.912	-15.03541
923.299	-9.02179
923.685	-39.09874
924.072	-48.10517
924.458	1.00242
924.844	-15.03616
925.231	-49.11028
925.617	-1.0025
926.003	4.00989
926.389	-11.02699
926.774	-64.15877
927.16	-1.0024
927.546	8.02018
927.931	-28.06768
928.317	-13.02878
928.702	-34.07795
929.088	37.0862
929.473	-15.03753
929.858	-59.14269
930.243	-22.05199
930.628	-4.00956
931.013	-1.00241
931.398	-43.0946
931.783	-62.15879
932.167	46.10938
932.552	-9.02185
932.937	-30.07216
933.321	-10.02464
933.705	-58.14178
934.09	-51.12353
934.474	-10.02278
934.858	16.04037
935.242	-36.08097
935.626	-11.02759
936.009	15.03921
936.393	59.14655
936.777	9.02253
937.16	-28.07189
937.544	-51.11535
937.927	33.0814
938.311	-8.0188
938.694	42.10775
939.077	-12.02789
939.46	-90.21278
939.843	-51.10076
940.226	-58.1453
940.609	46.10249
940.991	-39.09649
941.374	12.02858
941.757	-22.05262
942.139	-9.01965
942.522	-32.0731
942.904	14.03252
943.286	-28.06918
943.668	16.04068
944.05	-3.00718
944.432	-9.02148
944.814	-58.1385
945.196	-28.06714
945.578	4.00938
945.959	-73.16598
946.341	-20.04677
946.722	-11.02486
947.104	10.02311
947.485	1.00225
947.866	-22.05456
948.247	-17.04224
948.628	-71.16652
949.009	-27.06756
949.39	-49.11855
949.771	-66.1465
950.152	-5.01193
950.532	21.05146
950.913	-18.04211
951.293	8.02126
951.674	-12.02818
952.054	-10.02459
952.434	-17.04116
952.814	-73.16833
953.194	-19.04785
953.574	-23.05485
953.954	-33.07543
954.334	9.02196
954.714	-35.08372
955.093	34.08044
955.473	16.0392
955.853	-16.04043
956.232	-8.02139
956.611	-32.07366
956.99	-34.08388
957.37	-60.14907
957.749	-69.15866
958.128	-16.03953
958.506	-9.0228
958.885	-30.07361
959.264	-5.01207
959.643	34.07475
960.021	-11.02671
960.4	-18.03946
960.778	-25.05898
961.156	-51.12469
961.535	-3.00668
961.913	69.15491
962.291	-23.05842
962.669	-1.00248
963.047	-18.04506
963.424	24.06015
963.802	-39.09393
964.18	-26.06301
964.557	12.02646
964.935	-2.00458
965.312	-3.00765
965.69	-6.01444
966.067	-56.13183
966.444	-57.13478
966.821	6.01504
967.198	-41.09579
967.575	-20.04745
967.952	-26.05932
968.329	25.05907
968.705	-2.00416
969.082	14.03535
969.458	-4.00945
969.835	1.00236
970.211	21.05281
970.587	24.05784
970.963	-8.01977
971.339	13.03314
971.715	0
972.091	6.01428
972.467	-66.15905
972.843	5.01218
973.219	13.02977
973.594	-40.10259
973.97	-46.10376
974.345	-11.02567
974.721	-42.0976
975.096	14.03302
975.471	-11.02516
975.846	-32.07425
976.221	-28.06954
976.596	22.05179
976.971	36.08626
977.346	-83.18803
977.72	-1.00246
978.095	-27.06809
978.469	-31.07163
978.844	20.04825
979.218	28.06574
979.593	-47.10933
979.967	-55.12844
980.341	26.05781
980.715	3.00735
981.089	-30.07317
981.463	4.00886
981.837	-4.00961
982.21	-71.15711
982.584	3.00705
982.957	-25.06128
983.331	-18.04059
983.704	18.04331
984.078	2.00476
984.451	-50.11949
984.824	-18.04293
985.197	-69.16164
985.57	-44.10603
985.943	-52.12313
986.316	-45.10604
986.688	24.0556
987.061	-6.01366
987.434	18.04613
987.806	-44.10249
988.179	-52.11926
988.551	27.06579
988.923	-70.16812
989.295	16.0384
989.667	-13.03065
990.039	24.0583
990.411	-87.1934
990.783	-6.01314
991.155	-19.0446
991.527	-15.0351
991.898	29.07009
992.27	-25.0609
992.641	12.02891
993.012	-39.0868
993.384	-34.07848
993.755	29.07188
994.126	52.12098
994.497	-35.08382
994.868	-38.08375
995.239	19.04423
995.61	-44.10844
995.98	-16.03767
996.351	17.04101
996.722	14.03168
997.092	-37.08586
997.462	-6.01375
997.833	-4.00907
998.203	-36.08363
998.573	3.00727
998.943	4.00911
999.313	0
999.683	9.02094
1000.053	-54.11812
1000.423	-27.06328
1000.792	-40.10021
1001.162	-33.07855
1001.531	0
1001.901	-29.07003
1002.27	-62.13218
1002.639	-7.01724
1003.009	-12.02757
1003.378	-13.03242
1003.747	-13.02952
1004.116	-76.17808
1004.485	-23.05333
1004.853	-24.05834
1005.222	-81.19708
1005.591	-24.05509
1005.959	-34.07478
1006.328	-62.13688
1006.696	-29.0677
1007.064	-52.12669
1007.433	-33.07969
1007.801	-48.11291
1008.169	-43.1049
1008.537	-19.04058
1008.905	-15.03412
1009.273	-21.04998
1009.64	7.01636
1010.008	4.00918
1010.375	-36.08343
1010.743	-31.06708
1011.11	46.10647
1011.478	30.07208
1011.845	15.03372
1012.212	13.02866
1012.579	-24.05742
1012.946	-19.04327
1013.313	-8.01823
1013.68	-9.01938
1014.047	-16.03695
1014.414	-30.06869
1014.78	-12.02909
1015.147	-15.03469
1015.513	0
1015.88	-4.00985
1016.246	-38.09015
1016.612	39.08446
1016.978	-15.03594
1017.344	-30.07238
1017.71	0
1018.076	-7.01576
1018.442	20.04994
1018.808	37.08996
1019.174	20.04811
1019.539	-60.12852
1019.905	-21.04833
1020.27	-43.10333
1020.636	-7.01599
1021.001	44.10128
1021.366	-23.05392
1021.731	30.07562
1022.096	-28.06959
1022.461	1.00229
1022.826	6.01388
1023.191	6.0153
1023.556	-31.07009
1023.92	-10.02358
1024.285	-20.04681
1024.649	-33.07815
1025.014	-43.10258
1025.378	2.00491
1025.742	-43.10321
1026.107	-47.10292
1026.471	0
1026.835	-13.03128
1027.199	-40.09405
1027.562	-27.06012
1027.926	-23.05424
1028.29	-30.0741
1028.654	-32.07103
1029.017	32.07589
1029.381	-27.0629
1029.744	1.00248
1030.107	27.06129
1030.471	12.02786
1030.834	-47.10209
1031.197	22.05088
1031.56	-27.06142
1031.923	-3.00755
1032.286	5.01131
1032.648	-31.07088
1033.011	-3.00675
1033.374	-14.03143
1033.736	-27.06945
1034.099	-19.045
1034.461	26.06396
1034.823	2.00485
1035.185	-41.09972
1035.548	16.03774
1035.91	-67.15665
1036.272	-11.02432
1036.634	-11.02605
1036.995	-47.1066
1037.357	-7.01659
1037.719	-27.06394
1038.08	-11.02551
1038.442	-5.01144
1038.803	0
1039.165	-17.04147
1039.526	-41.09661
1039.887	-1.00231
1040.248	-32.07822
1040.609	-25.05932
1040.97	-40.0949
1041.331	-3.00742
1041.692	-27.06238
1042.053	-12.02617
1042.413	-2.00446
1042.774	22.05163
1043.134	-28.06373
1043.495	7.01701
1043.855	-2.00475
1044.215	-45.1083
1044.576	-69.16284
1044.936	-27.05952
1045.296	-43.10466
1045.656	-39.09211
1046.016	-55.12874
1046.375	-37.08736
1046.735	6.01335
1047.095	-34.07732
1047.454	-9.01806
1047.814	-10.02329
1048.173	-4.00908
1048.533	-39.08673
1048.892	-54.12722
1049.251	20.04802
1049.61	-29.06956
1049.969	-44.10055
1050.328	-11.02294
1050.687	-54.12737
1051.046	-31.07305
1051.405	-28.06704
1051.763	24.05358
1052.122	-53.129
1052.48	-22.05258
1052.839	22.05064
1053.197	1.00227
1053.555	-36.07761
1053.914	5.01176
1054.272	-68.15708
1054.63	-27.06436
1054.988	-5.0116
1055.345	-61.1256
1055.703	-11.02568
1056.061	-1.00253
1056.419	9.02298
1056.776	-65.15132
1057.134	-105.23458
1057.491	12.02905
1057.848	-29.06977
1058.206	-79.17882
1058.563	-71.15212
1058.92	12.02642
1059.277	18.04279
1059.634	-25.05608
1059.991	24.0554
1060.348	-12.02629
1060.704	0
1061.061	0
1061.418	-24.05661
1061.774	-27.06483
1062.131	10.02609
1062.487	-25.05624
1062.843	-10.02415
1063.199	-72.17581
1063.555	-4.00903
1063.911	-35.08557
1064.267	-6.01177
1064.623	21.04973
1064.979	-77.1716
1065.335	-25.05735
1065.691	-59.13578
1066.046	5.0105
1066.402	-38.08309
1066.757	11.02686
1067.112	-26.06166
1067.468	9.02079
1067.823	-52.11917
1068.178	-24.05588
1068.533	-18.04228
1068.888	-43.09935
1069.243	-1.00239
1069.598	-43.10101
1069.952	-7.01557
1070.307	-42.10202
1070.662	-17.03965
1071.016	-10.02196
1071.371	-14.03093
1071.725	-9.02059
1072.079	29.06714
1072.434	4.00943
1072.788	-50.11426
1073.142	13.03088
1073.496	7.01595
1073.85	-7.01561
1074.203	-25.05896
1074.557	18.04703
1074.911	42.09505
1075.265	-15.03365
1075.618	0
1075.971	-9.02065
1076.325	14.03471
1076.678	-63.14069
1077.031	-89.19283
1077.385	-41.08701
1077.738	-35.07628
1078.091	-28.06231
1078.444	-45.10012
1078.796	-6.01436
1079.149	-30.07279
1079.502	-29.06703
1079.855	25.05599
1080.207	-36.08597
1080.56	-29.07366
1080.912	-44.1041
1081.264	22.05119
1081.617	-39.09297
1081.969	-38.0942
1082.321	-2.0047
1082.673	-4.00896
1083.025	-67.15425
1083.377	-26.05915
1083.728	-34.07644
1084.08	-43.10396
1084.432	-50.11702
1084.783	-66.14766
1085.135	-5.01221
1085.486	-28.06249
1085.838	31.0737
1086.189	-13.03087
1086.54	-34.07845
1086.891	42.10431
1087.242	51.12116
1087.593	-56.13085
1087.944	28.06125
1088.295	-1.00218
1088.646	39.09258
1088.996	-15.03526
1089.347	-11.02596
1089.698	-50.11665
1090.048	-18.04521
1090.398	-86.19391
1090.749	-48.11071
1091.099	-39.09705
1091.449	21.05067
1091.799	-20.04864
1092.149	-27.06505
1092.499	-7.01653
1092.849	-20.04956
1093.199	4.0096
1093.548	10.02345
1093.898	-59.14382
1094.248	-42.10431
1094.597	-28.0707
1094.947	14.03634
1095.296	15.03596
1095.645	-58.14724
1095.994	-14.03255
1096.343	14.03418
1096.692	20.05183
1097.041	-27.07279
1097.39	-2.00483
1097.739	-30.07605
1098.088	1.00259
1098.437	-6.01559
1098.785	-46.12061
1099.134	-47.12018
1099.482	5.01346
1099.83	-14.03587
1100.179	25.06442
1100.527	-99.25704
1100.875	3.00778
1101.223	-8.02086
1101.571	-51.13811
1101.919	13.03377
1102.267	-39.10901
1102.615	4.01285
1102.962	-2.00642
1103.31	-6.01929
1103.658	-15.04818
