Data from N1 R1 sample 5_Subt2__4__11-27-27-876.txt Node

Date: Wed Sep 17 11:27:27 PDT 2025
User: uwsun
Spectrometer: HDX01956
Trigger mode: 0
Integration Time (sec): 5.000000E-1
Scans to average: 1
Nonlinearity correction enabled: true
Boxcar width: 0
Storing dark spectrum: false
XAxis mode: Wavelengths
Number of Pixels in Spectrum: 2068
>>>>>Begin Spectral Data<<<<<
194.03	-11.03199
194.578	-2.0065
195.127	-5.01604
195.676	10.03214
196.225	-38.10212
196.773	-18.05045
197.321	-49.13823
197.87	-61.16148
198.418	3.00791
198.966	-30.08128
199.513	32.08296
200.061	-27.07066
200.609	-19.05144
201.156	-46.10482
201.704	-33.08565
202.251	0
202.798	-6.01594
203.345	13.03298
203.892	-38.09916
204.438	-19.04649
204.985	-40.09847
205.532	-39.10561
206.078	-7.01757
206.624	42.10745
207.17	36.08636
207.716	25.06276
208.262	-16.033
208.808	8.02062
209.354	28.07083
209.899	-48.12491
210.445	-19.04898
210.99	39.09719
211.535	19.04595
212.08	4.00955
212.625	-20.05142
213.17	35.09094
213.715	8.01883
214.259	-16.03859
214.804	-26.0657
215.348	-6.01431
215.892	26.0646
216.436	-33.07797
216.98	-13.02947
217.524	18.04412
218.068	8.02068
218.612	8.02083
219.155	8.01941
219.698	-17.04166
220.242	-25.06343
220.785	22.05288
221.328	-17.04312
221.871	53.13695
222.414	29.07295
222.956	-25.06149
223.499	-50.1155
224.041	4.00935
224.583	-9.01952
225.126	-37.08389
225.668	1.00248
226.21	39.10018
226.751	1.00229
227.293	-52.12165
227.835	-11.02761
228.376	-15.035
228.918	-17.0433
229.459	-37.09488
230	18.04408
230.541	-31.07339
231.082	7.0174
231.622	-29.06748
232.163	-25.06185
232.704	51.12922
233.244	-9.02283
233.784	-17.04217
234.324	49.11204
234.864	-29.06743
235.404	-60.14591
235.944	-25.06042
236.484	32.08103
237.023	-5.01205
237.563	-12.02862
238.102	-28.06804
238.641	-15.03852
239.18	-28.0676
239.719	-6.01533
240.258	11.02524
240.797	-22.05394
241.335	-13.03233
241.874	-2.00402
242.412	26.06429
242.95	-24.05958
243.488	-70.16305
244.026	9.02141
244.564	-7.01484
245.102	13.03013
245.64	-11.02686
246.177	-11.02507
246.715	1.00245
247.252	-60.14092
247.789	33.06256
248.326	-36.08931
248.863	-8.0181
249.4	-18.04193
249.936	25.05361
250.473	-6.01454
251.009	-26.06123
251.546	3.00687
252.082	-15.0333
252.618	-12.02759
253.154	-12.0296
253.69	-19.04381
254.226	1.00245
254.761	-33.0764
255.297	-27.06079
255.832	0
256.367	13.03117
256.903	-6.01371
257.438	-26.06263
257.972	15.03413
258.507	-33.07797
259.042	3.00669
259.576	27.06107
260.111	12.02813
260.645	-2.00444
261.179	-37.08939
261.713	2.00459
262.247	-29.06815
262.781	13.02811
263.315	-50.12495
263.849	8.02042
264.382	-43.10196
264.915	19.04588
265.449	-33.08281
265.982	8.01859
266.515	-2.00502
267.048	-47.10344
267.58	-6.01329
268.113	-4.00889
268.646	8.01996
269.178	-15.03446
269.71	36.08121
270.243	3.00712
270.775	12.03138
271.307	-43.10529
271.838	-11.02661
272.37	8.01999
272.902	-23.05361
273.433	14.0318
273.965	20.04947
274.496	-37.09421
275.027	-29.07415
275.558	-4.01
276.089	-10.02558
276.62	-53.13752
277.15	-15.03776
277.681	-17.03768
278.211	-2.00498
278.741	25.05675
279.272	20.04677
279.802	-45.11519
280.332	-35.08522
280.861	-9.02204
281.391	-8.01868
281.921	-19.04659
282.45	-22.05591
282.98	6.01593
283.509	50.11569
284.038	15.03513
284.567	14.03334
285.096	5.01241
285.625	-21.04866
286.153	41.09968
286.682	35.08199
287.21	-21.05134
287.739	-19.04614
288.267	39.09656
288.795	-21.05611
289.323	-27.06537
289.851	35.08391
290.378	-49.11322
290.906	10.02502
291.433	21.05332
291.961	21.0491
292.488	-4.01015
293.015	22.05308
293.542	72.18697
294.069	32.08075
294.596	-17.04261
295.122	28.06852
295.649	-40.09071
296.175	4.00985
296.702	65.16099
297.228	5.01231
297.754	9.02078
298.28	-10.02371
298.806	2.00494
299.332	-15.03467
299.857	13.03031
300.383	37.09451
300.908	17.04272
301.433	34.08493
301.958	-48.1141
302.483	-15.03814
303.008	45.11377
303.533	2.00527
304.058	-15.03598
304.582	-7.01701
305.107	-39.10434
305.631	3.00699
306.155	2.00479
306.679	37.08881
307.203	15.0357
307.727	-8.0195
308.251	-6.01519
308.775	51.12627
309.298	31.0763
309.822	-37.09574
310.345	30.07328
310.868	35.08615
311.391	18.04531
311.914	-10.02572
312.437	3.00706
312.96	24.05788
313.482	-11.02661
314.005	-17.04358
314.527	-55.14744
315.049	29.07483
315.571	-8.01861
316.093	27.06826
316.615	-48.1193
317.137	-1.00225
317.659	21.05203
318.18	-26.06393
318.702	25.06005
319.223	-13.02754
319.744	44.10136
320.265	7.01751
320.786	31.0791
321.307	17.04296
321.828	-12.02801
322.348	-31.07557
322.869	75.18146
323.389	313.59458
323.909	-43.10215
324.43	18.04408
324.95	-18.04267
325.47	36.09116
325.989	15.03657
326.509	49.11245
327.029	28.06574
327.548	-17.03993
328.067	0
328.587	94.23829
329.106	-43.10093
329.625	38.10064
330.144	40.09534
330.662	31.07472
331.181	50.12063
331.7	24.05729
332.218	11.02471
332.736	62.14811
333.255	4.00972
333.773	22.05336
334.291	0
334.808	22.05114
335.326	-11.02564
335.844	19.04604
336.361	72.1882
336.879	54.13008
337.396	47.11709
337.913	31.0737
338.43	6.01401
338.947	3.0074
339.464	48.10664
339.981	9.022
340.497	26.06554
341.014	12.0301
341.53	7.01635
342.046	41.1048
342.562	3.00769
343.078	4.00973
343.594	22.05382
344.11	91.2215
344.626	52.13392
345.141	64.14996
345.657	26.06075
346.172	32.0793
346.687	-8.01905
347.202	70.16376
347.717	6.01478
348.232	75.18995
348.747	67.15843
349.261	33.07497
349.776	96.23205
350.29	62.15834
350.805	55.13876
351.319	67.15929
351.833	25.05946
352.347	60.14509
352.861	50.12045
353.374	41.09597
353.888	44.11027
354.401	71.16542
354.915	6.01409
355.428	50.12738
355.941	57.13609
356.454	43.0986
356.967	12.02892
357.48	5.01175
357.993	56.14065
358.505	31.07737
359.018	82.20439
359.53	57.14231
360.042	66.1518
360.554	90.22392
361.066	19.04756
361.578	89.20129
362.09	105.25347
362.602	83.18956
363.113	98.23474
363.625	102.236
364.136	16.03649
364.647	74.17928
365.158	46.11006
365.669	20.04922
366.18	28.06789
366.691	20.04547
367.201	64.15674
367.712	100.2333
368.222	130.30317
368.733	63.14109
369.243	48.11071
369.753	63.14886
370.263	73.17987
370.773	39.09726
371.282	97.23548
371.792	44.10495
372.301	70.17239
372.811	70.1862
373.32	82.18232
373.829	46.11127
374.338	51.1168
374.847	57.13505
375.356	41.09927
375.865	82.18073
376.373	137.31515
376.882	110.28102
377.39	106.25902
377.898	68.17017
378.407	114.26303
378.915	150.33199
379.423	83.1968
379.93	174.40529
380.438	81.19789
380.946	122.2872
381.453	172.41276
381.96	128.30834
382.468	111.2644
382.975	141.34691
383.482	119.27035
383.989	172.43987
384.495	186.43342
385.002	179.37804
385.509	240.56473
386.015	268.54127
386.521	224.50485
387.028	252.56331
387.534	287.60053
388.04	348.80668
388.546	256.55569
389.051	290.62278
389.557	280.63157
390.063	291.63879
390.568	369.84637
391.073	301.64794
391.578	380.88223
392.084	441.94232
392.589	377.77661
393.093	476.05794
393.598	447.96175
394.103	546.18866
394.607	581.27112
395.112	549.23534
395.616	710.5272
396.12	710.43616
396.624	759.57217
397.128	804.69104
397.632	921.8461
398.136	1010.93962
398.639	1151.19097
399.143	1301.54158
399.646	1424.56076
400.15	1585.67428
400.653	1809.80748
401.156	2002.90009
401.659	2465.47168
402.162	3128.30068
402.664	4662.5025
403.167	9355.21558
403.67	29009.45452
404.172	59846.76675
404.674	63858.43483
405.176	63738.15102
405.678	63977.72923
406.18	64011.81569
406.682	63863.44694
407.184	37727.66122
407.686	15581.58277
408.187	9150.87037
408.688	6265.03496
409.19	4865.54659
409.691	4058.39159
410.192	3410.50108
410.693	3090.95979
411.194	2959.20926
411.694	2852.45992
412.195	2552.66106
412.696	2380.26093
413.196	2329.74332
413.696	2281.29638
414.196	2384.96512
414.696	2248.43359
415.196	1957.99181
415.696	1494.47446
416.196	1248.3104
416.695	1089.10565
417.195	983.99042
417.694	1029.76424
418.194	874.57752
418.693	823.63276
419.192	809.66167
419.691	769.56949
420.19	777.63887
420.688	774.66711
421.187	680.2317
421.685	576.22114
422.184	580.24568
422.682	457.92869
423.18	420.90775
423.678	355.7727
424.176	330.72058
424.674	341.72393
425.172	268.6092
425.669	273.64574
426.167	273.61213
426.664	226.5006
427.161	228.51135
427.659	173.41334
428.156	246.51052
428.652	170.42218
429.149	176.42107
429.646	187.41137
430.143	151.35871
430.639	178.41608
431.135	114.28405
431.632	93.21368
432.128	110.26398
432.624	192.48617
433.12	100.22898
433.616	107.23558
434.111	121.28656
434.607	77.18524
435.103	55.11707
435.598	125.2604
436.093	89.20792
436.588	99.22345
437.083	87.19597
437.578	138.31751
438.073	45.11353
438.568	95.23365
439.062	89.19159
439.557	92.21523
440.051	29.06615
440.546	43.0988
441.04	47.11376
441.534	56.14151
442.028	87.20954
442.522	30.07276
443.015	-24.05285
443.509	50.12227
444.002	13.03219
444.496	-5.01108
444.989	10.02456
445.482	15.03752
445.975	47.10954
446.468	36.07898
446.961	53.1162
447.454	-6.01372
447.947	38.0914
448.439	50.12313
448.931	29.06732
449.424	60.15275
449.916	58.14183
450.408	18.0417
450.9	5.01229
451.392	28.07148
451.884	36.08343
452.375	34.08459
452.867	19.04324
453.358	1.00233
453.849	2.00436
454.341	27.06161
454.832	-28.06195
455.323	81.20098
455.814	-28.06535
456.304	8.01874
456.795	38.0874
457.285	-13.02916
457.776	29.06666
458.266	-11.02648
458.756	-37.08908
459.247	6.0145
459.737	33.08026
460.226	84.19103
460.716	-5.0121
461.206	-14.03396
461.695	4.00997
462.185	25.05976
462.674	27.06221
463.163	1.00228
463.653	29.0624
464.142	17.04149
464.63	-36.08866
465.119	26.06087
465.608	65.15215
466.096	-15.03314
466.585	-25.05808
467.073	-41.09849
467.561	20.04825
468.05	11.02556
468.538	-1.00246
469.026	-19.04566
469.513	-40.08642
470.001	-6.01396
470.489	-12.02887
470.976	40.09376
471.463	-5.01255
471.951	28.06972
472.438	21.0496
472.925	14.0332
473.412	-36.08862
473.899	26.05997
474.385	-5.01235
474.872	-10.0236
475.359	3.00743
475.845	-10.02107
476.331	-81.17782
476.817	-37.09137
477.303	21.0491
477.789	-48.11633
478.275	-35.08802
478.761	-29.06982
479.247	21.04717
479.732	32.07994
480.218	37.09686
480.703	7.01734
481.188	-18.03962
481.673	9.02087
482.158	1.00219
482.643	28.07161
483.128	-18.04256
483.612	40.09548
484.097	17.04118
484.581	14.03262
485.066	37.09073
485.55	17.03793
486.034	30.06546
486.518	71.16925
487.002	-50.12359
487.486	-13.03187
487.969	19.04635
488.453	-18.04522
488.936	14.03177
489.42	14.03124
489.903	-34.08567
490.386	-75.15979
490.869	58.12714
491.352	27.06513
491.835	-1.00207
492.318	13.02945
492.8	13.02723
493.283	43.1096
493.765	-14.03467
494.247	45.1048
494.73	24.05347
495.212	-7.01675
495.694	67.15739
496.175	36.08669
496.657	43.10188
497.139	50.08626
497.62	83.19824
498.102	102.2511
498.583	23.05663
499.064	77.17089
499.545	87.19685
500.026	100.22419
500.507	85.19428
500.988	182.44322
501.469	96.23667
501.949	165.39799
502.43	197.4613
502.91	223.45669
503.39	197.4741
503.87	274.61955
504.35	218.49274
504.83	270.56358
505.31	304.69633
505.79	322.72006
506.269	332.7185
506.749	418.88409
507.228	483.0386
507.707	576.14505
508.187	595.26998
508.666	605.3415
509.145	664.36261
509.623	714.45085
510.102	810.67231
510.581	905.82401
511.059	999.0727
511.538	1082.26848
512.016	1224.26807
512.494	1289.35767
512.972	1393.47242
513.45	1502.50274
513.928	1662.81042
514.406	1809.97898
514.884	1983.35657
515.361	2159.10645
515.839	2325.99476
516.316	2404.29905
516.793	2583.57693
517.27	2683.31371
517.747	2815.74655
518.224	2972.0797
518.701	3157.81481
519.178	3254.59653
519.654	3321.20707
520.131	3343.51215
520.607	3402.40113
521.083	3431.89574
521.56	3330.17425
522.036	3350.68068
522.512	3382.48464
522.987	3250.3376
523.463	3218.23224
523.939	3204.54613
524.414	3074.03239
524.89	2962.29577
525.365	2772.97335
525.84	2690.31719
526.315	2549.32979
526.79	2411.91759
527.265	2352.02147
527.74	2145.16853
528.215	2059.93291
528.689	1956.61495
529.164	1909.50506
529.638	1812.12562
530.112	1711.72551
530.587	1651.34231
531.061	1515.64737
531.534	1476.58892
532.008	1448.59092
532.482	1315.25914
532.956	1255.50215
533.429	1173.26308
533.903	1067.84131
534.376	1074.87061
534.849	959.80314
535.322	963.86652
535.795	918.84812
536.268	878.79017
536.741	824.66097
537.213	789.54484
537.686	771.62975
538.158	758.47811
538.631	648.39012
539.103	697.36767
539.575	587.06481
540.047	594.14687
540.519	561.20766
540.991	545.20379
541.463	546.18765
541.934	466.96533
542.406	479.05603
542.877	441.91783
543.348	453.00944
543.82	448.0063
544.291	453.9755
544.762	395.87944
545.233	375.89585
545.703	339.71153
546.174	348.76116
546.645	348.79613
547.115	332.76015
547.585	299.65524
548.056	325.76038
548.526	277.6308
548.996	240.55416
549.466	266.62151
549.935	239.55218
550.405	241.51076
550.875	242.55522
551.344	219.50658
551.814	262.57719
552.283	226.47761
552.752	254.5741
553.221	243.51814
553.69	255.55553
554.159	211.51144
554.628	223.49077
555.096	236.582
555.565	150.32658
556.033	246.56711
556.502	177.4182
556.97	206.44621
557.438	149.3444
557.906	158.36643
558.374	192.43486
558.842	164.38576
559.31	171.37538
559.777	211.502
560.245	128.29027
560.712	193.43116
561.18	207.44579
561.647	181.39248
562.114	224.49783
562.581	183.44041
563.048	234.51854
563.514	263.63626
563.981	209.46556
564.448	239.522
564.914	239.53634
565.381	257.56559
565.847	195.44282
566.313	291.64524
566.779	286.61552
567.245	249.5558
567.711	265.61006
568.176	307.65574
568.642	258.6264
569.108	304.71363
569.573	290.64128
570.038	321.63506
570.504	354.75399
570.969	291.69018
571.434	394.81692
571.899	342.7673
572.363	351.75978
572.828	364.78774
573.293	398.85211
573.757	410.88766
574.222	362.76332
574.686	427.91241
575.15	442.98793
575.614	484.04901
576.078	392.86173
576.542	392.83564
577.006	434.90869
577.469	424.97229
577.933	437.92286
578.396	367.81948
578.86	382.84398
579.323	403.90913
579.786	399.80676
580.249	437.95639
580.712	410.93152
581.175	348.81211
581.637	379.81091
582.1	384.78231
582.563	327.65724
583.025	332.76716
583.487	389.74617
583.95	276.56638
584.412	342.6774
584.874	363.83561
585.336	291.66053
585.797	291.60458
586.259	279.62584
586.721	251.5679
587.182	294.64741
587.643	291.63207
588.105	262.59556
588.566	296.58794
589.027	300.70259
589.488	270.59532
589.949	229.53896
590.41	242.46228
590.87	200.44634
591.331	294.61368
591.791	187.42328
592.252	250.56207
592.712	175.41059
593.172	187.41586
593.632	244.524
594.092	209.453
594.552	225.47247
595.011	143.3229
595.471	192.42512
595.931	194.42758
596.39	149.35219
596.849	171.39037
597.308	144.30245
597.768	179.45205
598.227	135.32009
598.685	151.33873
599.144	124.28929
599.603	79.18434
600.062	88.18524
600.52	113.25339
600.978	66.15598
601.437	138.30963
601.895	85.18204
602.353	93.20356
602.811	123.27479
603.269	86.20371
603.727	102.2431
604.184	84.19103
604.642	78.19109
605.099	125.28881
605.557	104.25081
606.014	113.24158
606.471	99.24654
606.928	91.2017
607.385	110.27298
607.842	48.11057
608.299	102.23675
608.755	48.11655
609.212	81.18044
609.668	53.12007
610.125	89.2133
610.581	60.14075
611.037	41.09239
611.493	37.08678
611.949	76.1846
612.405	69.14093
612.861	55.12667
613.316	89.212
613.772	37.08522
614.227	87.20803
614.683	18.03859
615.138	15.03548
615.593	39.0909
616.048	26.05992
616.503	56.13587
616.958	59.14752
617.412	47.11183
617.867	23.05191
618.321	39.08103
618.776	48.10606
619.23	5.01183
619.684	32.0718
620.138	47.10773
620.592	54.13087
621.046	79.18579
621.5	-2.00486
621.954	-6.01344
622.407	11.02455
622.861	8.01956
623.314	20.04558
623.768	40.09468
624.221	31.06147
624.674	1.00233
625.127	37.08624
625.58	30.06764
626.033	37.08116
626.485	16.03849
626.938	67.15892
627.39	68.1584
627.843	-11.02566
628.295	29.06711
628.747	77.1825
629.199	-13.02997
629.651	9.02079
630.103	51.1169
630.555	-13.02778
631.006	12.02807
631.458	-18.04285
631.909	-31.07051
632.361	-19.04437
632.812	36.08346
633.263	43.09344
633.714	14.02986
634.165	36.08633
634.616	-9.02147
635.067	16.03544
635.518	23.05468
635.968	28.05528
636.419	47.10266
636.869	6.01429
637.319	36.08363
637.769	12.02716
638.219	52.12232
638.669	-7.01678
639.119	-63.15352
639.569	-8.01934
640.019	44.10156
640.468	61.13622
640.918	41.0971
641.367	14.03152
641.816	19.04243
642.265	56.13024
642.714	26.05977
643.163	62.14271
643.612	13.032
644.061	25.05373
644.51	41.09401
644.958	20.0444
645.406	9.02162
645.855	29.07046
646.303	16.03714
646.751	42.09718
647.199	38.08617
647.647	23.05359
648.095	-1.0023
648.543	-33.06816
648.99	65.15531
649.438	15.03484
649.885	68.16845
650.333	68.13147
650.78	2.00486
651.227	40.09778
651.674	61.13864
652.121	49.11989
652.568	29.07111
653.015	-23.05744
653.461	-1.00239
653.908	-17.03945
654.354	57.1351
654.801	39.0914
655.247	24.05214
655.693	26.06759
656.139	-6.01442
656.585	3.0072
657.031	-8.01896
657.477	34.07443
657.922	-39.08997
658.368	63.1538
658.813	-10.02294
659.259	49.11842
659.704	69.16253
660.149	2.00464
660.594	42.09949
661.039	3.00688
661.484	17.04037
661.929	33.0771
662.373	-13.03284
662.818	12.02975
663.262	63.15139
663.707	17.0433
664.151	50.12136
664.595	19.04604
665.039	21.05214
665.483	-5.01278
665.927	50.11683
666.371	30.07062
666.814	13.03097
667.258	40.09621
667.701	30.06404
668.145	55.13607
668.588	64.15744
669.031	-23.05464
669.474	27.06476
669.917	16.03518
670.36	62.15364
670.803	54.12979
671.245	-29.06017
671.688	17.04141
672.13	3.00683
672.573	37.09311
673.015	43.10333
673.457	23.05015
673.899	49.11793
674.341	-3.00726
674.783	20.04796
675.225	-2.00494
675.666	44.10728
676.108	8.01737
676.549	20.04661
676.991	-28.06218
677.432	3.006
677.873	-7.01608
678.314	-1.00239
678.755	36.08849
679.196	-10.02301
679.637	22.0526
680.078	39.09076
680.518	6.01381
680.959	12.02859
681.399	5.01239
681.839	12.02914
682.28	18.0447
682.72	-3.00689
683.16	62.1533
683.6	18.04095
684.039	-6.01247
684.479	40.09829
684.919	59.13773
685.358	-35.08779
685.798	-12.03132
686.237	2.00478
686.676	-33.07537
687.115	72.16771
687.554	29.06918
687.993	69.15096
688.432	31.07049
688.871	72.16321
689.309	32.07644
689.748	-9.01883
690.186	-56.1326
690.625	-16.03778
691.063	-26.06242
691.501	44.10804
691.939	18.04522
692.377	-32.07811
692.815	72.17397
693.253	25.05925
693.69	19.04152
694.128	16.03876
694.565	-21.04998
695.003	43.10906
695.44	42.0988
695.877	6.01412
696.314	-16.03386
696.751	38.08551
697.188	36.08296
697.625	4.00895
698.061	-19.04566
698.498	20.04706
698.934	8.01908
699.371	21.04923
699.807	15.03529
700.243	20.04805
700.679	7.01558
701.115	26.0603
701.551	39.08982
701.987	-42.09249
702.422	2.00477
702.858	43.10168
703.294	68.15383
703.729	10.02424
704.164	-1.00238
704.599	30.06659
705.035	13.02908
705.47	2.00485
705.904	3.00693
706.339	51.11572
706.774	50.11578
707.209	35.08084
707.643	13.03097
708.078	31.07478
708.512	-6.01503
708.946	-23.05458
709.38	52.12208
709.814	17.03826
710.248	20.04864
710.682	37.0881
711.116	18.04362
711.549	-29.07413
711.983	0
712.416	25.05893
712.85	-1.00247
713.283	-3.00707
713.716	31.07608
714.149	-40.09303
714.582	55.12191
715.015	-31.07613
715.448	7.01755
715.881	6.01282
716.313	34.0786
716.746	4.00943
717.178	-14.03364
717.61	31.0781
718.043	-6.01476
718.475	38.09119
718.907	15.03715
719.339	-5.01131
719.77	35.08299
720.202	-39.09783
720.634	13.03171
721.065	28.0653
721.497	16.03886
721.928	11.02668
722.359	-14.03404
722.79	11.02616
723.221	-20.04953
723.652	7.01765
724.083	-36.08114
724.514	35.07945
724.945	12.02788
725.375	-6.01398
725.806	-17.04175
726.236	46.11582
726.666	24.05597
727.096	-3.00729
727.526	35.08915
727.956	29.06559
728.386	-11.02683
728.816	1.00255
729.246	81.1959
729.675	-38.09268
730.105	7.01697
730.534	13.03
730.964	9.02223
731.393	28.06768
731.822	37.09328
732.251	18.04521
732.68	-27.06231
733.109	-4.00981
733.537	28.06773
733.966	48.11808
734.395	-9.0207
734.823	12.02624
735.251	-41.09849
735.68	-16.03921
736.108	-41.10233
736.536	12.02779
736.964	-13.02995
737.392	15.03706
737.82	6.01417
738.247	6.01415
738.675	-28.0655
739.102	-28.06959
739.53	7.01786
739.957	25.06397
740.384	-67.16174
740.811	-19.04695
741.238	25.0606
741.665	52.12022
742.092	-60.13811
742.519	6.01477
742.945	15.03611
743.372	14.03444
743.798	23.05809
744.225	9.02104
744.651	-7.01736
745.077	33.08101
745.503	-15.03594
745.929	29.06934
746.355	-1.00241
746.781	-30.07333
747.207	1.00236
747.632	43.10521
748.058	49.12149
748.483	7.01592
748.908	4.00987
749.334	18.04387
749.759	7.01653
750.184	15.03579
750.609	6.01453
751.033	-19.04399
751.458	-14.03095
751.883	-33.0808
752.307	-22.05151
752.732	25.06318
753.156	-22.05382
753.58	-37.08685
754.005	-11.02734
754.429	29.06783
754.853	-18.04459
755.277	18.04223
755.7	21.0514
756.124	0
756.548	-18.04221
756.971	2.00483
757.394	-25.06348
757.818	-3.00767
758.241	22.05517
758.664	-28.07035
759.087	-27.06072
759.51	-42.10316
759.933	22.05254
760.356	5.01278
760.778	8.01942
761.201	7.01668
761.623	-23.05424
762.046	31.071
762.468	32.07516
762.89	-1.00241
763.312	27.0651
763.734	-3.00716
764.156	14.03411
764.578	-22.04967
765	49.11694
765.421	-8.02026
765.843	-21.05453
766.264	-53.12499
766.686	-3.00735
767.107	11.02628
767.528	2.00509
767.949	20.04994
768.37	20.04891
768.791	25.0588
769.212	-20.05009
769.632	-7.01625
770.053	-7.01808
770.473	-38.09095
770.894	-40.09763
771.314	-4.0093
771.734	-7.01611
772.154	-2.00503
772.575	-4.00908
772.994	-14.03131
773.414	1.00234
773.834	-43.10638
774.254	2.00481
774.673	41.09838
775.093	11.02701
775.512	-22.05388
775.931	8.02001
776.351	39.09542
776.77	-8.01944
777.189	-4.00938
777.607	-12.03029
778.026	-5.0123
778.445	-15.03773
778.864	-60.15123
779.282	-28.06597
779.701	-8.0198
780.119	-20.05021
780.537	-22.05412
780.955	-7.01743
781.373	-12.02924
781.791	8.0179
782.209	-6.01329
782.627	-50.131
783.045	-16.03583
783.462	-13.03277
783.88	-1.00256
784.297	-30.07475
784.715	-34.08702
785.132	-50.11935
785.549	-30.07413
785.966	-8.01984
786.383	33.07987
786.8	42.0949
787.217	16.03758
787.633	19.04702
788.05	-27.06184
788.466	-16.03659
788.883	13.03288
789.299	-56.13188
789.715	58.13765
790.131	-2.00489
790.547	-23.05653
790.963	8.01943
791.379	6.01491
791.795	-3.00663
792.21	-9.02051
792.626	-47.10933
793.041	-16.03878
793.457	-45.10924
793.872	-57.13154
794.287	-13.03106
794.702	-15.0357
795.117	-22.05418
795.532	7.01736
795.947	-30.07002
796.362	-65.15042
796.776	-15.03373
797.191	-4.00963
797.605	-68.16083
798.02	-20.0478
798.434	17.03685
798.848	27.06587
799.262	-13.03171
799.676	8.01908
800.09	-13.03138
800.504	-41.09763
800.918	-33.07445
801.331	-54.13674
801.745	-57.1286
802.158	-54.13225
802.572	17.0402
802.985	4.00935
803.398	-36.08422
803.811	-60.14934
804.224	-48.11629
804.637	0
805.05	-55.12475
805.462	0
805.875	-52.13392
806.288	-5.0119
806.7	-12.02925
807.112	-33.07442
807.525	-59.14146
807.937	0
808.349	-7.01704
808.761	7.01689
809.173	-4.00953
809.584	-32.07726
809.996	-68.16462
810.408	11.02811
810.819	-42.09745
811.231	24.06282
811.642	-9.02197
812.053	-18.04318
812.464	-53.12382
812.875	-6.01511
813.286	34.08604
813.697	-26.05793
814.108	-21.05
814.519	20.04367
814.929	26.06429
815.34	-44.10386
815.75	12.03005
816.16	-42.1016
816.571	12.03031
816.981	-17.03873
817.391	-31.07268
817.801	-20.04894
818.211	-56.13116
818.62	-19.04507
819.03	-38.09123
819.44	-37.09334
819.849	-40.098
820.259	-55.13727
820.668	-64.15627
821.077	1.00245
821.486	-18.0418
821.895	-7.01662
822.304	-16.04149
822.713	-35.08077
823.122	-2.00486
823.531	-34.07776
823.939	8.01907
824.348	3.00705
824.756	-37.09046
825.164	-11.0269
825.573	-46.1137
825.981	-34.08218
826.389	14.03413
826.797	15.03726
827.205	-10.02257
827.612	-55.13282
828.02	-79.18231
828.428	-19.04732
828.835	-1.00259
829.243	-25.05779
829.65	-27.06638
830.057	-55.13061
830.464	-7.01687
830.871	3.00702
831.278	-41.09733
831.685	21.04503
832.092	-30.07115
832.499	19.04039
832.905	-23.05659
833.312	-47.10292
833.718	38.09234
834.124	-20.04471
834.531	-33.08068
834.937	17.0426
835.343	-11.02563
835.749	4.00892
836.155	-20.05133
836.561	-35.08452
836.966	17.04014
837.372	3.0074
837.777	-29.07106
838.183	-32.06899
838.588	14.03402
838.993	7.01657
839.399	-12.02878
839.804	-22.05256
840.209	1.00251
840.613	9.01932
841.018	-29.07151
841.423	-12.03012
841.828	-13.0323
842.232	-7.01658
842.637	2.00464
843.041	3.00754
843.445	-65.15939
843.849	-23.05594
844.253	64.14531
844.657	19.0468
845.061	43.09563
845.465	-41.09714
845.869	-19.04301
846.272	-35.08398
846.676	-59.13762
847.079	3.0075
847.483	-14.03397
847.886	-36.08485
848.289	-17.04508
848.692	-33.08128
849.095	-20.04662
849.498	-13.03164
849.901	11.02417
850.304	44.10108
850.707	-39.09716
851.109	11.02687
851.512	-14.03366
851.914	6.01484
852.316	0
852.718	25.06442
853.121	-63.15208
853.523	-70.15977
853.925	7.018
854.326	-16.03936
854.728	-10.02521
855.13	-17.04336
855.531	-64.1509
855.933	-37.08593
856.334	10.02445
856.736	-11.02419
857.137	5.01138
857.538	-15.03712
857.939	63.15202
858.34	-53.12533
858.741	22.05565
859.142	-27.06293
859.542	-13.03381
859.943	4.00965
860.343	-9.02189
860.744	-1.00237
861.144	-6.01438
861.544	5.01185
861.945	-9.02234
862.345	9.02123
862.745	6.01461
863.145	8.01814
863.544	9.02218
863.944	-15.03446
864.344	-60.14448
864.743	13.03122
865.143	17.04283
865.542	-54.12101
865.941	15.03616
866.34	-51.11807
866.74	-43.11368
867.139	-5.01181
867.537	-60.14868
867.936	-13.03061
868.335	-34.0845
868.734	-35.08786
869.132	-6.01334
869.531	-32.0746
869.929	2.00444
870.327	-9.02098
870.726	-26.06261
871.124	9.02016
871.522	-12.0297
871.92	-45.10879
872.318	-36.08537
872.715	-56.13393
873.113	-48.11392
873.511	-37.08989
873.908	-9.02255
874.306	-18.04408
874.703	-57.13864
875.1	-7.01718
875.497	15.03463
875.894	1.00243
876.291	5.01194
876.688	-20.0505
877.085	-34.07904
877.482	-48.11777
877.878	-18.04284
878.275	-27.06729
878.671	-22.04596
879.068	-6.01406
879.464	0
879.86	-25.0576
880.256	-29.06868
880.652	-9.0223
881.048	-35.08382
881.444	-33.07543
881.84	-27.06697
882.236	-2.00488
882.631	38.09047
883.027	6.01401
883.422	-65.16252
883.817	0
884.213	-35.08802
884.608	43.10404
885.003	-35.08167
885.398	-18.044
885.793	-19.0463
886.188	-41.09961
886.582	-25.06203
886.977	-39.08972
887.371	-27.06621
887.766	-25.06112
888.16	-51.12256
888.554	-13.03104
888.949	25.06067
889.343	-19.04493
889.737	-3.00789
890.131	-37.09087
890.525	-3.00753
890.918	-40.09847
891.312	-34.07848
891.706	0
892.099	-6.01481
892.492	-8.01655
892.886	-17.04039
893.279	-31.07703
893.672	-7.01749
894.065	1.00244
894.458	-49.11954
894.851	-4.00944
895.244	-49.12273
895.637	-16.03764
896.029	19.04524
896.422	-26.06111
896.814	-29.07014
897.206	-26.06125
897.599	32.07624
897.991	-36.08564
898.383	-6.01379
898.775	74.16112
899.167	-24.05538
899.559	-36.0883
899.951	-22.04993
900.342	-22.05404
900.734	-7.01734
901.125	-12.0305
901.517	-23.05517
901.908	24.05458
902.299	-17.04062
902.69	15.03453
903.082	-5.01175
903.473	5.0118
903.863	-57.142
904.254	41.09258
904.645	-31.07424
905.036	45.10711
905.426	-23.0503
905.817	-40.09526
906.207	-64.14784
906.597	-17.03908
906.987	-20.05016
907.378	4.00989
907.768	6.0155
908.158	12.02824
908.547	-7.01789
908.937	-50.12422
909.327	-7.01646
909.717	-41.10013
910.106	-38.08865
910.495	-30.07221
910.885	-3.00741
911.274	-16.03888
911.663	-1.00244
912.052	9.02123
912.441	26.06452
912.83	-47.10448
913.219	18.04552
913.608	24.05703
913.997	16.03927
914.385	-5.01158
914.774	-4.00943
915.162	5.01168
915.55	-15.03497
915.939	-20.04967
916.327	-15.03613
916.715	-5.01261
917.103	-7.01642
917.491	-5.01197
917.878	3.00713
918.266	-11.02768
918.654	34.08469
919.041	-9.02324
919.429	-3.00686
919.816	-31.07667
920.203	12.02846
920.591	-3.00724
920.978	10.0237
921.365	-18.04634
921.752	-79.18217
922.139	24.04999
922.525	-8.01874
922.912	-4.00942
923.299	-35.08516
923.685	-65.16533
924.072	-80.17647
924.458	1.00242
924.844	-8.01926
925.231	-20.04475
925.617	16.03992
926.003	-3.00743
926.389	-29.0714
926.774	-41.10129
927.16	18.04313
927.546	22.05535
927.931	-16.03859
928.317	-1.00221
928.702	-11.0251
929.088	32.07463
929.473	-26.06518
929.858	0
930.243	-25.05912
930.628	-3.00717
931.013	21.05041
931.398	-11.02404
931.783	-46.11748
932.167	22.05256
932.552	-23.05598
932.937	-51.12316
933.321	5.01229
933.705	-48.11712
934.09	-60.14558
934.474	-29.06631
934.858	0
935.242	-33.07418
935.626	12.02998
936.009	6.01571
936.393	25.06248
936.777	14.03501
937.16	24.06106
937.544	-14.03143
937.927	3.00744
938.311	7.01641
938.694	36.09246
939.077	-42.09818
939.46	-44.1031
939.843	-35.06889
940.226	-10.02484
940.609	-15.03384
940.991	-36.08902
941.374	-17.04071
941.757	-25.05983
942.139	29.0628
942.522	-15.03415
942.904	27.06256
943.286	13.03188
943.668	42.10628
944.05	-47.11341
944.432	-27.06466
944.814	-31.07364
945.196	-14.03348
945.578	-11.02586
945.959	-43.09718
946.341	-42.09864
946.722	-11.02486
947.104	-7.01623
947.485	-6.01352
947.866	-24.05954
948.247	12.02966
948.628	-45.10501
949.009	-71.17906
949.39	-7.0168
949.771	-39.08608
950.152	-5.01193
950.532	13.0319
950.913	26.0603
951.293	-16.04269
951.674	-45.10637
952.054	52.1264
952.434	-7.01692
952.814	-25.0571
953.194	-7.01759
953.574	-16.03811
953.954	-16.03645
954.334	31.07531
954.714	-40.09577
955.093	-14.03343
955.473	-20.04933
955.853	0
956.232	-19.05088
956.611	-32.07366
956.99	-3.00736
957.37	-16.03943
957.749	-20.04554
958.128	-10.02468
958.506	-35.08909
958.885	-33.08101
959.264	23.05521
959.643	18.03971
960.021	-2.00485
960.4	-6.01312
960.778	-28.06609
961.156	-28.06817
961.535	-18.04022
961.913	22.04987
962.291	8.02021
962.669	8.01977
963.047	17.04229
963.424	-8.02016
963.802	7.01671
964.18	-23.05571
964.557	-19.04217
964.935	6.01371
965.312	9.02292
965.69	-28.06766
966.067	-7.01632
966.444	-60.14196
966.821	16.04004
967.198	-58.13595
967.575	-5.01183
967.952	-25.05703
968.329	31.07316
968.705	57.11705
969.082	5.01265
969.458	-8.01891
969.835	0
970.211	5.01261
970.587	18.04343
970.963	-39.09695
971.339	-16.04099
971.715	30.07243
972.091	16.03802
972.467	-23.05498
972.843	-2.00488
973.219	-15.03455
973.594	-12.03063
973.97	-39.08785
974.345	-24.05615
974.721	-44.10229
975.096	45.1055
975.471	-9.02058
975.846	-29.06724
976.221	-25.06205
976.596	36.08452
976.971	-16.03872
977.346	-65.14671
977.72	-10.02464
978.095	-24.06049
978.469	26.05939
978.844	-7.01697
979.218	33.0774
979.593	-23.05325
979.967	-40.09314
980.341	9.02008
980.715	-18.0443
981.089	-5.01214
981.463	-17.03782
981.837	-16.03851
982.21	-35.07687
982.584	-45.1067
982.957	-40.09833
983.331	-82.18731
983.704	-8.01934
984.078	-33.07915
984.451	-38.0906
984.824	-46.11031
985.197	-30.06974
985.57	-47.11333
985.943	-51.12074
986.316	-5.01169
986.688	14.0325
987.061	10.0227
987.434	19.04869
987.806	-77.18052
988.179	-37.0846
988.551	-27.06646
988.923	-36.0859
989.295	-2.00482
989.667	11.02581
990.039	11.02678
990.411	-48.10584
990.783	-63.13964
991.155	-24.05639
991.527	-16.03745
991.898	-15.03655
992.27	14.03385
992.641	-27.06552
993.012	-67.14999
993.384	-48.1111
993.755	-11.02746
994.126	18.04216
994.497	-6.01429
994.868	-20.04391
995.239	-36.08472
995.61	-10.02449
995.98	-58.13765
996.351	8.01933
996.722	-18.041
997.092	-23.05323
997.462	-31.0714
997.833	10.02262
998.203	-30.06961
998.573	14.03387
998.943	-12.02742
999.313	-23.05392
999.683	8.01862
1000.053	-76.16702
1000.423	-55.1296
1000.792	-29.07251
1001.162	-59.14113
1001.531	21.05006
1001.901	-18.04338
1002.27	-68.14516
1002.639	-49.12158
1003.009	-43.09939
1003.378	-7.01744
1003.747	-54.12365
1004.116	-37.08603
1004.485	-32.07433
1004.853	-29.07056
1005.222	-67.16259
1005.591	10.0228
1005.959	-20.04386
1006.328	-19.04157
1006.696	-74.17427
1007.064	-53.12915
1007.433	-33.07969
1007.801	-34.07976
1008.169	-75.18405
1008.537	2.00425
1008.905	8.01811
1009.273	-57.13661
1009.64	11.02569
1010.008	-21.04844
1010.375	-47.10916
1010.743	-40.08672
1011.11	20.04653
1011.478	33.07924
1011.845	-14.03166
1012.212	-1.00221
1012.579	-2.00476
1012.946	-42.0961
1013.313	-40.09174
1013.68	-3.00645
1014.047	-64.1492
1014.414	-41.09409
1014.78	14.03378
1015.147	-56.13055
1015.513	-19.04442
1015.88	-5.01231
1016.246	-47.1117
1016.612	34.07371
1016.978	11.02622
1017.344	-9.02163
1017.71	3.00701
1018.076	-17.03836
1018.442	-2.00501
1018.808	-5.01225
1019.174	-62.15145
1019.539	-35.07457
1019.905	-21.04833
1020.27	-62.14953
1020.636	-43.09892
1021.001	-5.01162
1021.366	-9.02104
1021.731	26.06558
1022.096	0
1022.461	19.04339
1022.826	50.11468
1023.191	-52.13392
1023.556	-15.0338
1023.92	-10.02358
1024.285	5.01164
1024.649	-31.07339
1025.014	-39.09297
1025.378	19.04647
1025.742	-21.0502
1026.107	-1.00217
1026.471	-9.02014
1026.835	16.03828
1027.199	-60.14163
1027.562	-37.08256
1027.926	-20.04714
1028.29	-8.01968
1028.654	-42.09342
1029.017	16.03806
1029.381	-56.13121
1029.744	-43.10732
1030.107	42.09505
1030.471	-11.02566
1030.834	-62.1351
1031.197	38.08761
1031.56	-54.1235
1031.923	-29.07335
1032.286	3.00679
1032.648	-29.06628
1033.011	-47.10669
1033.374	-12.02693
1033.736	-39.10053
1034.099	-39.09272
1034.461	-43.10712
1034.823	-44.10756
1035.185	2.00483
1035.548	0
1035.91	-8.01849
1036.272	15.03298
1036.634	30.07049
1036.995	-66.15028
1037.357	-27.06424
1037.719	-2.00471
1038.08	8.01848
1038.442	-37.08522
1038.803	-38.08719
1039.165	-23.05617
1039.526	-44.10374
1039.887	-54.12593
1040.248	-5.01216
1040.609	-5.01182
1040.97	-44.10447
1041.331	13.03208
1041.692	18.04122
1042.053	-28.06127
1042.413	-43.0967
1042.774	22.05163
1043.134	-4.00906
1043.495	-22.05376
1043.855	47.11054
1044.215	23.05464
1044.576	-27.0632
1044.936	-9.01977
1045.296	28.06725
1045.656	-11.02584
1046.016	-35.08161
1046.375	-13.03055
1046.735	31.06863
1047.095	-9.02036
1047.454	4.008
1047.814	29.06703
1048.173	-27.06156
1048.533	-42.09346
1048.892	-78.18462
1049.251	5.01204
1049.61	-33.07921
1049.969	-13.02952
1050.328	3.00624
1050.687	-21.04922
1051.046	-49.11587
1051.405	-57.13723
1051.763	16.03578
1052.122	-31.07514
1052.48	-24.05738
1052.839	27.06209
1053.197	-18.04095
1053.555	-38.08196
1053.914	0
1054.272	-44.10116
1054.63	-60.14394
1054.988	11.02545
1055.345	-35.07165
1055.703	6.01396
1056.061	73.18212
1056.419	-9.02305
1056.776	-37.08566
1057.134	-53.11713
1057.491	-16.03894
1057.848	-50.12077
1058.206	-27.06047
1058.563	-17.036
1058.92	-6.01326
1059.277	-4.00955
1059.634	-4.00893
1059.991	15.03469
1060.348	-9.01971
1060.704	-11.02601
1061.061	-49.10838
1061.418	-31.07322
1061.774	5.01193
1062.131	0
1062.487	-40.09027
1062.843	4.00964
1063.199	-18.04351
1063.555	-4.00903
1063.911	-14.0341
1064.267	16.03122
1064.623	-34.08138
1064.979	-82.18293
1065.335	-1.00228
1065.691	-52.1195
1066.046	-19.04013
1066.402	-61.13402
1066.757	21.05119
1067.112	-70.16741
1067.468	-4.00926
1067.823	-78.17968
1068.178	-28.06525
1068.533	-18.04228
1068.888	-7.01606
1069.243	-17.04073
1069.598	-51.11999
1069.952	10.02216
1070.307	-31.07514
1070.662	-18.04199
1071.016	-27.0595
1071.371	-30.06651
1071.725	-16.03665
1072.079	4.00931
1072.434	-29.06879
1072.788	-26.05913
1073.142	-8.01908
1073.496	-35.08042
1073.85	-9.02008
1074.203	-24.05659
1074.557	47.1222
1074.911	23.05225
1075.265	3.0067
1075.618	14.03298
1075.971	-5.01147
1076.325	50.12313
1076.678	-49.10911
1077.031	-74.15981
1077.385	5.0105
1077.738	-12.02603
1078.091	16.03528
1078.444	-33.07324
1078.796	-18.04316
1079.149	6.01446
1079.502	-8.01841
1079.855	-23.05202
1080.207	-47.11247
1080.56	36.09038
1080.912	11.02575
1081.264	27.06276
1081.617	-1.00237
1081.969	19.04661
1082.321	-69.1643
1082.673	-54.12216
1083.025	-56.12864
1083.377	-53.12124
1083.728	-11.02462
1084.08	-26.06266
1084.432	-30.06994
1084.783	-38.08453
1085.135	8.01949
1085.486	-25.05576
1085.838	-26.06249
1086.189	-22.05233
1086.54	7.01602
1086.891	37.09197
1087.242	35.0834
1087.593	-86.20214
1087.944	36.07861
1088.295	-11.02402
1088.646	16.03815
1088.996	-41.09688
1089.347	-35.08299
1089.698	8.01845
1090.048	-20.05025
1090.398	-26.05791
1090.749	-46.10605
1091.099	-28.06954
1091.449	-2.00485
1091.799	0
1092.149	-18.0433
1092.499	-26.06164
1092.849	-30.07448
1093.199	-16.03854
1093.548	16.03748
1093.898	-16.03869
1094.248	-43.10681
1094.597	-25.06309
1094.947	-29.07584
1095.296	-2.00481
1095.645	-19.0479
1095.994	-23.05356
1096.343	-14.03436
1096.692	19.04925
1097.041	20.0535
1097.39	-32.07767
1097.739	-16.04046
1098.088	-12.0311
1098.437	-14.03643
1098.785	-19.04959
1099.134	-57.14601
1099.482	4.01077
1099.83	34.08637
1100.179	-7.01814
1100.527	-33.08471
1100.875	-33.0861
1101.223	18.04673
1101.571	-47.1272
1101.919	2.0052
1102.267	-29.08093
1102.615	4.01285
1102.962	-7.02248
1103.31	-2.00643
1103.658	-4.01283
