Data from N1 R1 sample 9_Subt2__2__11-25-29-877.txt Node

Date: Wed Sep 17 11:25:29 PDT 2025
User: uwsun
Spectrometer: HDX01956
Trigger mode: 0
Integration Time (sec): 5.000000E-1
Scans to average: 1
Nonlinearity correction enabled: true
Boxcar width: 0
Storing dark spectrum: false
XAxis mode: Wavelengths
Number of Pixels in Spectrum: 2068
>>>>>Begin Spectral Data<<<<<
194.03	-5.01453
194.578	2.0065
195.127	-10.0321
195.676	0
196.225	-43.11565
196.773	-29.08141
197.321	-11.03085
197.87	-11.02887
198.418	16.04211
198.966	43.11512
199.513	14.03641
200.061	18.04674
200.609	9.02425
201.156	-27.06129
201.704	-4.01033
202.251	38.10269
202.798	-3.00797
203.345	48.12103
203.892	26.0671
204.438	17.04132
204.985	-5.01223
205.532	-27.07298
206.078	-6.01506
206.624	25.06415
207.17	32.07682
207.716	24.06026
208.262	7.01436
208.808	7.01804
209.354	26.06579
209.899	50.12792
210.445	19.04865
210.99	-18.04532
211.535	53.12736
212.08	0
212.625	3.00768
213.17	44.11415
213.715	22.05163
214.259	12.02879
214.804	-5.01259
215.348	29.06871
215.892	26.0646
216.436	-25.05898
216.98	5.01129
217.524	42.10248
218.068	47.12064
218.612	48.12414
219.155	55.13227
219.698	76.18301
220.242	-4.01011
220.785	74.1761
221.328	15.03783
221.871	60.15485
222.414	-13.03295
222.956	-49.12105
223.499	-32.07366
224.041	-5.01171
224.583	-59.1293
225.126	4.00899
225.668	10.02479
226.21	37.09508
226.751	24.05462
227.293	-31.07222
227.835	19.04744
228.376	2.00465
228.918	3.00761
229.459	25.06341
230	32.07817
230.541	10.02349
231.082	15.03723
231.622	-13.03016
232.163	-9.0222
232.704	53.13424
233.244	19.04795
233.784	1.00247
234.324	51.11657
234.864	-32.07445
235.404	-9.02168
235.944	-25.06042
236.484	-3.00764
237.023	3.00722
237.563	13.03086
238.102	46.11022
238.641	0
239.18	-1.0024
239.719	12.03057
240.258	-3.0069
240.797	46.11136
241.335	17.04204
241.874	11.02204
242.412	49.12065
242.95	33.08107
243.488	-65.15126
244.026	40.09457
244.564	54.11292
245.102	29.06701
245.64	7.01704
246.177	-31.07094
246.715	66.16007
247.252	12.02779
247.789	2.00382
248.326	19.04666
248.863	-2.00452
249.4	0
249.936	91.19236
250.473	55.13177
251.009	-14.03289
251.546	37.0842
252.082	-31.06906
252.618	18.04113
253.154	-9.02218
253.69	21.04804
254.226	33.08032
254.761	43.09805
255.297	-21.04723
255.832	50.12054
256.367	37.0883
256.903	50.11297
257.438	19.04538
257.972	36.08157
258.507	16.03745
259.042	15.03339
259.576	46.10364
260.111	18.04214
260.645	16.03535
261.179	8.01916
261.713	70.15855
262.247	-30.07051
262.781	17.03672
263.315	-9.02232
263.849	7.01787
264.382	-2.0047
264.915	48.11528
265.449	-15.03752
265.982	-4.00932
266.515	13.03252
267.048	16.03475
267.58	21.04626
268.113	34.07497
268.646	-21.05266
269.178	-35.08074
269.71	53.11914
270.243	50.11766
270.775	46.11958
271.307	3.00728
271.838	9.02169
272.37	19.04738
272.902	61.13982
273.433	43.0971
273.965	-10.02487
274.496	19.0479
275.027	54.13606
275.558	28.06956
276.089	24.06103
276.62	7.01797
277.15	59.14655
277.681	1.00221
278.211	28.06939
278.741	6.01367
279.272	18.04211
279.802	5.01269
280.332	42.10079
280.861	17.04143
281.391	28.06491
281.921	19.04626
282.45	15.03787
282.98	37.09772
283.509	60.13855
284.038	89.20539
284.567	38.09008
285.096	40.09862
285.625	-21.04866
286.153	50.12136
286.682	45.10521
287.21	15.03643
287.739	16.0386
288.267	29.07193
288.795	46.12155
289.323	60.14289
289.851	63.15024
290.378	4.00914
290.906	59.14629
291.433	25.06343
291.961	37.08624
292.488	16.04044
293.015	18.04346
293.542	81.21002
294.069	33.08325
294.596	-8.02002
295.122	78.18911
295.649	6.01348
296.175	4.00985
296.702	79.19516
297.228	34.08327
297.754	54.12355
298.28	87.20237
298.806	19.04676
299.332	44.10051
299.857	39.09047
300.383	37.09451
300.908	50.1249
301.433	50.12454
301.958	61.14195
302.483	-19.04834
303.008	74.18612
303.533	59.15387
304.058	10.02387
304.582	36.08676
305.107	-1.00266
305.631	64.14731
306.155	73.17235
306.679	28.06732
307.203	66.15555
307.727	22.05332
308.251	23.05792
308.775	83.20429
309.298	49.1202
309.822	31.07927
310.345	91.21975
310.868	92.22405
311.391	116.28682
311.914	50.12724
312.437	35.08183
312.96	65.15554
313.482	0
314.005	54.1367
314.527	23.06086
315.049	78.19955
315.571	30.06927
316.093	61.15329
316.615	16.0393
317.137	50.11145
317.659	40.09876
318.18	6.01467
318.702	51.1219
319.223	45.09412
319.744	94.21438
320.265	78.19258
320.786	75.18989
321.307	75.18759
321.828	65.14941
322.348	61.14614
322.869	117.28083
323.389	41.08305
323.909	12.02821
324.43	76.18412
324.95	45.10538
325.47	52.1313
325.989	84.20212
326.509	77.17571
327.029	109.25184
327.548	41.09522
328.067	101.24776
328.587	99.25074
329.106	55.12662
329.625	89.2337
330.144	119.27932
330.662	128.30285
331.181	143.33892
331.7	38.09047
332.218	113.24848
332.736	72.17167
333.255	119.28291
333.773	119.28335
334.291	125.31456
334.808	136.30903
335.326	116.26359
335.844	133.31534
336.361	149.38432
336.879	157.37081
337.396	172.41872
337.913	128.29862
338.43	153.34689
338.947	129.31069
339.464	100.21976
339.981	95.22855
340.497	137.33843
341.014	137.33582
341.53	148.33603
342.046	194.48248
342.562	137.34302
343.078	128.30413
343.594	137.32796
344.11	164.39371
344.626	160.40429
345.141	161.37006
345.657	132.30201
346.172	155.37543
346.687	150.34636
347.202	173.39653
347.717	166.39669
348.232	194.4809
348.747	196.45186
349.261	167.36907
349.776	174.41438
350.29	192.47907
350.805	207.50796
351.319	139.32588
351.833	164.37959
352.347	192.45268
352.861	205.47928
353.374	175.39886
353.888	268.64433
354.401	163.37286
354.915	194.43867
355.428	196.48639
355.941	185.43083
356.454	200.44412
356.967	168.39286
357.48	191.43268
357.993	194.47509
358.505	165.40175
359.018	271.65216
359.53	211.51202
360.042	222.49461
360.554	298.71317
361.066	188.45612
361.578	288.62488
362.09	246.57795
362.602	218.48429
363.113	258.59904
363.625	263.58899
364.136	253.5493
364.647	249.58328
365.158	250.57472
365.669	222.52584
366.18	244.56743
366.691	267.57648
367.201	294.68908
367.712	297.66594
368.222	273.61867
368.733	198.43108
369.243	275.60545
369.753	272.61653
370.263	329.77215
370.773	235.56511
371.282	312.72669
371.792	322.72688
372.301	261.61999
372.811	335.85133
373.32	382.79629
373.829	313.71881
374.338	348.74926
374.847	347.77579
375.356	362.82316
375.865	386.7964
376.373	354.77886
376.882	441.05809
377.39	440.00566
377.898	420.98354
378.407	439.94698
378.915	485.99817
379.423	445.98088
379.93	542.16845
380.438	504.1314
380.946	539.16321
381.453	569.25949
381.96	610.33212
382.468	659.40129
382.975	699.53858
383.482	677.3615
383.989	775.76639
384.495	785.61015
385.002	813.47728
385.509	934.89671
386.015	994.67454
386.521	961.83698
387.028	1051.96003
387.534	1022.79099
388.04	1130.20845
388.546	1016.84751
389.051	1201.07332
389.557	1306.32628
390.063	1242.18009
390.568	1424.57244
391.073	1382.28775
391.578	1506.71436
392.084	1573.54605
392.589	1627.42751
393.093	1889.99053
393.598	2004.90304
394.103	2138.12702
394.607	2364.29343
395.112	2477.44639
395.616	2648.43684
396.12	2885.14566
396.624	3218.3137
397.128	3400.43345
397.632	3769.19712
398.136	4089.93051
398.639	4638.80223
399.143	5310.81781
399.646	5827.21921
400.15	6496.86847
400.653	7283.78396
401.156	8224.34286
401.659	9696.95852
402.162	12763.69056
402.664	19830.50958
403.167	40853.12776
403.67	60833.62273
404.172	63919.58413
404.674	63858.43483
405.176	63738.15102
405.678	63977.72923
406.18	64011.81569
406.682	63863.44694
407.184	63926.60148
407.686	59124.27042
408.187	35354.16087
408.688	23706.26555
409.19	18813.275
409.691	15895.76272
410.192	13511.50636
410.693	12195.68692
411.194	11496.59936
411.694	10775.2872
412.195	9904.47545
412.696	9265.99105
413.196	9284.98784
413.696	9337.1515
414.196	9184.77675
414.696	8660.11445
415.196	7769.08203
415.696	5990.80643
416.196	4765.70443
416.695	4208.03327
417.195	4032.2446
417.694	3854.44763
418.194	3464.66234
418.693	3361.12618
419.192	3372.30393
419.691	3197.24528
420.19	3066.45146
420.688	3021.56824
421.187	2792.59364
421.685	2526.18804
422.184	2229.14556
422.682	1930.64662
423.18	1752.72341
423.678	1539.51414
424.176	1444.41329
424.674	1374.26447
425.172	1290.32239
425.669	1195.31548
426.167	1082.01907
426.664	934.76164
427.161	906.74629
427.659	918.87603
428.156	819.48142
428.652	773.7037
429.149	781.64875
429.646	716.39807
430.143	621.33872
430.639	660.39399
431.135	564.28699
431.632	572.18571
432.128	539.18506
432.624	532.2625
433.12	514.07668
433.616	491.99369
434.111	527.14747
434.607	461.0256
435.103	403.79281
435.598	400.78228
436.093	400.8771
436.588	394.83553
437.083	325.69629
437.578	370.81167
438.073	326.78076
438.568	380.88502
439.062	321.65649
439.557	301.67519
440.051	271.58788
440.546	286.62504
441.04	286.66089
441.534	274.66524
442.028	275.63863
442.522	265.61419
443.015	212.4437
443.509	258.60637
444.002	217.51707
444.496	174.37126
444.989	259.6067
445.482	247.5917
445.975	257.57413
446.468	195.41345
446.961	249.52333
447.454	157.34712
447.947	252.58141
448.439	251.59509
448.931	220.49138
449.424	221.54652
449.916	230.54436
450.408	190.42508
450.9	155.37034
451.392	175.43515
451.884	161.36384
452.375	158.38421
452.867	205.44888
453.358	160.36047
453.849	152.32052
454.341	180.39805
454.832	161.34211
455.323	222.53658
455.814	116.26305
456.304	133.30399
456.795	138.31103
457.285	132.28727
457.776	163.3646
458.266	151.35235
458.756	80.18833
459.247	110.26066
459.737	142.33831
460.226	172.38417
460.716	143.33643
461.206	117.27677
461.695	113.27607
462.185	133.31132
462.674	135.30433
463.163	123.27297
463.653	149.31233
464.142	117.28019
464.63	102.24478
465.119	93.21488
465.608	106.24613
466.096	101.2177
466.585	62.14157
467.073	64.15066
467.561	83.19786
468.05	45.10385
468.538	120.28907
469.026	78.18398
469.513	44.09335
470.001	95.21661
470.489	123.28837
470.976	162.37065
471.463	98.24143
471.951	50.12399
472.438	76.17759
472.925	43.1014
473.412	98.23527
473.899	84.19149
474.385	78.18968
474.872	74.17176
475.359	120.29082
475.845	63.1306
476.331	41.08769
476.817	68.16468
477.303	84.19397
477.789	59.14011
478.275	71.17514
478.761	12.02867
479.247	46.10279
479.732	62.15403
480.218	66.17192
480.703	17.04204
481.188	52.11278
481.673	36.08303
482.158	45.09762
482.643	75.19023
483.128	60.13971
483.612	108.25444
484.097	43.10364
484.581	40.09273
485.066	54.132
485.55	68.15013
486.034	0
486.518	71.16925
487.002	25.06094
487.486	23.056
487.969	33.08029
488.453	-5.01253
488.936	5.01137
489.42	16.03569
489.903	29.07225
490.386	-36.07605
490.869	69.1509
491.352	-45.11002
491.835	43.08834
492.318	18.04074
492.8	-10.02105
493.283	43.1096
493.765	28.0688
494.247	26.06078
494.73	-13.02919
495.212	-39.0939
495.694	10.02375
496.175	19.0459
496.657	4.00955
497.139	-44.07782
497.62	-5.01214
498.102	23.05744
498.583	-23.05711
499.064	50.11159
499.545	21.04815
500.026	8.01827
500.507	-11.02563
500.988	32.08011
501.469	-23.05794
501.949	-8.01993
502.43	4.00972
502.91	70.14832
503.39	-46.11578
503.87	38.09005
504.35	-9.02128
504.83	-17.03774
505.31	-18.04389
505.79	-61.14714
506.269	-72.16923
506.749	-35.08135
507.228	-15.03576
507.707	45.10066
508.187	14.03367
508.666	7.01746
509.145	-56.13368
509.623	-46.10972
510.102	51.12325
510.581	-3.00731
511.059	-17.04326
511.538	2.00519
512.016	-27.06565
512.494	0
512.972	38.09119
513.45	-43.10219
513.928	-5.01228
514.406	25.06158
514.884	-10.02602
515.361	24.05773
515.839	-2.00466
516.316	63.15277
516.793	1.00254
517.27	3.00728
517.747	-51.13306
518.224	-19.04441
518.701	-57.12897
519.178	12.03023
519.654	1.00239
520.131	8.01996
520.607	-75.18738
521.083	-68.1579
521.56	-46.11048
522.036	-25.05539
522.512	25.06201
522.987	4.00973
523.463	-33.07951
523.939	36.0896
524.414	-19.04413
524.89	-11.02657
525.365	-25.05742
525.84	-18.04385
526.315	3.00733
526.79	-27.06196
527.265	-4.00936
527.74	-21.05165
528.215	-55.13101
528.689	-50.1121
529.164	-58.12751
529.638	-84.21776
530.112	-44.10543
530.587	-35.07648
531.061	-38.09355
531.534	-1.00243
532.008	-1.00246
532.482	-3.00698
532.956	-7.01802
533.429	23.05661
533.903	6.0133
534.376	-36.08117
534.849	-30.07016
535.322	-24.05749
535.795	-39.09578
536.268	-12.02941
536.741	-24.05782
537.213	-3.00698
537.686	-33.08203
538.158	-15.03464
538.631	11.02685
539.103	-22.05054
539.575	-77.16355
540.047	-39.08684
540.519	-15.03632
540.991	10.02458
541.463	-28.0684
541.934	-39.0899
542.406	-15.03654
542.877	-16.03668
543.348	-10.02445
543.82	15.03674
544.291	12.02828
544.762	2.00481
545.233	52.13187
545.703	-16.03621
546.174	6.01407
546.645	10.02443
547.115	-10.02446
547.585	12.02789
548.056	39.09634
548.526	65.15436
548.996	29.06977
549.466	0
549.935	53.12697
550.405	-18.0403
550.875	54.12856
551.344	12.0289
551.814	10.02319
552.283	53.11625
552.752	63.14793
553.221	65.14395
553.69	77.17408
554.159	42.10503
554.628	91.20582
555.096	82.20794
555.565	41.09133
556.033	120.28359
556.502	88.21151
556.97	48.10748
557.438	93.21735
557.906	87.20461
558.374	151.34485
558.842	137.32395
559.31	117.25976
559.777	134.32353
560.245	76.17417
560.712	108.24551
561.18	124.27181
561.647	128.2807
562.114	154.34724
562.581	168.40546
563.048	132.29873
563.514	239.58082
563.981	198.44206
564.448	220.48244
564.914	166.37812
565.381	208.46246
565.847	168.3836
566.313	162.36886
566.779	244.52987
567.245	173.39223
567.711	214.49767
568.176	238.51596
568.642	210.51446
569.108	228.54317
569.573	172.38972
570.038	240.48383
570.504	262.5692
570.969	261.62262
571.434	256.54717
571.899	282.6405
572.363	271.59664
572.828	311.68068
573.293	270.59407
573.757	281.62514
574.222	258.55646
574.686	325.70981
575.15	318.72898
575.614	365.81266
576.078	310.69323
576.542	267.58463
577.006	269.58379
577.469	289.68067
577.933	307.66681
578.396	270.61498
578.86	277.62544
579.323	329.75343
579.786	275.57185
580.249	327.73229
580.712	272.63528
581.175	281.66441
581.637	289.63039
582.1	315.65182
582.563	266.54216
583.025	265.62051
583.487	246.48817
583.95	269.55289
584.412	328.6518
584.874	254.59744
585.336	215.49555
585.797	262.54786
586.259	226.51249
586.721	195.44623
587.182	215.4813
587.643	238.52279
588.105	264.59986
588.566	249.50001
589.027	224.53242
589.488	229.50926
589.949	276.64361
590.41	217.41703
590.87	249.55005
591.331	260.54681
591.791	213.47957
592.252	204.46298
592.712	173.40606
593.172	204.45206
593.632	259.55442
594.092	161.35254
594.552	158.33669
595.011	145.32728
595.471	195.43149
595.931	153.34011
596.39	151.35678
596.849	218.49294
597.308	128.26979
597.768	173.43737
598.227	105.2504
598.685	108.24441
599.144	160.37063
599.603	145.33395
600.062	111.23247
600.52	119.26651
600.978	163.37795
601.437	113.25484
601.895	93.19882
602.353	82.1799
602.811	157.34828
603.269	95.22464
603.727	96.22907
604.184	109.24663
604.642	119.28932
605.099	144.33145
605.557	103.24845
606.014	96.20599
606.471	116.28798
606.928	123.27081
607.385	130.32144
607.842	66.15149
608.299	88.20482
608.755	104.24987
609.212	113.25005
609.668	73.1647
610.125	101.24151
610.581	79.18463
611.037	8.01815
611.493	60.14009
611.949	71.17262
612.405	125.25205
612.861	72.16526
613.316	72.17206
613.772	57.13076
614.227	114.27118
614.683	28.0599
615.138	38.08949
615.593	23.05378
616.048	47.10786
616.503	64.15505
616.958	97.24085
617.412	64.15178
617.867	60.1344
618.321	25.0521
618.776	49.10825
619.23	52.12189
619.684	-12.02717
620.138	42.09637
620.592	49.11887
621.046	62.1463
621.5	17.04116
621.954	-5.0112
622.407	23.05121
622.861	14.0342
623.314	29.06596
623.768	109.25455
624.221	-38.07657
624.674	53.12241
625.127	19.04444
625.58	5.01133
626.033	29.06372
626.485	9.02168
626.938	45.10719
627.39	53.12382
627.843	39.09007
628.295	9.02091
628.747	32.0765
629.199	40.09122
629.651	33.07588
630.103	46.10554
630.555	21.04455
631.006	22.05137
631.458	22.05197
631.909	-17.03856
632.361	-6.01398
632.812	29.06732
633.263	48.1042
633.714	-2.00428
634.165	3.00724
634.616	14.03325
635.067	-5.01112
635.518	62.1463
635.968	0
636.419	43.094
636.869	37.08763
637.319	65.15012
637.769	8.01812
638.219	46.10833
638.669	3.00718
639.119	-5.01205
639.569	19.04571
640.019	61.14032
640.468	57.12739
640.918	2.00477
641.367	11.02478
641.816	18.0402
642.265	103.23732
642.714	-19.04407
643.163	42.09706
643.612	9.02217
644.061	-8.01731
644.51	35.08035
644.958	15.03333
645.406	48.11445
645.855	27.06562
646.303	6.01395
646.751	64.14743
647.199	29.06588
647.647	34.07904
648.095	17.03893
648.543	19.03879
648.99	68.16238
649.438	44.1016
649.885	23.05744
650.333	44.08556
650.78	49.11811
651.227	38.09293
651.674	14.03212
652.121	82.1994
652.568	68.16554
653.015	2.00497
653.461	67.15831
653.908	5.01155
654.354	32.07621
654.801	5.0118
655.247	57.12297
655.693	30.07793
656.139	43.10239
656.585	19.04548
657.031	12.02834
657.477	60.13063
657.922	-48.11093
658.368	28.0688
658.813	16.0365
659.259	75.18036
659.704	72.1695
660.149	10.02316
660.594	64.15096
661.039	55.12485
661.484	72.16917
661.929	55.12794
662.373	1.00252
662.818	78.19102
663.262	61.14664
663.707	59.14917
664.151	67.1621
664.595	74.17745
665.039	69.16983
665.483	84.21135
665.927	63.14684
666.371	78.1819
666.814	52.12294
667.258	125.2958
667.701	56.11887
668.145	97.23813
668.588	111.27068
669.031	57.13332
669.474	95.2249
669.917	88.19054
670.36	71.17565
670.803	115.27319
671.245	-2.00412
671.688	115.27498
672.13	86.19241
672.573	62.15532
673.015	113.26793
673.457	88.18923
673.899	96.22898
674.341	71.16945
674.783	77.18264
675.225	71.17314
675.666	86.20803
676.108	104.22123
676.549	49.11353
676.991	123.26455
677.432	70.13774
677.873	49.11128
678.314	71.1673
678.755	93.22619
679.196	60.13612
679.637	48.11418
680.078	103.23666
680.518	95.21478
680.959	61.14396
681.399	47.1156
681.839	86.20591
682.28	81.19885
682.72	75.16956
683.16	148.36016
683.6	110.24559
684.039	61.12487
684.479	88.21431
684.919	76.17682
685.358	62.1528
685.798	64.16488
686.237	36.08544
686.676	32.07212
687.115	74.1723
687.554	150.34953
687.993	102.22161
688.432	89.19998
688.871	75.16991
689.309	109.25655
689.748	120.24392
690.186	36.08372
690.625	96.22176
691.063	63.14868
691.501	114.27628
691.939	113.27905
692.377	39.09393
692.815	131.313
693.253	97.2267
693.69	114.24409
694.128	78.18676
694.565	76.17752
695.003	137.34166
695.44	80.18679
695.877	93.21513
696.314	82.1698
696.751	117.25901
697.188	132.29836
697.625	67.14789
698.061	82.19326
698.498	60.14009
698.934	105.24578
699.371	62.14419
699.807	97.22456
700.243	89.21102
700.679	66.1451
701.115	95.21731
701.551	53.12173
701.987	46.09943
702.422	134.31151
702.858	106.24759
703.294	139.30989
703.729	104.24759
704.164	108.25206
704.599	141.30575
705.035	117.25609
705.47	103.24478
705.904	124.27971
706.339	98.22025
706.774	97.22251
707.209	120.27246
707.643	81.19042
708.078	59.14156
708.512	62.15336
708.946	94.21801
709.38	127.29378
709.814	84.18646
710.248	144.34202
710.682	146.34035
711.116	132.31303
711.549	48.12103
711.983	53.12085
712.416	166.38056
712.85	101.24455
713.283	75.17398
713.716	80.19454
714.149	53.12099
714.582	109.23888
715.015	83.19953
715.448	120.29464
715.881	80.16818
716.313	148.33439
716.746	95.22002
717.178	85.20037
717.61	121.2999
718.043	75.18173
718.475	118.27886
718.907	78.19095
719.339	65.14497
719.77	123.28668
720.202	56.13806
720.634	113.27051
721.065	91.20959
721.497	68.16356
721.928	23.05567
722.359	59.14151
722.79	68.15995
723.221	17.04181
723.652	64.15976
724.083	38.08435
724.514	73.16443
724.945	79.18108
725.375	71.16294
725.806	45.10924
726.236	91.22727
726.666	79.18224
727.096	45.10842
727.526	51.12954
727.956	71.15921
728.386	77.18475
728.816	81.20325
729.246	59.14329
729.675	-24.05838
730.105	62.14873
730.534	65.14845
730.964	9.02223
731.393	70.16786
731.822	57.14318
732.251	54.13475
732.68	45.10236
733.109	29.07067
733.537	51.12283
733.966	59.14484
734.395	74.1674
734.823	-1.00219
735.251	9.02141
735.68	25.06081
736.108	-14.03477
736.536	45.10352
736.964	30.06853
737.392	22.05428
737.82	4.00945
738.247	3.00708
738.675	65.14929
739.102	29.07133
739.53	26.06612
739.957	27.06906
740.384	-5.01193
740.811	16.03929
741.238	75.18009
741.665	45.10418
742.092	-52.1195
742.519	-4.00987
742.945	83.19725
743.372	59.14393
743.798	0
744.225	-17.03995
744.651	-8.01985
745.077	-16.03963
745.503	-7.01674
745.929	64.15201
746.355	31.07415
746.781	-6.0146
747.207	9.02118
747.632	4.00986
748.058	34.08453
748.483	-27.06181
748.908	18.04431
749.334	52.12593
749.759	43.10085
750.184	36.08554
750.609	10.0242
751.033	1.00231
751.458	21.04608
751.883	21.0509
752.307	-31.07271
752.732	67.16806
753.156	-33.08089
753.58	-10.02335
754.005	-46.11507
754.429	7.01644
754.853	21.05165
755.277	2.00471
755.7	24.05871
756.124	24.05884
756.548	-9.02107
756.971	45.10773
757.394	-1.00253
757.818	-8.02047
758.241	-16.0404
758.664	19.04733
759.087	16.03566
759.51	15.03646
759.933	-4.0096
760.356	18.04591
760.778	16.03879
761.201	-1.00239
761.623	-41.09703
762.046	-15.03467
762.468	24.05645
762.89	8.01924
763.312	68.16269
763.734	20.04754
764.156	-15.03674
764.578	59.13099
765	38.09088
765.421	14.03531
765.843	37.09511
766.264	-3.00701
766.686	-12.02943
767.107	-19.04566
767.528	51.12866
767.949	-11.02762
768.37	4.00981
768.791	-27.06414
769.212	-59.14879
769.632	-23.05356
770.053	-51.13274
770.473	-31.0741
770.894	-10.02427
771.314	5.0116
771.734	-9.02072
772.154	-11.02773
772.575	-21.04784
772.994	-25.05604
773.414	16.03731
773.834	-44.10888
774.254	-9.02168
774.673	17.04098
775.093	25.06124
775.512	-37.09087
775.931	33.08215
776.351	6.01477
776.77	-10.02431
777.189	-25.05884
777.607	-30.07597
778.026	-1.00246
778.445	-9.02262
778.864	-49.12327
779.282	-41.09684
779.701	-18.04462
780.119	-76.19273
780.537	-13.03193
780.955	19.04708
781.373	12.0291
781.791	27.06017
782.209	-36.08024
782.627	-26.06784
783.045	-34.07641
783.462	25.0626
783.88	-10.02559
784.297	-13.03229
784.715	-18.04594
785.132	-23.05462
785.549	-34.08407
785.966	3.00742
786.383	-10.0244
786.8	3.00683
787.217	20.04694
787.633	9.02232
788.05	22.04989
788.466	-26.05958
788.883	3.0076
789.299	-52.12237
789.715	-1.0024
790.131	7.01709
790.547	10.02443
790.963	5.01215
791.379	-17.04241
791.795	-56.12513
792.21	-37.08481
792.626	-12.02772
793.041	-23.05582
793.457	-36.08725
793.872	-23.05272
794.287	-2.00477
794.702	-33.07882
795.117	12.02937
795.532	15.03715
795.947	-15.03491
796.362	-20.04587
796.776	32.07127
797.191	21.05033
797.605	-15.03511
798.02	-34.08147
798.434	-5.01089
798.848	49.11904
799.262	-5.01218
799.676	20.04759
800.09	-34.0824
800.504	-21.04981
800.918	-50.1132
801.331	-35.08833
801.745	-49.11037
802.158	-76.18689
802.572	32.07545
802.985	-23.05403
803.398	-5.01163
803.811	-29.07177
804.224	-25.0603
804.637	0
805.05	-20.04504
805.462	-6.01434
805.875	-9.02301
806.288	-20.04774
806.7	-62.15252
807.112	-10.02245
807.525	-76.1828
807.937	-28.06829
808.349	-46.11278
808.761	15.03614
809.173	11.02613
809.584	7.01678
809.996	-18.04316
810.408	-20.05138
810.819	8.01838
811.231	11.02886
811.642	-24.05876
812.053	16.03813
812.464	-22.05108
812.875	-38.09626
813.286	-5.01274
813.697	0
814.108	-20.04761
814.519	3.00657
814.929	16.03963
815.34	-56.1325
815.75	7.01755
816.16	-66.16038
816.571	-33.08403
816.981	-63.14487
817.391	-8.01867
817.801	8.01948
818.211	23.05304
818.62	8.01888
819.03	26.06166
819.44	-25.06294
819.849	-21.05127
820.259	-7.01732
820.668	-22.0533
821.077	14.03422
821.486	-51.11919
821.895	24.05663
822.304	14.03612
822.713	-34.07845
823.122	-30.07328
823.531	-81.187
823.939	-6.01434
824.348	-29.0686
824.756	-2.00486
825.164	-29.07117
825.573	-29.07146
825.981	-12.02889
826.389	-40.09851
826.797	22.05458
827.205	17.03815
827.612	-2.00478
828.02	-65.14959
828.428	-35.08741
828.835	-24.0625
829.243	-29.06709
829.65	-18.04418
830.057	-46.10905
830.464	-13.03136
830.871	38.08831
831.278	-15.03543
831.685	-45.09787
832.092	-18.04259
832.499	-9.01925
832.905	-21.05165
833.312	-41.08966
833.718	24.05847
834.124	25.05537
834.531	0
834.937	28.07002
835.343	-37.08664
835.749	-20.04482
836.155	-25.06422
836.561	-27.0651
836.966	-3.00711
837.372	-17.04207
837.777	-6.01464
838.183	20.04264
838.588	8.01946
838.993	-15.03566
839.399	-10.02397
839.804	-56.13465
840.209	-4.01007
840.613	-47.10213
841.018	-20.04924
841.423	8.02001
841.828	-27.06726
842.232	6.01417
842.637	33.07607
843.041	-35.08855
843.445	-46.1124
843.849	5.0121
844.253	-7.01612
844.657	-12.02973
845.061	25.05581
845.465	3.00705
845.869	-4.00903
846.272	-24.05746
846.676	-28.06491
847.079	2.005
847.483	10.02415
847.886	6.01403
848.289	-3.00794
848.692	-67.16606
849.095	26.06006
849.498	12.02907
849.901	-58.12928
850.304	9.02082
850.707	-5.01238
851.109	4.00979
851.512	-12.02884
851.914	-25.06217
852.316	18.04474
852.718	40.1028
853.121	-49.11797
853.523	-48.10907
853.925	-5.01288
854.326	1.00245
854.728	-9.02269
855.13	6.01524
855.531	2.00466
855.933	-60.13998
856.334	39.09482
856.736	18.03934
857.137	-10.02283
857.538	-17.04209
857.939	-2.00489
858.34	-1.00234
858.741	25.06321
859.142	-35.0817
859.542	-16.04164
859.943	-37.08999
860.343	-12.0292
860.744	0
861.144	0
861.544	4.00948
861.945	5.01238
862.345	3.00709
862.745	23.05582
863.145	18.04074
863.544	-2.00494
863.944	-18.04138
864.344	-48.11532
864.743	4.00962
865.143	31.0779
865.542	-35.07813
865.941	7.0169
866.34	-54.12509
866.74	18.0471
867.139	3.00708
867.537	-25.06156
867.936	-17.04006
868.335	-20.04958
868.734	-15.03752
869.132	-41.09182
869.531	1.00232
869.929	-40.08957
870.327	-72.16989
870.726	11.0263
871.124	-31.07003
871.522	-49.12211
871.92	-21.05054
872.318	-39.09254
872.715	-18.04274
873.113	-36.08524
873.511	-7.01691
873.908	-16.04014
874.306	-34.08351
874.703	-50.12145
875.1	-41.10125
875.497	-31.07222
875.894	22.05322
876.291	-9.02155
876.688	-39.09881
877.085	-29.06735
877.482	13.03154
877.878	21.0496
878.275	-30.0748
878.671	-47.09874
879.068	2.00468
879.464	1.00234
879.86	-61.14156
880.256	-48.1141
880.652	-52.12985
881.048	-24.05736
881.444	-33.07543
881.84	-7.0173
882.236	25.06074
882.631	-1.0024
883.027	-37.08712
883.422	-77.19294
883.817	-14.0346
884.213	-3.0075
884.608	-2.00488
885.003	-68.15971
885.398	-40.09818
885.793	-21.05119
886.188	-56.13643
886.582	-2.00494
886.977	-37.08508
887.371	-24.05882
887.766	-46.11291
888.16	-74.1786
888.554	-10.02386
888.949	-33.08095
889.343	-23.05443
889.737	-32.08453
890.131	-19.04651
890.525	-19.0478
890.918	-25.06137
891.312	2.00458
891.706	-39.10011
892.099	7.01724
892.492	-38.07914
892.886	-44.10507
893.279	-78.19548
893.672	22.05468
894.065	-1.00244
894.458	-44.10724
894.851	16.03762
895.244	-7.0174
895.637	15.03507
896.029	-3.00717
896.422	-30.07057
896.814	-32.07744
897.206	-9.02113
897.599	10.02393
897.991	6.01416
898.383	-17.03915
898.775	13.02867
899.167	-5.01149
899.559	-14.0342
899.951	-4.00905
900.342	-32.07875
900.734	14.03454
901.125	-17.04324
901.517	0
901.908	-36.08286
902.299	-4.00953
902.69	2.00462
903.082	-2.0047
903.473	2.00472
903.863	-48.11938
904.254	-5.0114
904.645	-7.01669
905.036	25.05973
905.426	-20.04371
905.817	8.01888
906.207	-70.1619
906.597	16.03653
906.987	-43.10829
907.378	-20.04965
907.768	-8.02072
908.158	-70.16735
908.547	17.04327
908.937	-33.08173
909.327	13.03045
909.717	-35.08538
910.106	-36.08396
910.495	-27.06496
910.885	-21.05205
911.274	-49.1198
911.663	-42.10336
912.052	-37.08807
912.441	3.00748
912.83	-66.1473
913.219	-11.02796
913.608	-2.00478
913.997	1.00246
914.385	-19.04414
914.774	-3.00707
915.162	23.05354
915.55	-27.0631
915.939	-37.09218
916.327	-52.12612
916.715	38.0951
917.103	-28.06594
917.491	-25.06005
917.878	0
918.266	-26.06561
918.654	-8.02008
919.041	-40.10384
919.429	-12.02748
919.816	-33.08164
920.203	6.01425
920.591	-5.01207
920.978	-16.03811
921.365	1.00257
921.752	-54.1239
922.139	-14.02941
922.525	9.02101
922.912	-55.13086
923.299	-12.02907
923.685	-68.17305
924.072	-105.23283
924.458	-21.05096
924.844	-46.11153
925.231	-33.07403
925.617	-11.02758
926.003	-26.06467
926.389	-25.06151
926.774	-38.09382
927.16	-17.04101
927.546	-6.01517
927.931	-25.0604
928.317	-14.031
928.702	-2.00456
929.088	8.01874
929.473	-9.02249
929.858	11.02625
930.243	4.00941
930.628	-2.00478
931.013	-12.02898
931.398	-48.10571
931.783	-36.09178
932.167	27.06444
932.552	-21.0511
932.937	-15.03598
933.321	-11.02711
933.705	-54.1319
934.09	-70.17016
934.474	-5.01138
934.858	-18.04569
935.242	-58.13105
935.626	-15.03765
936.009	9.02355
936.393	38.09475
936.777	24.05991
937.16	8.02041
937.544	-36.08117
937.927	2.00496
938.311	13.03043
938.694	16.04124
939.077	-9.0209
939.46	-29.06775
939.843	-45.08878
940.226	-54.13518
940.609	-2.0045
940.991	-21.05178
941.374	-26.06237
941.757	-2.00476
942.139	-44.09677
942.522	2.00454
942.904	-12.02802
943.286	-6.01477
943.668	27.06851
944.05	4.00956
944.432	-54.12999
944.814	-19.04503
945.196	-25.05992
945.578	-20.0471
945.959	-9.0202
946.341	-35.08209
946.722	-31.07034
947.104	10.02311
947.485	-24.05429
947.866	-23.05705
948.247	14.03459
948.628	-41.0956
949.009	-35.0877
949.39	-57.13812
949.771	-82.18263
950.152	-12.02867
950.532	-22.05434
950.913	-1.00233
951.293	-24.06412
951.674	9.02105
952.054	12.02939
952.434	21.05048
952.814	-40.09163
953.194	-27.06809
953.574	-4.0095
953.954	-73.1682
954.334	10.02439
954.714	-40.09577
955.093	4.00952
955.473	-19.04685
955.853	-12.0303
956.232	26.06911
956.611	-32.07366
956.99	5.01225
957.37	-32.0791
957.749	-74.17033
958.128	38.09296
958.506	-19.04822
958.885	-17.04161
959.264	-21.05083
959.643	11.0243
960.021	40.09621
960.4	-41.09031
960.778	4.00938
961.156	-74.1817
961.535	-31.06946
961.913	-7.01596
962.291	6.01516
962.669	21.05178
963.047	8.01993
963.424	-1.00252
963.802	7.01671
964.18	-53.1291
964.557	17.03745
964.935	7.01599
965.312	1.00255
965.69	-39.09443
966.067	-35.08206
966.444	-67.15874
966.821	-5.01256
967.198	-82.19311
967.575	-2.00473
967.952	-18.041
968.329	17.04023
968.705	28.05788
969.082	37.09304
969.458	-26.06166
969.835	14.03291
970.211	39.09776
970.587	-18.04372
970.963	-19.04706
971.339	-14.03586
971.715	4.00971
972.091	-31.07432
972.467	-44.10559
972.843	-26.06372
973.219	31.07074
973.594	-30.07681
973.97	-39.08785
974.345	-31.07262
974.721	-30.06955
975.096	12.02832
975.471	-17.03893
975.846	-25.05792
976.221	-37.09204
976.596	42.09849
976.971	33.07912
977.346	-23.05147
977.72	-15.037
978.095	-21.0529
978.469	-8.0184
978.844	17.04104
979.218	1.00236
979.593	-7.01615
979.967	-41.09548
980.341	11.02453
980.715	8.01959
981.089	-13.03161
981.463	-30.06693
981.837	36.0858
982.21	-16.035
982.584	3.00705
982.957	-2.00488
983.331	-63.14336
983.704	-16.03875
984.078	-27.06468
984.451	-24.05707
984.824	-16.03815
985.197	-74.17353
985.57	-19.04557
985.943	-30.07073
986.316	-18.04219
986.688	-13.03034
987.061	-15.03422
987.434	26.06654
987.806	-45.10484
988.179	-37.0846
988.551	-28.06893
988.923	-35.0835
989.295	-8.01929
989.667	-22.05195
990.039	32.07761
990.411	-69.15281
990.783	-29.06382
991.155	-77.18278
991.527	-20.04684
991.898	-33.08068
992.27	-6.01456
992.641	5.01206
993.012	-29.06441
993.384	-51.11812
993.755	-13.03247
994.126	7.01643
994.497	-37.08864
994.868	-50.11048
995.239	-20.04692
995.61	-29.07127
995.98	-9.02116
996.351	-27.06567
996.722	-18.041
997.092	-26.0602
997.462	-23.05289
997.833	20.04515
998.203	-51.11882
998.573	21.05073
998.943	-12.02742
999.313	-4.00934
999.683	-20.04681
1000.053	-111.24572
1000.423	-29.06799
1000.792	-46.11537
1001.162	-30.07136
1001.531	5.01196
1001.901	-17.04096
1002.27	-49.10417
1002.639	-36.08911
1003.009	-34.07845
1003.378	-15.03742
1003.747	13.02937
1004.116	-49.11421
1004.485	20.04598
1004.853	-41.09998
1005.222	-71.17243
1005.591	16.03643
1005.959	2.00437
1006.328	2.00436
1006.696	-31.07239
1007.064	-26.06304
1007.433	-38.09185
1007.801	-46.10816
1008.169	-65.15922
1008.537	0
1008.905	-13.02956
1009.273	-12.02851
1009.64	-2.00468
1010.008	-15.03456
1010.375	-2.0046
1010.743	-43.09328
1011.11	30.06966
1011.478	26.06251
1011.845	-35.07948
1012.212	18.03964
1012.579	-4.00953
1012.946	-18.04098
1013.313	-32.07327
1013.68	-11.0237
1014.047	-60.13976
1014.414	-60.13822
1014.78	7.01691
1015.147	-1.00231
1015.513	1.00233
1015.88	-13.03206
1016.246	-14.03306
1016.612	6.01309
1016.978	2.00478
1017.344	11.02633
1017.71	-4.00937
1018.076	26.05815
1018.442	22.05492
1018.808	-16.03929
1019.174	-69.16876
1019.539	-45.09608
1019.905	-38.08775
1020.27	-33.07915
1020.636	-13.02973
1021.001	21.04856
1021.366	-25.05864
1021.731	40.10064
1022.096	-18.04465
1022.461	-9.02067
1022.826	40.09192
1023.191	3.00765
1023.556	-19.04285
1023.92	-30.07101
1024.285	-29.06799
1024.649	-15.0354
1025.014	-51.12186
1025.378	-2.00491
1025.742	-11.02624
1026.107	-12.02608
1026.471	1.00223
1026.835	-9.02164
1027.199	-45.10591
1027.562	-31.06908
1027.926	-10.02352
1028.29	-56.13898
1028.654	-26.05764
1029.017	24.057
1029.381	-5.0116
1029.744	-33.08221
1030.107	5.0114
1030.471	0
1030.834	-53.11527
1031.197	-2.00465
1031.56	-70.16061
1031.923	-34.08607
1032.286	35.07868
1032.648	-39.08932
1033.011	1.00225
1033.374	-19.04269
1033.736	-35.09016
1034.099	15.03529
1034.461	-6.01485
1034.823	-30.07314
1035.185	-14.03388
1035.548	3.00709
1035.91	-22.05098
1036.272	12.0264
1036.634	-12.02843
1036.995	-60.13645
1037.357	-7.01659
1037.719	-30.07109
1038.08	22.05068
1038.442	-35.08058
1038.803	-37.08488
1039.165	-57.14009
1039.526	-17.03987
1039.887	-55.12829
1040.248	41.09886
1040.609	4.00944
1040.97	-19.04489
1041.331	18.04438
1041.692	-13.02995
1042.053	-7.01525
1042.413	-12.02681
1042.774	5.01177
1043.134	-16.03633
1043.495	2.00487
1043.855	-6.01426
1044.215	-47.11316
1044.576	1.00233
1044.936	-40.08842
1045.296	-16.03875
1045.656	-22.05179
1046.016	21.04842
1046.375	-31.07311
1046.735	22.04879
1047.095	-5.0113
1047.454	0
1047.814	15.03477
1048.173	-4.00908
1048.533	-23.05098
1048.892	-52.12246
1049.251	-19.04595
1049.61	2.00477
1049.969	7.01583
1050.328	-11.02294
1050.687	-23.05392
1051.046	-31.07305
1051.405	-37.08874
1051.763	-52.11792
1052.122	-13.03141
1052.48	3.00714
1052.839	15.03458
1053.197	-45.10294
1053.555	-60.13002
1053.914	-27.06392
1054.272	-34.07801
1054.63	-14.03329
1054.988	-31.07231
1055.345	-39.07991
1055.703	8.01861
1056.061	21.05288
1056.419	13.03317
1056.776	-82.19153
1057.134	-47.10374
1057.491	-9.02187
1057.848	-40.09643
1058.206	-66.149
1058.563	-13.0275
1058.92	22.04833
1059.277	19.04515
1059.634	-38.08547
1059.991	6.0139
1060.348	-69.153
1060.704	23.05403
1061.061	11.02403
1061.418	-42.09941
1061.774	-55.13277
1062.131	13.0339
1062.487	-34.07663
1062.843	-14.03384
1063.199	-10.02414
1063.555	-21.04759
1063.911	-23.05611
1064.267	-79.15761
1064.623	9.02136
1064.979	-56.12425
1065.335	-26.05966
1065.691	-31.07094
1066.046	-13.02742
1066.402	-77.16975
1066.757	-21.05159
1067.112	-16.03787
1067.468	-4.00926
1067.823	-85.19608
1068.178	-45.10521
1068.533	-14.03285
1068.888	-43.09935
1069.243	-47.11324
1069.598	-48.11287
1069.952	34.07497
1070.307	-4.00965
1070.662	-7.0163
1071.016	-14.03077
1071.371	13.02856
1071.725	25.0568
1072.079	-12.02801
1072.434	-31.07356
1072.788	-63.14435
1073.142	35.08279
1073.496	-37.08505
1073.85	-26.05822
1074.203	-24.05659
1074.557	28.07304
1074.911	-8.01829
1075.265	6.0134
1075.618	-12.02841
1075.971	-21.04831
1076.325	8.01985
1076.678	-27.05985
1077.031	-79.1708
1077.385	12.02517
1077.738	-63.13813
1078.091	-81.18223
1078.444	-30.06654
1078.796	5.01194
1079.149	6.01446
1079.502	-2.0046
1079.855	-36.08164
1080.207	-9.02138
1080.56	4.0101
1080.912	-66.15682
1081.264	4.00934
1081.617	-21.04989
1081.969	-6.01479
1082.321	-36.08518
1082.673	-38.08568
1083.025	-11.02504
1083.377	225.48581
1083.728	-44.09913
1084.08	-48.11616
1084.432	-55.12885
1084.783	-21.04655
1085.135	-15.0367
1085.486	1.00222
1085.838	17.04053
1086.189	14.03307
1086.54	-10.02296
1086.891	27.06724
1087.242	15.03588
1087.593	-50.1167
1087.944	39.08511
1088.295	-18.03936
1088.646	81.19072
1088.996	-79.18803
1089.347	-31.07345
1089.698	-46.10723
1090.048	-6.01504
1090.398	-28.06239
1090.749	-38.08747
1091.099	25.06149
1091.449	10.02418
1091.799	-4.0097
1092.149	-28.06748
1092.499	-24.05687
1092.849	-7.01731
1093.199	-29.07003
1093.548	-4.00941
1093.898	-30.07273
1094.248	-27.06687
1094.597	-39.09867
1094.947	-36.09426
1095.296	24.05744
1095.645	-38.09612
1095.994	-24.0559
1096.343	-2.0049
1096.692	1.0026
1097.041	0
1097.39	-59.14393
1097.739	-49.12463
1098.088	-25.06493
1098.437	-19.04949
1098.785	-59.15503
1099.134	-27.0688
1099.482	-23.06218
1099.83	10.02551
1100.179	17.04387
1100.527	-33.08471
1100.875	-28.07299
1101.223	-5.01303
1101.571	-55.14904
1101.919	11.02858
1102.267	14.03881
1102.615	-6.01929
1102.962	-4.01284
1103.31	-4.01286
1103.658	-7.02246
