Data from N1 R1 sample 8_Subt2__2__11-28-36-861.txt Node

Date: Wed Sep 17 11:28:36 PDT 2025
User: uwsun
Spectrometer: HDX01956
Trigger mode: 0
Integration Time (sec): 5.000000E-1
Scans to average: 1
Nonlinearity correction enabled: true
Boxcar width: 0
Storing dark spectrum: false
XAxis mode: Wavelengths
Number of Pixels in Spectrum: 2068
>>>>>Begin Spectral Data<<<<<
194.03	-3.00871
194.578	-6.01952
195.127	-15.04818
195.676	-1.00322
196.225	-43.11565
196.773	-47.1323
197.321	-71.20096
197.87	-25.06578
198.418	-17.04499
198.966	13.03498
199.513	12.03122
200.061	-40.10491
200.609	-28.07591
201.156	-72.16493
201.704	-28.07261
202.251	-1.00272
202.798	-21.05593
203.345	40.101
203.892	-19.04942
204.438	-27.06616
204.985	-19.04659
205.532	1.00269
206.078	-49.12393
206.624	19.04881
207.17	-14.0339
207.716	-46.11694
208.262	5.01026
208.808	16.04118
209.354	-19.04846
209.899	-20.05179
210.445	-5.01286
210.99	-21.0529
211.535	-18.04384
212.08	-24.05762
212.625	-2.00513
213.17	13.0339
213.715	37.08658
214.259	-5.01203
214.804	-15.03783
215.348	24.05692
215.892	12.02989
216.436	-45.10657
216.98	-36.082
217.524	-32.07915
218.068	-10.02592
218.612	39.10102
219.155	16.03876
219.698	9.02195
220.242	-9.02277
220.785	27.06483
221.328	-12.03041
221.871	54.13951
222.414	-1.00253
222.956	-31.07633
223.499	-28.0644
224.041	-45.10624
224.583	-81.17834
225.126	-44.0999
225.668	-24.05987
226.21	11.02839
226.751	35.07948
227.293	-11.02553
227.835	-6.01505
228.376	-19.04437
228.918	-22.05609
229.459	-3.00765
230	-16.03943
230.541	-9.02122
231.082	22.05454
231.622	-63.14759
232.163	-10.02467
232.704	51.12922
233.244	-20.05083
233.784	-9.02229
234.324	18.04142
234.864	-33.07679
235.404	-32.07741
235.944	-23.05556
236.484	8.02034
237.023	-14.0338
237.563	-23.05498
238.102	0
238.641	-9.02309
239.18	-2.00481
239.719	-38.09766
240.258	-13.02998
240.797	-3.00733
241.335	-2.00496
241.874	-12.02417
242.412	59.145
242.95	-1.00247
243.488	-50.11601
244.026	4.00952
244.564	15.03164
245.102	37.08535
245.64	-30.07353
246.177	-31.07094
246.715	40.09749
247.252	-25.05831
247.789	33.06256
248.326	-30.07434
248.863	-31.07046
249.4	5.01159
249.936	49.10453
250.473	17.04102
251.009	-18.04232
251.546	55.1247
252.082	-67.15036
252.618	39.08875
253.154	-5.01232
253.69	15.03435
254.226	-8.01962
254.761	-33.0764
255.297	-48.10854
255.832	14.03398
256.367	14.03356
256.903	24.05451
257.438	-3.0072
257.972	-13.02975
258.507	-49.11614
259.042	-51.11507
259.576	54.12146
260.111	-70.16671
260.645	6.01329
261.179	-33.07966
261.713	13.02979
262.247	-6.01404
262.781	17.03672
263.315	-25.06219
263.849	18.04587
264.382	8.01878
264.915	8.01936
265.449	-41.10303
265.982	13.03018
266.515	4.01002
267.048	-41.09012
267.58	10.02208
268.113	-12.02671
268.646	-36.09051
269.178	-22.05062
269.71	21.04752
270.243	11.02608
270.775	36.09375
271.307	-31.07574
271.838	-14.03389
272.37	15.03744
272.902	9.02084
273.433	4.0091
273.965	8.01983
274.496	-37.09421
275.027	5.01271
275.558	21.05224
276.089	-4.01022
276.62	-12.03092
277.15	-36.09097
277.681	0
278.211	31.07678
278.741	-5.01142
279.272	6.01407
279.802	7.01775
280.332	-6.01453
280.861	-6.01468
281.391	16.03718
281.921	-3.00733
282.45	-5.01267
282.98	-3.00798
283.509	4.00934
284.038	40.09321
284.567	8.01907
285.096	27.06672
285.625	-78.18276
286.153	50.12136
286.682	-7.01653
287.21	-51.12539
287.739	11.02656
288.267	12.02986
288.795	-23.06148
289.323	-9.02172
289.851	41.09819
290.378	-21.04825
290.906	44.10939
291.433	22.05585
291.961	10.02343
292.488	-2.00507
293.015	-31.07554
293.542	88.22789
294.069	4.01014
294.596	-15.03759
295.122	40.09767
295.649	-39.08842
296.175	10.02459
296.702	15.03749
297.228	-14.03459
297.754	15.03459
298.28	26.06121
298.806	-20.04958
299.332	4.00921
299.857	-3.00702
300.383	-3.00772
300.908	57.14221
301.433	17.0426
301.958	-40.09493
302.483	-55.14083
303.008	30.07605
303.533	-22.05817
304.058	-54.13048
304.582	11.02663
305.107	-44.11782
305.631	31.07183
306.155	12.02867
306.679	-11.02664
307.203	9.02145
307.727	-1.00243
308.251	24.06043
308.775	54.13362
309.298	3.00742
309.822	-5.01287
310.345	-6.01475
310.868	38.09348
311.391	-8.02023
311.914	-31.08002
312.437	29.06788
312.96	-15.03644
313.482	-33.08017
314.005	-32.08224
314.527	-13.03461
315.049	40.10302
315.571	0
316.093	47.1184
316.615	-48.1193
317.137	12.02696
317.659	21.05203
318.18	-56.13847
318.702	28.06722
319.223	-25.0531
319.744	-2.00465
320.265	1.0025
320.786	5.01282
321.307	-25.06366
321.828	-22.05145
322.348	-16.03889
322.869	1.00245
323.389	10.0204
323.909	-5.01179
324.43	-20.04933
324.95	14.03298
325.47	47.11878
325.989	30.07293
326.509	-2.00464
327.029	15.0353
327.548	19.04432
328.067	-32.08043
328.587	48.12267
329.106	-57.13416
329.625	9.02395
330.144	26.06213
330.662	13.03144
331.181	15.03643
331.7	-37.08935
332.218	31.06934
332.736	5.01207
333.255	6.01457
333.773	-11.02684
334.291	58.14771
334.808	32.07425
335.326	-2.00465
335.844	22.05328
336.361	66.17269
336.879	23.05573
337.396	42.10473
337.913	15.03577
338.43	34.07895
338.947	1.00247
339.464	-15.03376
339.981	-24.05904
340.497	32.08057
341.014	36.0899
341.53	-11.02578
342.046	60.15286
342.562	11.02817
343.078	32.07744
343.594	-11.02707
344.11	68.16623
344.626	21.05438
345.141	1.00237
345.657	55.12779
346.172	33.08176
346.687	27.06387
347.202	63.14759
347.717	22.05402
348.232	60.15237
348.747	65.15376
349.261	11.0251
349.776	68.16524
350.29	30.07705
350.805	17.04318
351.319	42.10033
351.833	45.10661
352.347	67.1618
352.861	35.08455
353.374	43.10062
353.888	61.15241
354.401	31.07279
354.915	31.07242
355.428	31.07924
355.941	36.0863
356.454	-5.01158
356.967	-10.0242
357.48	16.03753
357.993	24.06062
358.505	34.08481
359.018	74.18472
359.53	28.07027
360.042	28.06489
360.554	87.21658
361.066	41.10221
361.578	74.16788
362.09	92.22263
362.602	44.10128
363.113	69.16619
363.625	67.1561
364.136	46.10427
364.647	42.10236
365.158	57.13609
365.669	51.12479
366.18	51.12311
366.691	48.1085
367.201	44.10816
367.712	71.16659
368.222	87.20461
368.733	104.23095
369.243	89.20359
369.753	42.09964
370.263	89.21865
370.773	36.08983
371.282	109.26402
371.792	120.28205
372.301	34.08429
372.811	63.16778
373.32	81.18014
373.829	49.11846
374.338	48.11
374.847	57.13505
375.356	27.06555
375.865	132.28788
376.373	91.21126
376.882	101.25844
377.39	85.20851
377.898	57.14293
378.407	47.10989
378.915	148.3277
379.423	113.26637
379.93	145.33968
380.438	95.23149
380.946	100.23642
381.453	121.29319
381.96	119.28715
382.468	119.28302
382.975	164.40178
383.482	137.31011
383.989	171.43739
384.495	221.51141
385.002	188.39626
385.509	175.417
386.015	262.52988
386.521	219.49409
387.028	230.51647
387.534	184.39379
388.04	241.5705
388.546	249.54131
389.051	254.54971
389.557	272.61453
390.063	247.54723
390.568	293.68231
391.073	259.56257
391.578	314.73854
392.084	357.77672
392.589	344.71389
393.093	377.85674
393.598	428.92464
394.103	439.979
394.607	513.13819
395.112	564.26526
395.616	609.33806
396.12	614.26894
396.624	661.39885
397.128	765.6227
397.632	825.69
398.136	913.79387
398.639	989.95705
399.143	1135.30317
399.646	1284.39018
400.15	1333.3995
400.653	1550.5819
401.156	1739.71616
401.659	2100.28131
402.162	2640.27665
402.664	3940.84264
403.167	7645.25497
403.67	22900.09256
404.172	59130.53579
404.674	63858.43483
405.176	63738.15102
405.678	63977.72923
406.18	64011.81569
406.682	63863.44694
407.184	37060.32893
407.686	14032.17303
408.187	8339.80505
408.688	5533.35234
409.19	4281.86551
409.691	3667.52938
410.192	3153.53141
410.693	2832.97864
411.194	2626.18344
411.694	2453.36752
412.195	2228.50061
412.696	2090.11779
413.196	2035.63964
413.696	2065.17364
414.196	2052.83221
414.696	1979.25238
415.196	1815.88656
415.696	1420.39865
416.196	1156.18831
416.695	974.93585
417.195	870.80672
417.694	864.54593
418.194	838.52627
418.693	783.56775
419.192	746.55382
419.691	668.39426
420.19	653.4144
420.688	705.54077
421.187	604.11492
421.685	612.2874
422.184	535.15999
422.682	382.78956
423.18	383.83434
423.678	369.80078
424.176	295.64893
424.674	323.68842
425.172	324.72811
425.669	235.55996
426.167	281.62903
426.664	226.5006
427.161	214.48133
427.659	166.39715
428.156	231.481
428.652	159.39566
429.149	174.41645
429.646	168.37105
430.143	163.38632
430.639	146.34343
431.135	140.34718
431.632	121.27645
432.128	143.34101
432.624	137.3503
433.12	120.27367
433.616	113.24848
434.111	137.32345
434.607	116.277
435.103	46.09811
435.598	126.26243
436.093	91.21251
436.588	105.23671
437.083	15.03429
437.578	63.14712
438.073	60.15096
438.568	96.23606
439.062	73.15769
439.557	49.1156
440.051	28.06388
440.546	25.05765
441.04	70.16869
441.534	46.11644
442.028	89.21428
442.522	31.07517
443.015	-17.03738
443.509	41.10043
444.002	43.10588
444.496	16.03531
444.989	47.11466
445.482	-6.01506
445.975	82.1898
446.468	26.05716
446.961	47.10318
447.454	8.01824
447.947	22.05308
448.439	71.17417
448.931	23.05346
449.424	57.14519
449.916	87.2116
450.408	52.11964
450.9	29.07096
451.392	41.10443
451.884	-24.05628
452.375	-17.04269
452.867	-14.03207
453.358	32.07398
453.849	25.05419
454.341	35.07974
454.832	-10.02204
455.323	103.25454
455.814	29.06693
456.304	0
456.795	48.11018
457.285	-15.03366
457.776	31.07123
458.266	6.0144
458.756	-30.07213
459.247	-38.09261
459.737	35.0851
460.226	80.18208
460.716	10.02414
461.206	-15.03639
461.695	17.04227
462.185	41.0977
462.674	10.02312
463.163	31.07011
463.653	32.06881
464.142	34.08271
464.63	19.04632
465.119	52.12113
465.608	60.14059
466.096	-1.0022
466.585	0
467.073	-13.03106
467.561	60.14366
468.05	33.07634
468.538	6.01477
469.026	20.0477
469.513	11.02351
470.001	35.08077
470.489	57.13536
470.976	14.03298
471.463	58.14394
471.951	21.05235
472.438	-2.00474
472.925	34.08032
473.412	-28.06883
473.899	18.04158
474.385	-19.04704
474.872	-17.04017
475.359	-4.00992
475.845	-4.00842
476.331	-21.04552
476.817	30.07317
477.303	16.03745
477.789	17.0407
478.275	2.005
478.761	-20.04807
479.247	19.04269
479.732	13.03259
480.218	72.18736
480.703	-5.01242
481.188	22.04802
481.673	-12.02794
482.158	7.01531
482.643	26.06652
483.128	19.0446
483.612	60.14267
484.097	9.02183
484.581	14.03262
485.066	65.15857
485.55	52.11519
486.034	31.06762
486.518	64.15277
487.002	-7.01717
487.486	59.14269
487.969	-14.03436
488.453	16.03995
488.936	15.03404
489.42	81.17827
489.903	33.08215
490.386	-21.04421
490.869	127.27433
491.352	35.0843
491.835	-2.00415
492.318	64.14348
492.8	56.11617
493.283	83.21007
493.765	80.19469
494.247	119.27309
494.73	75.16534
495.212	76.17898
495.694	168.38684
496.175	147.34652
496.657	166.38392
497.139	172.28711
497.62	160.3765
498.102	220.52974
498.583	182.43493
499.064	203.43868
499.545	263.57369
500.026	364.77158
500.507	347.75112
500.988	415.96632
501.469	398.9262
501.949	510.14723
502.43	558.21173
502.91	625.16212
503.39	646.41914
503.87	674.39747
504.35	731.477
504.83	838.52781
505.31	822.68423
505.79	897.7657
506.269	1002.85697
506.749	1146.03708
507.228	1285.29165
507.707	1362.22115
508.187	1492.57379
508.666	1607.82801
509.145	1713.70266
509.623	1884.83762
510.102	2066.10133
510.581	2280.20464
511.059	2401.48915
511.538	2624.71807
512.016	2889.31565
512.494	3121.32629
512.972	3408.26212
513.45	3665.01138
513.928	3985.18358
514.406	4335.0887
514.884	4859.2301
515.361	5059.49895
515.839	5515.97517
516.316	5784.23631
516.793	6280.32177
517.27	6715.86782
517.747	7051.29912
518.224	7407.71592
518.701	7872.83461
519.178	8195.59052
519.654	8400.58559
520.131	8686.08277
520.607	8730.10084
521.083	8743.95789
521.56	8820.15145
522.036	8791.98695
522.512	8850.30623
522.987	8759.10845
523.463	8570.8014
523.939	8390.74228
524.414	8217.27549
524.89	8047.2627
525.365	7802.85687
525.84	7732.07736
526.315	7558.03236
526.79	7341.59442
527.265	7088.64718
527.74	6886.91916
528.215	6708.67759
528.689	6585.33276
529.164	6398.23295
529.638	6171.3975
530.112	5974.91136
530.587	6022.30574
531.061	5670.26202
531.534	5550.28728
532.008	5447.4157
532.482	5217.11798
532.956	5059.02615
533.429	4999.71669
533.903	4788.03237
534.376	4668.15923
534.849	4465.53984
535.322	4526.69508
535.795	4275.99993
536.268	4089.11221
536.741	4035.98673
537.213	3953.79872
537.686	3793.31207
538.158	3772.81059
538.631	3522.32031
539.103	3420.88861
539.575	3287.39335
540.047	3257.71868
540.519	3087.30134
540.991	3014.43467
541.463	2858.34221
541.934	2802.97851
542.406	2671.31603
542.877	2616.96171
543.348	2546.31596
543.82	2478.33177
544.291	2398.09107
544.762	2239.12891
545.233	2245.45953
545.703	2137.77041
546.174	1996.87895
546.645	2010.0797
547.115	1953.02995
547.585	1847.74913
548.056	1812.00506
548.526	1838.87683
548.996	1709.7959
549.466	1649.8054
549.935	1570.66654
550.405	1476.2942
550.875	1513.58623
551.344	1426.50467
551.814	1364.31217
552.283	1376.18204
552.752	1313.32503
553.221	1264.10044
553.69	1211.1028
554.159	1200.35876
554.628	1118.99761
555.096	1131.31995
555.565	1028.82036
556.033	1028.99694
556.502	949.90228
556.97	952.73262
557.438	858.70031
557.906	870.72973
558.374	853.66954
558.842	828.69195
559.31	845.58999
559.777	838.74948
560.245	726.44376
560.712	762.49998
561.18	756.43444
561.647	688.3287
562.114	651.31636
562.581	687.49191
563.048	654.32032
563.514	675.50308
563.981	596.21902
564.448	637.27212
564.914	609.26056
565.381	595.2145
565.847	571.1955
566.313	522.09974
566.779	525.06993
567.245	497.05042
567.711	506.10657
568.176	451.93321
568.642	483.12071
569.108	493.11233
569.573	397.85823
570.038	420.81167
570.504	455.94781
570.969	378.88141
571.434	418.86203
571.899	400.8867
572.363	423.90152
572.828	462.97885
573.293	392.84035
573.757	416.89949
574.222	413.86109
574.686	389.83806
575.15	424.95122
575.614	434.95243
576.078	336.74733
576.542	367.7866
577.006	374.79347
577.469	366.84907
577.933	369.79088
578.396	321.72359
578.86	354.78671
579.323	319.732
579.786	307.63384
580.249	350.78008
580.712	289.67273
581.175	279.65993
581.637	262.57477
582.1	235.49499
582.563	277.56317
583.025	313.726
583.487	262.51797
583.95	239.49456
584.412	248.50203
584.874	288.67291
585.336	257.58739
585.797	258.53997
586.259	217.49298
586.721	188.43082
587.182	221.49412
587.643	208.45978
588.105	153.35547
588.566	159.32592
589.027	230.54605
589.488	210.46885
589.949	195.46198
590.41	172.33414
590.87	199.4442
591.331	223.47282
591.791	141.32215
592.252	226.51061
592.712	135.31922
593.172	192.42654
593.632	198.42944
594.092	92.20439
594.552	153.32639
595.011	61.14004
595.471	183.40595
595.931	169.37443
596.39	112.26663
596.849	108.24968
597.308	46.09871
597.768	139.35354
598.227	127.30158
598.685	97.22001
599.144	112.26191
599.603	88.20498
600.062	100.20994
600.52	104.23364
600.978	76.17926
601.437	103.23277
601.895	157.33099
602.353	64.14094
602.811	109.24422
603.269	75.17803
603.727	82.19619
604.184	45.10315
604.642	74.18143
605.099	80.18649
605.557	84.20335
606.014	39.08471
606.471	49.12313
606.928	77.17117
607.385	75.18732
607.842	51.11741
608.299	83.19337
608.755	16.03908
609.212	33.07424
609.668	75.16915
610.125	80.19206
610.581	18.04257
611.037	19.04301
611.493	17.04003
611.949	32.07837
612.405	64.13086
612.861	44.10156
613.316	50.11999
613.772	9.02084
614.227	98.23384
614.683	25.05352
615.138	39.09183
615.593	-19.04479
616.048	50.11468
616.503	-2.00491
616.958	27.0679
617.412	28.06686
617.867	25.05641
618.321	12.02508
618.776	-21.04707
619.23	-1.00237
619.684	13.02928
620.138	-36.08389
620.592	48.11646
621.046	33.07831
621.5	-5.01216
621.954	26.05786
622.407	-35.07887
622.861	23.05609
623.314	6.01371
623.768	34.08057
624.221	6.01197
624.674	9.02097
625.127	-25.05898
625.58	19.04294
626.033	-20.0444
626.485	-22.0533
626.938	47.11191
627.39	66.1538
627.843	-2.00466
628.295	-1.00233
628.747	22.0527
629.199	-17.03922
629.651	-21.04881
630.103	41.09417
630.555	-41.08815
631.006	-45.10645
631.458	-7.01663
631.909	-41.09345
632.361	-50.11748
632.812	23.05346
633.263	43.09344
633.714	14.02986
634.165	-18.04361
634.616	-5.01192
635.067	9.01997
635.518	14.03334
635.968	-11.02192
636.419	26.05704
636.869	-24.05751
637.319	14.03266
637.769	-7.0159
638.219	22.05205
638.669	-38.09161
639.119	0
639.569	27.06486
640.019	42.09698
640.468	-33.07512
640.918	-35.08411
641.367	-16.03624
641.816	4.00896
642.265	35.08174
642.714	-28.06507
643.163	17.03948
643.612	-28.06944
644.061	19.04088
644.51	-11.02549
644.958	-23.05151
645.406	5.01202
645.855	-1.00244
646.303	2.00466
646.751	19.04416
647.199	-22.0505
647.647	18.04198
648.095	-46.10669
648.543	-15.03086
648.99	12.02896
649.438	-9.021
649.885	28.06987
650.333	17.03327
650.78	10.02428
651.227	-11.02714
651.674	-15.03462
652.121	-30.07448
652.568	9.02215
653.015	-47.11789
653.461	-23.05529
653.908	-15.0348
654.354	1.0024
654.801	-29.06887
655.247	-17.03726
655.693	-1.00261
656.139	-20.0482
656.585	-7.01684
657.031	-43.10262
657.477	37.08095
657.922	-49.11326
658.368	28.0688
658.813	-29.06677
659.259	-7.0171
659.704	43.1018
660.149	-32.07474
660.594	12.02859
661.039	-37.08556
661.484	-15.03584
661.929	16.0375
662.373	-60.15286
662.818	-44.11019
663.262	-8.01948
663.707	-9.02303
664.151	-23.05659
664.595	-3.0073
665.039	-18.04501
665.483	-7.0179
665.927	1.00236
666.371	-12.02848
666.814	-39.09383
667.258	8.01936
667.701	56.11887
668.145	0
668.588	4.00995
669.031	-34.08094
669.474	-29.0703
669.917	13.0286
670.36	19.04745
670.803	-17.04141
671.245	-37.07691
671.688	14.03412
672.13	26.05889
672.573	-32.08152
673.015	7.01694
673.457	-6.01316
673.899	15.03633
674.341	-9.02181
674.783	-15.03621
675.225	-10.02475
675.666	20.04898
676.108	-29.06348
676.549	-34.08007
676.991	-26.05771
677.432	-33.06651
677.873	-43.09947
678.314	3.00716
678.755	13.03209
679.196	-27.06233
679.637	-4.00961
680.078	22.05137
680.518	-62.14465
680.959	-5.01195
681.399	0
681.839	-23.05621
682.28	-20.05001
682.72	7.01604
683.16	-25.0628
683.6	3.00685
684.039	-41.08587
684.479	-27.06717
684.919	-5.01182
685.358	-44.11055
685.798	-31.08118
686.237	-47.11333
686.676	-37.08457
687.115	12.02828
687.554	-7.01681
687.993	9.01994
688.432	-3.00687
688.871	10.02295
689.309	4.00961
689.748	-25.0525
690.186	-38.08967
690.625	-14.03305
691.063	19.04522
691.501	29.0714
691.939	24.06023
692.377	-50.12245
692.815	43.10447
693.253	-11.02625
693.69	-25.05514
694.128	-5.01216
694.565	-22.05237
695.003	26.06614
695.44	17.04018
695.877	-6.01415
696.314	-16.03386
696.751	-3.00681
697.188	9.02085
697.625	-32.0721
698.061	9.02151
698.498	-11.02604
698.934	-19.04555
699.371	-43.10207
699.807	7.01649
700.243	7.01686
700.679	-40.0899
701.115	4.00932
701.551	-5.01162
701.987	-39.08583
702.422	-15.0359
702.858	12.02855
703.294	92.2071
703.729	25.06042
704.164	-62.14953
704.599	28.06218
705.035	-7.01572
705.47	-25.06087
705.904	-28.06512
706.339	-22.05066
706.774	4.00935
707.209	-23.05373
707.643	-33.0793
708.078	3.00727
708.512	-46.11603
708.946	-14.03316
709.38	-30.07156
709.814	-22.04991
710.248	22.05348
710.682	27.06441
711.116	-14.03413
711.549	-32.08184
711.983	-7.01615
712.416	30.07065
712.85	-22.0545
713.283	-7.0165
713.716	-22.05452
714.149	-11.02544
714.582	-21.04728
715.015	-46.11328
715.448	-1.00251
715.881	12.0256
716.313	-9.02098
716.746	-3.00708
717.178	-23.05535
717.61	37.09311
718.043	-12.02955
718.475	-15.03636
718.907	12.02974
719.339	-10.02265
719.77	25.05939
720.202	-37.09278
720.634	-13.03187
721.065	3.00703
721.497	-8.01952
721.928	-38.09303
722.359	-9.02187
722.79	-39.09365
723.221	-22.0545
723.652	20.05032
724.083	-14.03141
724.514	-10.02291
724.945	-32.07498
725.375	-16.03736
725.806	-22.05408
726.236	11.02787
726.666	-10.02348
727.096	9.02183
727.526	24.06125
727.956	-16.03652
728.386	-28.06852
728.816	-34.08708
729.246	28.0684
729.675	-28.06817
730.105	-32.07814
730.534	-3.00695
730.964	-16.03971
731.393	-20.04878
731.822	-5.0127
732.251	16.0402
732.68	-30.06927
733.109	9.02201
733.537	11.02669
733.966	33.0814
734.395	6.01376
734.823	-27.05952
735.251	-50.12031
735.68	-61.15075
736.108	-32.07973
736.536	-21.04895
736.964	-36.08333
737.392	-40.09981
737.82	-11.02607
738.247	-9.02128
738.675	-16.03734
739.102	-45.11219
739.53	39.09895
739.957	8.02053
740.384	-13.03106
740.811	-40.09923
741.238	9.02188
741.665	12.02796
742.092	-109.25335
742.519	-50.12436
742.945	31.07441
743.372	-28.06941
743.798	-29.07392
744.225	-24.05648
744.651	13.03213
745.077	35.08589
745.503	-25.06001
745.929	42.10018
746.355	8.01922
746.781	-33.08071
747.207	-51.12144
747.632	-6.01481
748.058	21.05233
748.483	14.03179
748.908	-11.02722
749.334	21.05115
749.759	53.12406
750.184	13.03103
750.609	18.04349
751.033	-28.06494
751.458	-26.05762
751.883	-9.02194
752.307	-6.014
752.732	21.05311
753.156	6.0146
753.58	3.00699
754.005	-32.07985
754.429	0
754.853	31.0761
755.277	9.02115
755.7	33.08059
756.124	-16.03952
756.548	-61.14424
756.971	31.07441
757.394	-14.03548
757.818	7.01787
758.241	-11.02775
758.664	-14.03509
759.087	-2.00447
759.51	-29.07106
759.933	33.07864
760.356	21.05353
760.778	-10.02436
761.201	7.01668
761.623	-46.10896
762.046	-14.03235
762.468	13.03065
762.89	-5.01205
763.312	29.0699
763.734	6.0143
764.156	48.1162
764.578	2.00449
765	40.09563
765.421	-11.02787
765.843	7.01809
766.264	-24.05628
766.686	-19.04666
767.107	-32.07709
767.528	29.07345
767.949	14.035
768.37	29.0708
768.791	-2.00473
769.212	-17.04255
769.632	30.06914
770.053	-26.06738
770.473	-29.06929
770.894	-25.06085
771.314	-24.05599
771.734	4.00919
772.154	3.00754
772.575	6.0136
772.994	-52.1172
773.414	-12.02814
773.834	-17.04186
774.254	29.06934
774.673	9.02173
775.093	-8.01972
775.512	14.03406
775.931	12.02999
776.351	46.1124
776.77	-24.05849
777.189	26.06059
777.607	-18.04548
778.026	-2.00492
778.445	-34.08582
778.864	6.01494
779.282	-61.14463
779.701	12.02958
780.119	6.01499
780.537	-14.03439
780.955	0
781.373	-22.0537
781.791	23.0513
782.209	-32.07127
782.627	-27.07047
783.045	-56.12642
783.462	-4.01007
783.88	-12.03072
784.297	-20.04974
784.715	0
785.132	16.03771
785.549	6.01473
785.966	1.00248
786.383	31.07506
786.8	18.04087
787.217	43.10046
787.633	-3.00745
788.05	6.01365
788.466	-11.02513
788.883	-9.02285
789.299	4.00931
789.715	-19.04576
790.131	-24.05893
790.547	-13.03189
790.963	-7.01705
791.379	-15.03741
791.795	-47.10483
792.21	2.00455
792.626	-7.01615
793.041	-11.02663
793.457	-11.02653
793.872	-49.1129
794.287	7.01666
794.702	-42.10049
795.117	8.01959
795.532	4.00993
795.947	-33.07707
796.362	-42.09675
796.776	-27.06087
797.191	50.11917
797.605	-15.03511
798.02	9.02139
798.434	27.0584
798.848	27.06587
799.262	-46.11291
799.676	13.03098
800.09	29.06945
800.504	-6.01419
800.918	4.00896
801.331	-67.17006
801.745	-43.09674
802.158	-1.00242
802.572	43.10117
802.985	-15.03518
803.398	-1.00232
803.811	-11.02713
804.224	-22.05304
804.637	-29.06828
805.05	20.04467
805.462	-6.01434
805.875	-25.06408
806.288	-6.01428
806.7	-31.07582
807.112	-1.00224
807.525	-47.11243
807.937	-26.06339
808.349	10.02426
808.761	21.05054
809.173	5.01189
809.584	-1.0024
809.996	-17.04076
810.408	8.02045
810.819	-27.06246
811.231	45.11736
811.642	22.0534
812.053	33.0784
812.464	-45.10497
812.875	-19.04797
813.286	21.05326
813.697	-15.03334
814.108	-28.06676
814.519	52.11278
814.929	16.03963
815.34	-38.0896
815.75	-2.00502
816.16	-21.0506
816.571	-24.06101
816.981	-27.06164
817.391	-18.04209
817.801	-25.06124
818.211	-26.06054
818.62	-14.03318
819.03	-18.04305
819.44	-27.06799
819.849	-35.08567
820.259	-34.08453
820.668	3.00723
821.077	3.00735
821.486	-35.08154
821.895	-13.0309
822.304	-11.0285
822.713	-24.05527
823.122	-7.01703
823.531	-52.11936
823.939	-30.07205
824.348	-23.05434
824.756	-2.00486
825.164	-16.03917
825.573	-30.07393
825.981	-34.08218
826.389	-31.07622
826.797	52.12829
827.205	12.02696
827.612	-22.0528
828.02	-51.11704
828.428	-22.05482
828.835	-7.01818
829.243	-10.02305
829.65	-38.09362
830.057	-31.07328
830.464	-13.03136
830.871	24.05593
831.278	-13.03069
831.685	-39.08471
832.092	-17.04021
832.499	-19.04073
832.905	2.0049
833.312	-42.09187
833.718	37.08992
834.124	47.10361
834.531	-19.04633
834.937	26.06504
835.343	-29.0678
835.749	-6.01341
836.155	-11.02819
836.561	-49.11864
836.966	-14.03325
837.372	4.00986
837.777	-42.10316
838.183	-14.03007
838.588	39.09432
838.993	15.03546
839.399	5.01195
839.804	-52.12493
840.209	7.01758
840.613	-34.07368
841.018	-15.03689
841.423	17.04244
841.828	-5.01241
842.232	-17.04034
842.637	30.06919
843.041	0
843.445	-24.05841
843.849	-17.0413
844.253	-46.10677
844.657	17.04189
845.061	51.11323
845.465	-6.01412
845.869	6.01351
846.272	-19.04545
846.676	-41.0953
847.079	-2.005
847.483	-8.01939
847.886	18.04198
848.289	21.05533
848.692	-58.14352
849.095	0
849.498	16.03873
849.901	-12.02649
850.304	8.01851
850.707	-25.06212
851.109	-20.04914
851.512	21.05016
851.914	-58.14509
852.316	16.03978
852.718	14.03614
853.121	-11.02629
853.523	-43.09761
853.925	4.01029
854.326	-23.05665
854.728	22.05515
855.13	36.09097
855.531	36.08323
855.933	-11.02542
856.334	-14.03438
856.736	23.05021
857.137	39.08817
857.538	12.02955
857.939	19.04623
858.34	-8.01875
858.741	0
859.142	-35.0817
859.542	-43.11241
859.943	-8.01935
860.343	0
860.744	-4.00949
861.144	43.10211
861.544	5.01185
861.945	-30.07475
862.345	-4.00946
862.745	8.01947
863.145	2.00454
863.544	-10.02474
863.944	6.01373
864.344	-29.06942
864.743	18.04318
865.143	14.03529
865.542	-88.19859
865.941	5.01207
866.34	-19.04371
866.74	-9.02366
867.139	-27.06407
867.537	-41.10125
867.936	14.03279
868.335	-33.082
868.734	-24.06013
869.132	-15.03341
869.531	39.08964
869.929	-17.03789
870.327	-49.1151
870.726	-38.09171
871.124	9.02016
871.522	12.02957
871.92	28.06676
872.318	-42.09972
872.715	4.00946
873.113	-10.02356
873.511	5.01205
873.908	-28.0704
874.306	-15.03672
874.703	5.01202
875.1	-49.12118
875.497	-40.09336
875.894	-2.00486
876.291	-32.07694
876.688	-39.09881
877.085	-45.10484
877.482	-2.00487
877.878	39.09179
878.275	9.02228
878.671	-23.04806
879.068	11.02569
879.464	1.00234
879.86	-25.0576
880.256	-11.02596
880.652	-32.07962
881.048	5.01188
881.444	-61.14021
881.84	-35.08694
882.236	-8.01956
882.631	9.02155
883.027	0
883.422	-85.21329
883.817	-20.04949
884.213	-19.04764
884.608	4.00975
885.003	-39.09108
885.398	-40.09818
885.793	-32.07817
886.188	-54.13151
886.582	-18.04461
886.977	-29.06658
887.371	-32.07854
887.766	-25.06112
888.16	-28.06699
888.554	14.03325
888.949	-6.01465
889.343	-21.04968
889.737	-23.06066
890.131	-19.04651
890.525	3.00752
890.918	-35.08608
891.312	-8.01837
891.706	-24.06144
892.099	-11.02717
892.492	-13.02693
892.886	-11.0261
893.279	-12.02972
893.672	-11.0275
894.065	2.00487
894.458	-55.13432
894.851	-38.09029
895.244	-53.13285
895.637	6.01405
896.029	15.03574
896.422	-20.04695
896.814	-20.04829
897.206	19.04437
897.599	57.13515
897.991	30.07046
898.383	-4.00919
898.775	61.13318
899.167	-51.11831
899.559	-15.03665
899.951	-64.14649
900.342	-23.05651
900.734	10.02469
901.125	-16.04069
901.517	-30.07205
901.908	-20.04589
902.299	-29.06945
902.69	42.09617
903.082	34.07932
903.473	17.04003
903.863	7.01724
904.254	10.02272
904.645	-24.0574
905.036	7.01678
905.426	-13.02837
905.817	-72.17253
906.207	-73.16894
906.597	-2.00458
906.987	-18.04513
907.378	-34.08462
907.768	-33.08583
908.158	-66.15767
908.547	37.09385
908.937	-26.06431
909.327	-1.00235
909.717	-35.08538
910.106	-17.0395
910.495	-46.11106
910.885	23.05655
911.274	-12.02914
911.663	-16.03918
912.052	-41.09766
912.441	0
912.83	-51.11347
913.219	20.05056
913.608	35.08299
913.997	-4.00985
914.385	52.11912
914.774	-42.09972
915.162	26.06049
915.55	-9.02096
915.939	-7.01734
916.327	6.01439
916.715	34.08515
917.103	-18.04231
917.491	-2.00478
917.878	-8.01905
918.266	-25.06307
918.654	-9.02259
919.041	-6.01548
919.429	3.00685
919.816	16.03923
920.203	-11.0262
920.591	3.00723
920.978	35.08254
921.365	12.03073
921.752	-60.13783
922.139	22.04584
922.525	-26.06111
922.912	14.03287
923.299	-19.04609
923.685	-30.07583
924.072	-84.18545
924.458	-9.02179
924.844	-21.05067
925.231	15.03332
925.617	26.06476
926.003	-23.05717
926.389	-15.03684
926.774	-35.08637
927.16	-4.00962
927.546	6.01514
927.931	-15.03617
928.317	-14.031
928.702	-12.02739
929.088	25.05838
929.473	-3.00749
929.858	11.02625
930.243	20.04688
930.628	3.00716
931.013	-10.02414
931.398	7.01524
931.783	-33.08409
932.167	41.09759
932.552	9.02178
932.937	1.00239
933.321	54.13151
933.705	-48.11712
934.09	-8.01922
934.474	-24.05482
934.858	-2.00506
935.242	-26.05836
935.626	-11.02759
936.009	13.034
936.393	37.09228
936.777	-13.03267
937.16	1.00255
937.544	-20.04495
937.927	-36.08993
938.311	39.09083
938.694	29.07457
939.077	-14.03255
939.46	-64.15055
939.843	-20.03922
940.226	-2.00496
940.609	42.09366
940.991	-57.14148
941.374	-2.00478
941.757	8.01902
942.139	-27.05917
942.522	-4.00909
942.904	-13.03036
943.286	-1.00246
943.668	47.11883
944.05	-32.077
944.432	-15.03584
944.814	-21.04979
945.196	-61.1472
945.578	-15.03529
945.959	-34.0767
946.341	-36.08445
946.722	-4.00903
947.104	12.02772
947.485	-1.00225
947.866	14.03449
948.247	27.06655
948.628	-71.16652
949.009	-33.08266
949.39	-15.03606
949.771	-27.05945
950.152	-7.01671
950.532	8.01965
950.913	-7.01634
951.293	12.03187
951.674	-15.03525
952.054	19.04647
952.434	26.06244
952.814	-20.04563
953.194	-22.05543
953.574	-7.01664
953.954	-60.13789
954.334	20.04869
954.714	3.00712
955.093	31.07339
955.473	9.02208
955.853	-20.05057
956.232	-17.04551
956.611	-31.07134
956.99	-3.00736
957.37	-11.02708
957.749	-57.13076
958.128	6.01477
958.506	-13.03296
958.885	-22.0539
959.264	15.03606
959.643	36.07911
960.021	11.0266
960.4	-31.06814
960.778	-45.10657
961.156	-42.10252
961.535	-15.0335
961.913	32.07239
962.291	11.02777
962.669	-25.06217
963.047	7.01744
963.424	56.13953
963.802	-31.07455
964.18	-62.15128
964.557	-34.07569
964.935	0
965.312	-7.01787
965.69	-50.12131
966.067	-23.0538
966.444	-48.11331
966.821	-23.05796
967.198	-13.0302
967.575	-1.00236
967.952	1.00227
968.329	-2.00475
968.705	52.1069
969.082	28.07053
969.458	-12.02838
969.835	10.02352
970.211	-2.00505
970.587	-14.03398
970.963	-40.09945
971.339	13.03314
971.715	41.09879
972.091	8.01904
972.467	-40.09592
972.843	1.00244
973.219	-15.03455
973.594	-36.09226
973.97	-69.15638
974.345	-2.00466
974.721	-58.13521
975.096	22.05181
975.471	-21.04813
975.846	-28.06491
976.221	-42.10457
976.596	24.05648
976.971	13.03129
977.346	-35.07852
977.72	0
978.095	-32.08077
978.469	-11.02531
978.844	-12.02913
979.218	-37.08797
979.593	-13.03004
979.967	-54.12608
980.341	-39.08788
980.715	19.04644
981.089	-9.02187
981.463	-24.05347
981.837	36.0858
982.21	0
982.584	17.03983
982.957	-5.01221
983.331	-1.00225
983.704	17.04091
984.078	-68.16418
984.451	-42.10022
984.824	-3.00714
985.197	-52.12141
985.57	-32.07694
985.943	-12.02819
986.316	-32.07521
986.688	13.03018
987.061	18.04079
987.434	-5.01287
987.806	-44.10249
988.179	-85.19624
988.551	23.05609
988.923	-16.03803
989.295	-17.04105
989.667	-19.04484
990.039	38.09206
990.411	-73.16181
990.783	-31.06825
991.155	-54.12762
991.527	-16.03745
991.898	2.00486
992.27	-9.02186
992.641	-9.02177
993.012	-28.06218
993.384	-17.03911
993.755	-22.05504
994.126	-1.00235
994.497	-32.07659
994.868	-10.02191
995.239	-44.1037
995.61	-18.04415
995.98	30.06999
996.351	-34.0828
996.722	7.01586
997.092	-35.08119
997.462	-21.04827
997.833	-27.06154
998.203	-33.07661
998.573	-6.01457
998.943	-13.02971
999.313	-11.02573
999.683	-21.04916
1000.053	-73.16032
1000.423	-42.09872
1000.792	-42.10526
1001.162	-42.10014
1001.531	15.0358
1001.901	-33.07975
1002.27	-28.05925
1002.639	-37.09161
1003.009	-33.07613
1003.378	26.06438
1003.747	-15.03408
1004.116	-55.12834
1004.485	-19.04402
1004.853	-83.20399
1005.222	-45.10875
1005.591	-33.07588
1005.959	-1.00218
1006.328	-47.10344
1006.696	-64.15043
1007.064	-54.13161
1007.433	-14.03369
1007.801	-17.03975
1008.169	-26.06323
1008.537	-1.00213
1008.905	-39.08914
1009.273	-13.0309
1009.64	-24.05643
1010.008	1.0023
1010.375	-40.09277
1010.743	-66.14388
1011.11	14.03261
1011.478	35.08401
1011.845	-26.05894
1012.212	18.03964
1012.579	-5.01192
1012.946	-22.05013
1013.313	-8.01823
1013.68	-28.06055
1014.047	-19.0439
1014.414	-35.08022
1014.78	-19.04613
1015.147	-34.07892
1015.513	-42.09864
1015.88	29.07096
1016.246	-20.04728
1016.612	-5.01093
1016.978	34.08069
1017.344	-1.0024
1017.71	-10.02344
1018.076	-46.1044
1018.442	0
1018.808	29.07061
1019.174	-21.0509
1019.539	-77.16554
1019.905	-43.09939
1020.27	-17.04065
1020.636	-22.0504
1021.001	7.01623
1021.366	-40.09409
1021.731	48.1206
1022.096	-21.05213
1022.461	13.02973
1022.826	7.01619
1023.191	-17.04352
1023.556	-32.07236
1023.92	-27.06387
1024.285	-46.1082
1024.649	-23.05437
1025.014	-42.10018
1025.378	1.00245
1025.742	1.00238
1026.107	-5.01085
1026.471	8.01784
1026.835	-34.08212
1027.199	-41.09642
1027.562	-73.1641
1027.926	-31.07322
1028.29	-8.01968
1028.654	-15.03318
1029.017	21.04991
1029.381	-3.00696
1029.744	-25.06219
1030.107	-17.03893
1030.471	-16.03736
1030.834	-62.1351
1031.197	9.02087
1031.56	13.02933
1031.923	-32.08098
1032.286	30.06751
1032.648	-10.02277
1033.011	13.02915
1033.374	3.00671
1033.736	-25.06428
1034.099	19.04467
1034.461	-12.02973
1034.823	-3.00728
1035.185	-35.08503
1035.548	27.06355
1035.91	-48.11181
1036.272	-23.05098
1036.634	17.04004
1036.995	-47.1066
1037.357	-4.00948
1037.719	7.01647
1038.08	40.09181
1038.442	-24.05513
1038.803	-45.10339
1039.165	-34.08321
1039.526	9.021
1039.887	-17.03936
1040.248	22.05324
1040.609	-46.10959
1040.97	-22.05201
1041.331	1.00247
1041.692	23.05261
1042.053	-42.09218
1042.413	-20.04476
1042.774	15.03525
1043.134	-9.02041
1043.495	-50.12282
1043.855	-5.01188
1044.215	5.01192
1044.576	-49.11519
1044.936	21.04583
1045.296	-12.02904
1045.656	-38.08973
1046.016	-30.06988
1046.375	-5.01173
1046.735	-17.03801
1047.095	-2.00452
1047.454	1.002
1047.814	-35.08193
1048.173	-20.04554
1048.533	-12.02654
1048.892	-28.06563
1049.251	-26.06297
1049.61	-32.0768
1049.969	-23.05234
1050.328	-16.0334
1050.687	-38.08935
1051.046	11.02571
1051.405	-60.14454
1051.763	-20.04506
1052.122	-33.08002
1052.48	-13.03101
1052.839	19.04376
1053.197	-21.04781
1053.555	-38.08196
1053.914	17.0399
1054.272	-46.1058
1054.63	-32.07636
1054.988	-1.00232
1055.345	-45.09233
1055.703	23.05333
1056.061	23.0579
1056.419	-3.00768
1056.776	-70.16312
1057.134	-68.15075
1057.491	-9.02187
1057.848	11.02626
1058.206	-79.17882
1058.563	-14.02963
1058.92	18.03957
1059.277	10.02381
1059.634	-17.03807
1059.991	-3.00696
1060.348	-13.02849
1060.704	44.10294
1061.061	-7.01535
1061.418	4.00938
1061.774	-6.01435
1062.131	-14.03668
1062.487	-78.17739
1062.843	19.04564
1063.199	10.02404
1063.555	-28.06355
1063.911	-36.08803
1064.267	43.08335
1064.623	5.01188
1064.979	-91.20338
1065.335	31.07031
1065.691	-58.13345
1066.046	27.05645
1066.402	-46.10075
1066.757	-15.03681
1067.112	-12.02838
1067.468	29.06671
1067.823	-65.14935
1068.178	-19.0442
1068.533	-10.02345
1068.888	-5.01147
1069.243	-46.11081
1069.598	-43.10101
1069.952	56.12291
1070.307	-28.06783
1070.662	19.044
1071.016	49.10625
1071.371	-45.10008
1071.725	-22.05046
1072.079	20.04639
1072.434	5.01178
1072.788	-37.08433
1073.142	17.04035
1073.496	-29.06655
1073.85	-36.08078
1074.203	-7.01645
1074.557	13.034
1074.911	2.00456
1075.265	1.00224
1075.618	14.03298
1075.971	-50.11569
1076.325	-5.01244
1076.678	-41.09114
1077.031	-48.10309
1077.385	-24.05074
1077.738	-27.05875
1078.091	-38.08474
1078.444	-49.10911
1078.796	-35.0842
1079.149	-26.06304
1079.502	-19.04383
1079.855	-47.10682
1080.207	-1.00237
1080.56	2.00505
1080.912	-25.05893
1081.264	45.10422
1081.617	-25.05944
1081.969	-8.01972
1082.321	23.0538
1082.673	-14.03141
1083.025	-39.08929
1083.377	198.42998
1083.728	25.05553
1084.08	-77.18735
1084.432	-27.0629
1084.783	-46.10249
1085.135	14.03407
1085.486	-50.1121
1085.838	-10.02396
1086.189	-3.00711
1086.54	12.02743
1086.891	36.0895
1087.242	51.12116
1087.593	-47.10963
1087.944	24.05254
1088.295	-31.06797
1088.646	20.04765
1088.996	-2.00469
1089.347	-35.08299
1089.698	3.00693
1090.048	-2.00501
1090.398	-16.03556
1090.749	-42.09675
1091.099	-21.05209
1091.449	-1.00242
1091.799	-8.01941
1092.149	-20.04812
1092.499	-20.04736
1092.849	-19.04708
1093.199	-19.0458
1093.548	-33.07803
1093.898	3.00723
1094.248	-21.05195
1094.597	0
1094.947	-8.02085
1095.296	2.00481
1095.645	0
1095.994	19.04388
1096.343	-2.0049
1096.692	7.01818
1097.041	5.01341
1097.39	-18.04357
1097.739	5.0126
1098.088	-17.04409
1098.437	21.05432
1098.785	-47.12325
1099.134	-42.1073
1099.482	1.00269
1099.83	36.09142
1100.179	17.04387
1100.527	-29.07439
1100.875	-27.07037
1101.223	-10.02609
1101.571	-64.17368
1101.919	13.03377
1102.267	-3.00834
1102.615	-4.01286
1102.962	-3.00963
1103.31	-6.01929
1103.658	-9.02889
