Data from N1 R1 sample 12_Subt2__3__11-26-43-875.txt Node

Date: Wed Sep 17 11:26:43 PDT 2025
User: uwsun
Spectrometer: HDX01956
Trigger mode: 0
Integration Time (sec): 5.000000E-1
Scans to average: 1
Nonlinearity correction enabled: true
Boxcar width: 0
Storing dark spectrum: false
XAxis mode: Wavelengths
Number of Pixels in Spectrum: 2068
>>>>>Begin Spectral Data<<<<<
194.03	-6.01743
194.578	1.00325
195.127	-3.00962
195.676	-5.0161
196.225	-25.06704
196.773	-9.02519
197.321	-12.03366
197.87	7.01832
198.418	27.07092
198.966	14.03766
199.513	44.11383
200.061	-4.01043
200.609	16.04307
201.156	-18.04079
201.704	5.01289
202.251	30.08118
202.798	8.0212
203.345	22.05573
203.892	16.04136
204.438	-8.01953
204.985	25.06081
205.532	-23.06212
206.078	-10.02512
206.624	54.13786
207.17	54.1291
207.716	15.03772
208.262	-1.00206
208.808	24.06168
209.354	14.0355
209.899	-3.00775
210.445	-6.01543
210.99	25.06246
211.535	57.13687
212.08	-13.03114
212.625	1.00256
213.17	46.11929
213.715	19.04462
214.259	34.08122
214.804	-30.07586
215.348	31.07342
215.892	26.0646
216.436	-17.04004
216.98	-8.01812
217.524	2.00492
218.068	9.02326
218.612	51.13183
219.155	25.06046
219.698	31.07529
220.242	-10.02531
220.785	7.01687
221.328	0
221.871	36.0933
222.414	56.14019
222.956	-58.14352
223.499	-32.07366
224.041	-45.10624
224.583	-27.05877
225.126	-11.02481
225.668	-12.02987
226.21	33.08486
226.751	22.05009
227.293	4.00925
227.835	5.01251
228.376	2.00465
228.918	-19.04841
229.459	14.03558
230	22.05384
230.541	-5.01178
231.082	34.0841
231.622	-13.03016
232.163	-20.04943
232.704	13.03316
233.244	7.0177
233.784	-39.09712
234.324	48.10978
234.864	3.00693
235.404	-6.01444
235.944	4.00961
236.484	12.0305
237.023	-13.03138
237.563	17.04032
238.102	31.07449
238.641	-13.03337
239.18	38.0906
239.719	21.05341
240.258	5.01149
240.797	19.04623
241.335	-7.01739
241.874	9.01804
242.412	39.0962
242.95	16.03943
243.488	-56.13008
244.026	-8.01909
244.564	-21.04464
245.102	60.13778
245.64	-4.00976
246.177	-29.06634
246.715	32.07811
247.252	4.00928
247.789	8.01526
248.326	30.07353
248.863	0
249.4	28.06463
249.936	71.15074
250.473	26.06263
251.009	-40.09446
251.546	24.05476
252.082	-8.01774
252.618	0
253.154	6.01475
253.69	7.01606
254.226	57.13812
254.761	48.10934
255.297	-36.08121
255.832	42.10141
256.367	22.05266
256.903	32.07257
257.438	40.09515
257.972	15.03413
258.507	1.00235
259.042	-4.00894
259.576	28.06332
260.111	-25.05902
260.645	33.07266
261.179	46.10938
261.713	35.07984
262.247	-3.00701
262.781	4.00866
263.315	-5.01239
263.849	18.04587
264.382	45.10488
264.915	25.0603
265.449	-22.0551
265.982	44.10152
266.515	27.06736
267.048	-38.08347
267.58	-7.01551
268.113	-15.03341
268.646	-16.04008
269.178	-24.05524
269.71	94.20952
270.243	68.15946
270.775	49.12731
271.307	-3.00729
271.838	57.13614
272.37	24.0598
272.902	20.04622
273.433	49.11051
273.965	36.08879
274.496	-26.06607
275.027	57.14354
275.558	-1.0025
276.089	32.08126
276.62	-3.00772
277.15	22.05502
277.681	-20.04436
278.211	17.04221
278.741	25.05675
279.272	5.01173
279.802	19.04809
280.332	4.00967
280.861	-10.02449
281.391	27.06261
281.921	9.02196
282.45	20.05045
282.98	53.13959
283.509	56.12941
284.038	86.19859
284.567	31.07359
285.096	14.03468
285.625	-28.06496
286.153	61.14775
286.682	-15.03548
287.21	-5.01219
287.739	17.04101
288.267	11.02737
288.795	-3.00799
289.323	5.01203
289.851	12.0289
290.378	-8.01833
290.906	14.035
291.433	6.01527
291.961	54.12544
292.488	-4.01015
293.015	32.07706
293.542	70.18184
294.069	37.09328
294.596	-4.01
295.122	43.10494
295.649	-6.01351
296.175	35.08567
296.702	72.17809
297.228	36.08813
297.754	5.01155
298.28	70.16338
298.806	7.01727
299.332	26.05961
299.857	26.06047
300.383	-17.04384
300.908	20.05023
301.433	82.20305
301.958	15.03522
302.483	-5.01269
303.008	77.19356
303.533	-12.03168
304.058	-9.02156
304.582	34.08197
305.107	11.02919
305.631	43.09939
306.155	20.0477
306.679	30.07211
307.203	11.0262
307.727	-8.0195
308.251	19.04788
308.775	81.19944
309.298	32.07875
309.822	0
310.345	53.12891
310.868	5.01237
311.391	73.18192
311.914	57.14488
312.437	39.09111
312.96	38.0914
313.482	18.04331
314.005	-15.03844
314.527	18.04767
315.049	55.14128
315.571	48.11044
316.093	22.05567
316.615	-4.00986
317.137	65.14443
317.659	57.14029
318.18	10.02443
318.702	76.18079
319.223	13.02738
319.744	52.1196
320.265	44.10931
320.786	49.12463
321.307	23.05807
321.828	66.15167
322.348	35.08427
322.869	63.15277
323.389	103.20568
323.909	23.05394
324.43	58.14099
324.95	47.11002
325.47	82.20595
325.989	72.17364
326.509	55.12607
327.029	97.22465
327.548	33.07676
328.067	76.1873
328.587	109.27557
329.106	47.10838
329.625	54.14264
330.144	99.23328
330.662	93.22153
331.181	121.288
331.7	26.06204
332.218	93.20536
332.736	104.24644
333.255	97.23159
333.773	41.09909
334.291	86.21793
334.808	64.14755
335.326	71.16281
335.844	82.19634
336.361	129.33389
336.879	88.21062
337.396	104.2564
337.913	61.14419
338.43	84.19312
338.947	93.22552
339.464	43.09563
339.981	85.20488
340.497	85.21198
341.014	72.17862
341.53	40.09281
342.046	141.35406
342.562	111.27923
343.078	116.27626
343.594	92.22213
344.11	134.32353
344.626	130.33024
345.141	128.29615
345.657	126.28863
346.172	144.34951
346.687	59.1387
347.202	157.36101
347.717	122.294
348.232	107.26946
348.747	106.24876
349.261	120.26781
349.776	169.40286
350.29	165.41372
350.805	148.36715
351.319	111.26166
351.833	164.37959
352.347	150.35654
352.861	144.3407
353.374	99.2291
353.888	178.43526
354.401	135.31055
354.915	176.39943
355.428	166.4142
355.941	126.29684
356.454	129.29069
356.967	81.19265
357.48	116.26679
357.993	130.32214
358.505	93.22949
359.018	217.52756
359.53	193.46992
360.042	211.47118
360.554	174.42627
361.066	214.51666
361.578	226.49685
362.09	194.46041
362.602	191.4267
363.113	190.44709
363.625	227.51214
364.136	165.36496
364.647	167.39748
365.158	190.44204
365.669	199.47346
366.18	196.46013
366.691	175.3853
367.201	226.53676
367.712	206.47055
368.222	264.59938
368.733	180.39339
369.243	153.34548
369.753	255.58
370.263	234.55939
370.773	191.46314
371.282	231.54662
371.792	254.58135
372.301	188.45287
372.811	242.62514
373.32	266.56879
373.829	240.55923
374.338	249.54752
374.847	247.56363
375.356	257.59683
375.865	298.62699
376.373	297.66128
376.882	303.7476
377.39	320.75059
377.898	296.71001
378.407	325.71822
378.915	396.83134
379.423	337.75965
379.93	414.91849
380.438	377.86991
380.946	400.89039
381.453	399.91589
381.96	523.16282
382.468	460.01978
382.975	526.19921
383.482	522.08672
383.989	551.31191
384.495	622.32224
385.002	600.1485
385.509	665.43246
386.015	754.35217
386.521	722.45913
387.028	763.52343
387.534	723.36539
388.04	809.7012
388.546	838.59186
389.051	945.742
389.557	905.77813
390.063	937.7755
390.568	1028.04178
391.073	1036.87731
391.578	1178.29814
392.084	1176.11212
392.589	1270.09434
393.093	1388.50588
393.598	1472.47372
394.103	1591.70605
394.607	1794.93714
395.112	1813.03685
395.616	1973.11754
396.12	2105.95028
396.624	2424.23783
397.128	2579.40798
397.632	2833.34259
398.136	3072.23072
398.639	3395.32035
399.143	3910.53139
399.646	4340.02087
400.15	4794.64627
400.653	5458.15658
401.156	6266.75597
401.659	7239.12054
402.162	9338.12859
402.664	14418.58193
403.167	29013.59843
403.67	59542.4126
404.172	63919.58413
404.674	63858.43483
405.176	63738.15102
405.678	63977.72923
406.18	64011.81569
406.682	63863.44694
407.184	63926.60148
407.686	45135.79973
408.187	26922.25384
408.688	18119.57135
409.19	14271.24449
409.691	11937.39525
410.192	10327.7114
410.693	9326.07884
411.194	8705.97352
411.694	8221.52646
412.195	7534.35125
412.696	7007.89616
413.196	6871.32407
413.696	7014.99077
414.196	6888.55107
414.696	6502.26137
415.196	5879.08623
415.696	4642.49942
416.196	3662.22522
416.695	3189.35787
417.195	2982.47832
417.694	2939.73062
418.194	2665.79032
418.693	2541.1381
419.192	2470.26564
419.691	2457.1901
420.19	2369.32008
420.688	2231.34731
421.187	2135.51815
421.685	1900.8941
422.184	1633.72492
422.682	1449.28767
423.18	1316.29979
423.678	1178.11465
424.176	1052.94499
424.674	978.78724
425.172	911.79833
425.669	889.84825
426.167	834.65192
426.664	760.49394
427.161	689.39649
427.659	677.45833
428.156	645.21783
428.652	545.25781
429.149	548.21521
429.646	521.06369
430.143	507.11926
430.639	446.98741
431.135	458.06701
431.632	422.90544
432.128	417.94186
432.624	419.01548
433.12	398.85653
433.616	368.76574
434.111	387.86913
434.607	331.75771
435.103	304.612
435.598	321.63953
436.093	282.63374
436.588	285.61877
437.083	251.54635
437.578	263.58996
438.073	267.64667
438.568	278.66049
439.062	257.53323
439.557	166.3827
440.051	190.41929
440.546	192.42796
441.04	179.42244
441.534	170.4208
442.028	253.5901
442.522	179.42195
443.015	125.26666
443.509	201.47766
444.002	162.39009
444.496	132.28422
444.989	160.38206
445.482	189.45777
445.975	170.3866
446.468	182.38698
446.961	125.2699
447.454	151.33427
447.947	132.31183
448.439	193.46271
448.931	208.46573
449.424	167.41707
449.916	148.35584
450.408	163.3667
450.9	76.18433
451.392	124.3112
451.884	100.2288
452.375	80.19737
452.867	101.22601
453.358	145.32768
453.849	103.21953
454.341	123.27524
454.832	106.22794
455.323	170.41493
455.814	142.32031
456.304	100.23008
456.795	111.25156
457.285	62.13694
457.776	115.25978
458.266	71.16828
458.756	72.16976
459.247	126.29765
459.737	110.26368
460.226	154.34525
460.716	109.25814
461.206	94.22335
461.695	74.1821
462.185	118.27702
462.674	95.21591
463.163	110.24478
463.653	111.23463
464.142	100.24026
464.63	94.22593
465.119	102.23525
465.608	157.36087
466.096	69.14975
466.585	52.11898
467.073	58.1367
467.561	30.07224
468.05	98.22377
468.538	98.23706
469.026	78.18398
469.513	-8.01717
470.001	105.23893
470.489	116.27233
470.976	109.25204
471.463	76.18799
471.951	74.18271
472.438	73.17068
472.925	43.1014
473.412	39.09468
473.899	83.18925
474.385	25.0614
474.872	34.07954
475.359	73.17848
475.845	44.0916
476.331	17.03655
476.817	61.14792
477.303	38.08855
477.789	38.0906
478.275	43.10662
478.761	18.04295
479.247	54.12047
479.732	36.08986
480.218	59.15387
480.703	-8.01988
481.188	55.11921
481.673	50.115
482.158	6.01312
482.643	101.25499
483.128	48.11203
483.612	26.06223
484.097	13.03151
484.581	51.11798
485.066	79.19222
485.55	29.06455
486.034	13.02847
486.518	49.1173
487.002	0
487.486	5.01222
487.969	15.03662
488.453	19.04742
488.936	7.01591
489.42	36.07998
489.903	-28.07048
490.386	-80.17062
490.869	101.21939
491.352	-12.02916
491.835	-67.14107
492.318	-29.06626
492.8	-13.02738
493.283	-13.03346
493.765	-3.00741
494.247	8.01877
494.73	7.01565
495.212	12.02861
495.694	-11.02623
496.175	-2.00485
496.657	10.02384
497.139	2.00349
497.62	14.03388
498.102	7.01753
498.583	-30.07459
499.064	19.04268
499.545	-15.03464
500.026	-4.00916
500.507	-19.04434
500.988	47.11734
501.469	-38.09599
501.949	44.10856
502.43	-2.00487
502.91	38.08108
503.39	-61.15395
503.87	-3.00717
504.35	-19.04502
504.83	-17.03774
505.31	-36.08807
505.79	-65.15691
506.269	-48.11229
506.749	-44.10245
507.228	-10.02382
507.707	0
508.187	11.02647
508.666	23.05721
509.145	-23.05456
509.623	-22.05223
510.102	-14.03425
510.581	30.07262
511.059	-36.09191
511.538	9.02332
512.016	-40.09749
512.494	-7.01699
512.972	-8.01937
513.45	-51.12139
513.928	-62.15387
514.406	-1.00247
514.884	-36.0941
515.361	-15.03635
515.839	16.03715
516.316	14.03426
516.793	2.00509
517.27	-30.07323
517.747	-24.06233
518.224	-38.08914
518.701	-11.02466
519.178	-25.06339
519.654	-48.11585
520.131	-27.0678
520.607	-66.16463
521.083	-76.17675
521.56	-74.17867
522.036	-32.071
522.512	41.1014
522.987	0
523.463	-20.04807
523.939	33.08218
524.414	-42.09799
524.89	-4.00965
525.365	-12.02749
525.84	-56.1374
526.315	-25.06144
526.79	16.0364
527.265	-2.00468
527.74	-37.09127
528.215	-62.14788
528.689	-48.10757
529.164	-25.05458
529.638	-76.19675
530.112	-65.15638
530.587	-60.1318
531.061	-35.08611
531.534	-21.05131
532.008	5.01227
532.482	-16.03731
532.956	-36.09317
533.429	18.04434
533.903	-48.10757
534.376	-19.04269
534.849	-46.10791
535.322	-15.03587
535.795	-61.15042
536.268	0
536.741	-85.20712
537.213	-25.05841
537.686	-32.07953
538.158	-46.1069
538.631	-28.06885
539.103	-21.04823
539.575	-36.07578
540.047	-78.17508
540.519	-38.09241
540.991	-9.0222
541.463	-58.14247
541.934	-109.25475
542.406	-36.08803
542.877	-41.09447
543.348	-27.06623
543.82	-29.07161
544.291	-70.16761
544.762	-45.10929
545.233	11.0281
545.703	-35.07952
546.174	-64.15213
546.645	-22.05406
547.115	-61.15064
547.585	-79.18688
548.056	3.00746
548.526	-20.04827
548.996	-71.17404
549.466	-24.05926
549.935	-41.09998
550.405	-20.0448
550.875	-51.12386
551.344	-54.13166
551.814	-35.0819
552.283	-40.08946
552.752	-12.02859
553.221	-6.01348
553.69	-15.03455
554.159	-11.02777
554.628	-47.10929
555.096	-28.07239
555.565	-101.2316
556.033	6.01449
556.502	-63.15575
556.97	-42.09579
557.438	-98.2376
557.906	-60.14514
558.374	-36.08531
558.842	-51.12497
559.31	-35.08016
559.777	-43.10728
560.245	-73.17228
560.712	-42.09837
561.18	-27.06107
561.647	-61.13909
562.114	-46.10795
562.581	-30.0751
563.048	-32.07483
563.514	15.03798
563.981	12.02782
564.448	31.07069
564.914	-31.07342
565.381	-19.04423
565.847	-15.03551
566.313	-46.10913
566.779	-24.05509
567.245	-75.17858
567.711	-17.04133
568.176	-27.06184
568.642	-31.07932
569.108	17.04214
569.573	-32.07551
570.038	-4.00852
570.504	6.01374
570.969	-44.11106
571.434	9.02026
571.899	-25.0603
572.363	14.03248
572.828	71.16326
573.293	56.12875
573.757	73.16941
574.222	38.08582
574.686	97.22207
575.15	96.22986
575.614	152.35336
576.078	50.1178
576.542	94.21334
577.006	101.22704
577.469	116.2824
577.933	110.24894
578.396	89.21013
578.86	71.16704
579.323	133.31656
579.786	121.26025
580.249	151.35041
580.712	82.19866
581.175	88.21583
581.637	121.27333
582.1	106.22961
582.563	127.26704
583.025	84.20365
583.487	78.16086
583.95	31.06714
584.412	101.21134
584.874	100.24226
585.336	73.17302
585.797	93.20175
586.259	69.16145
586.721	58.13638
587.182	73.1682
587.643	42.09606
588.105	57.13494
588.566	10.02119
589.027	82.20022
589.488	34.07867
589.949	65.15786
590.41	42.08412
590.87	43.09908
591.331	74.162
591.791	25.05845
592.252	36.08448
592.712	11.02663
593.172	34.07801
593.632	104.23008
594.092	30.06751
594.552	43.09392
595.011	-33.07719
595.471	43.09817
595.931	41.09326
596.39	11.02669
596.849	-24.05694
597.308	-39.08522
597.768	70.18022
598.227	-37.09063
598.685	-24.05577
599.144	37.0878
599.603	-3.00711
600.062	-11.02366
600.52	26.05934
600.978	-17.04082
601.437	6.01383
601.895	15.03261
602.353	-5.01117
602.811	35.07961
603.269	2.00481
603.727	10.02425
604.184	37.08494
604.642	-10.0249
605.099	13.0307
605.557	32.07822
606.014	16.03492
606.471	6.01519
606.928	37.08293
607.385	5.01265
607.842	-14.03265
608.299	13.0307
608.755	51.12376
609.212	24.05409
609.668	-5.01146
610.125	-16.03911
610.581	56.13147
611.037	-22.05021
611.493	-12.02841
611.949	14.0344
612.405	22.04541
612.861	-17.03972
613.316	48.11524
613.772	3.00696
614.227	60.14421
614.683	36.07688
615.138	-7.01663
615.593	0
616.048	-2.00463
616.503	-7.01718
616.958	32.0804
617.412	7.01678
617.867	0
618.321	8.01674
618.776	14.03115
619.23	26.06125
619.684	-4.00904
620.138	6.01387
620.592	1.00245
621.046	56.13229
621.5	0
621.954	-16.03591
622.407	11.02455
622.861	7.01712
623.314	30.06823
623.768	28.06643
624.221	-9.01801
624.674	13.03026
625.127	1.00235
625.58	-14.03185
626.033	12.02646
626.485	-1.00241
626.938	18.0431
627.39	19.04468
627.843	18.04175
628.295	-9.02098
628.747	26.06223
629.199	13.02981
629.651	-4.00927
630.103	18.04153
630.555	-33.07083
631.006	-29.06839
631.458	-14.0333
631.909	-65.14887
632.361	-31.07257
632.812	-13.03043
633.263	16.03497
633.714	-20.04297
634.165	-6.0145
634.616	-70.16895
635.067	-10.02227
635.518	-2.00478
635.968	15.0297
636.419	10.02201
636.869	5.01191
637.319	-19.04462
637.769	-17.0387
638.219	0
638.669	-34.08191
639.119	-38.09216
639.569	-26.06308
640.019	-14.03269
640.468	7.01581
640.918	-66.15953
641.367	-3.00678
641.816	-5.01122
642.265	32.07477
642.714	-45.10492
643.163	22.05104
643.612	2.00493
644.061	-30.06523
644.51	-2.00463
644.958	-58.13083
645.406	-17.04104
645.855	-41.10091
646.303	-3.00699
646.751	-5.01168
647.199	-28.06435
647.647	38.08827
648.095	-13.02995
648.543	11.0225
648.99	36.08649
649.438	4.00931
649.885	17.0425
650.333	12.02351
650.78	6.01458
651.227	-9.0222
651.674	3.0069
652.121	27.06633
652.568	-22.05446
653.015	-36.09012
653.461	2.00479
653.908	-18.04178
654.354	7.01675
654.801	-23.05456
655.247	-27.0593
655.693	-31.08137
656.139	-30.07243
656.585	-14.03373
657.031	-18.04275
657.477	-6.01325
657.922	-33.07603
658.368	1.00247
658.813	-22.05058
659.259	-16.03914
659.704	48.11352
660.149	-23.05363
660.594	10.02383
661.039	-28.06463
661.484	7.01666
661.929	-2.0047
662.373	-27.06838
662.818	-35.08751
663.262	-14.03413
663.707	-8.02047
664.151	-34.08382
664.595	-64.15749
665.039	-19.04752
665.483	-14.03584
665.927	23.05403
666.371	-7.0166
666.814	-46.11081
667.258	-1.00242
667.701	-26.05618
668.145	-14.03507
668.588	30.07426
669.031	-50.1194
669.474	-30.07273
669.917	-31.06883
670.36	-4.01003
670.803	14.0339
671.245	-89.18714
671.688	-25.06137
672.13	0
672.573	4.01013
673.015	4.00968
673.457	-10.02196
673.899	-17.04143
674.341	10.02414
674.783	-4.00964
675.225	13.03204
675.666	10.02454
676.108	-40.08776
676.549	-17.0399
676.991	-57.12734
677.432	-64.12991
677.873	-69.16044
678.314	-14.03353
678.755	11.02716
679.196	-53.12299
679.637	-28.06758
680.078	6.01405
680.518	2.00461
680.959	-35.08414
681.399	1.00248
681.839	-19.0464
682.28	23.05707
682.72	-29.06695
683.16	21.05232
683.6	9.02051
684.039	-38.07953
684.479	-31.07717
684.919	15.03532
685.358	-35.08779
685.798	-45.11812
686.237	-41.09875
686.676	-41.09379
687.115	14.03298
687.554	42.09995
687.993	3.00666
688.432	0
688.871	25.05721
689.309	8.0192
689.748	-39.08215
690.186	-23.05411
690.625	11.02584
691.063	-33.07933
691.501	-5.01239
691.939	25.06273
692.377	10.02422
692.815	32.0779
693.253	-12.02864
693.69	-37.08181
694.128	-8.01947
694.565	-32.07633
695.003	33.08385
695.44	15.03547
695.877	-14.03307
696.314	-21.04449
696.751	-3.00681
697.188	-14.03259
697.625	-16.03593
698.061	-11.02639
698.498	-57.13614
698.934	-9.02154
699.371	-20.04727
699.807	14.03294
700.243	15.03607
700.679	-21.04701
701.115	3.00699
701.551	-12.02792
701.987	-56.12369
702.422	-35.08407
702.858	18.04277
703.294	44.10002
703.729	-18.04385
704.164	-34.08156
704.599	-5.01118
705.035	7.01568
705.47	-8.01942
705.904	-24.05577
706.339	-8.01837
706.774	-4.00936
707.209	-31.07254
707.643	-4.00956
708.078	-23.05605
708.512	-80.20301
708.946	-36.08564
709.38	7.01658
709.814	-22.04991
710.248	7.01706
710.682	-20.04814
711.116	40.09654
711.549	-3.00763
711.983	-6.01384
712.416	47.11032
712.85	11.02708
713.283	-6.01414
713.716	6.01479
714.149	1.00231
714.582	2.00448
715.015	-24.05886
715.448	-8.02011
715.881	-42.09067
716.313	39.09007
716.746	17.03998
717.178	-19.04569
717.61	20.05048
718.043	-3.00738
718.475	-12.02907
718.907	-18.04485
719.339	-24.05451
719.77	32.07592
720.202	-52.13074
720.634	17.04144
721.065	-26.06128
721.497	3.0073
721.928	-54.13259
722.359	-21.05113
722.79	-20.04785
723.221	-51.12701
723.652	-9.02276
724.083	-4.00896
724.514	9.02054
724.945	-33.07734
725.375	1.00233
725.806	-5.01225
726.236	-21.05351
726.666	-26.06123
727.096	-25.06103
727.526	25.06379
727.956	-4.00911
728.386	5.01216
728.816	-9.02295
729.246	4.00981
729.675	-69.16927
730.105	-7.01701
730.534	-31.07217
730.964	-34.08466
731.393	6.01456
731.822	6.01521
732.251	12.03017
732.68	-32.07392
733.109	-33.08134
733.537	-41.10047
733.966	19.04699
734.395	45.1024
734.823	-44.09734
735.251	-21.05025
735.68	-50.12331
736.108	-14.03477
736.536	-24.05597
736.964	-21.04846
737.392	-27.06721
737.82	1.00236
738.247	-62.14811
738.675	3.00698
739.102	-10.02477
739.53	-8.02047
739.957	-22.05676
740.384	-51.12274
740.811	-67.16703
741.238	3.0073
741.665	53.12251
742.092	-82.18957
742.519	-32.07933
742.945	46.1101
743.372	-1.00247
743.798	-10.0254
744.225	-18.04231
744.651	-23.05721
745.077	-15.03715
745.503	-36.08659
745.929	21.05029
746.355	-44.10676
746.781	-29.07088
747.207	-21.04972
747.632	12.02953
748.058	38.09441
748.483	-42.09644
748.908	-5.01236
749.334	38.09227
749.759	7.01653
750.184	47.11144
750.609	-8.01942
751.033	-9.02079
751.458	2.00441
751.883	24.05814
752.307	-23.05386
752.732	10.02534
753.156	-17.04155
753.58	-26.0609
754.005	-45.11255
754.429	18.04219
754.853	9.02218
755.277	6.01411
755.7	9.02208
756.124	-16.03952
756.548	-42.09895
756.971	37.08871
757.394	-39.09927
757.818	-4.01023
758.241	16.04017
758.664	-12.03006
759.087	-1.00224
759.51	-6.01464
759.933	-17.0409
760.356	39.09909
760.778	-38.09306
761.201	5.01192
761.623	-43.1018
762.046	-25.0579
762.468	18.04239
762.89	-22.0532
763.312	15.03625
763.734	-3.00716
764.156	-7.01712
764.578	-61.13881
765	40.09563
765.421	11.02776
765.843	5.01292
766.264	-13.03042
766.686	6.01467
767.107	-33.07951
767.528	23.05832
767.949	-39.09843
768.37	11.02694
768.791	-1.00236
769.212	-22.05512
769.632	4.00927
770.053	12.03089
770.473	-12.02858
770.894	-23.05596
771.314	-8.01861
771.734	-29.06703
772.154	-13.03279
772.575	-16.03642
772.994	-68.15377
773.414	11.02568
773.834	-22.05422
774.254	-4.00962
774.673	31.07452
775.093	19.04659
775.512	-7.0171
775.931	-1.0025
776.351	10.0246
776.77	5.01212
777.189	-10.02347
777.607	9.02263
778.026	18.04408
778.445	-3.00753
778.864	-53.13342
779.282	-17.03997
779.701	-19.04711
780.119	-28.0704
780.537	-18.04425
780.955	-12.0299
781.373	-31.07579
781.791	46.10211
782.209	-20.04443
782.627	-11.02863
783.045	5.01115
783.462	-16.04036
783.88	-45.11587
784.297	6.01485
784.715	-12.03059
785.132	-44.10491
785.549	-34.08407
785.966	-36.08973
786.383	-16.03908
786.8	11.02501
787.217	6.01412
787.633	2.00497
788.05	-57.13133
788.466	11.02502
788.883	13.03288
789.299	-36.08445
789.715	55.13061
790.131	-21.05153
790.547	-23.05653
790.963	-9.02193
791.379	-4.00996
791.795	-4.00884
792.21	16.03628
792.626	-7.01615
793.041	-46.11211
793.457	-36.08725
793.872	-22.05042
794.287	32.0758
794.702	-41.09808
795.117	2.0049
795.532	-4.00994
795.947	-1.00232
796.362	-28.06432
796.776	-25.05634
797.191	5.01202
797.605	-26.06099
798.02	-22.0526
798.434	31.06699
798.848	20.04885
799.262	-44.10796
799.676	17.04048
800.09	5.01203
800.504	-38.09043
800.918	-11.02471
801.331	-40.10104
801.745	-4.00893
802.158	-25.0609
802.572	19.04491
802.985	7.01635
803.398	-16.03728
803.811	-19.04694
804.224	-26.06273
804.637	0
805.05	13.02908
805.462	35.08299
805.875	-24.06151
806.288	-18.04295
806.7	-45.11035
807.112	-50.11316
807.525	-49.11726
807.937	-8.01944
808.349	-40.09796
808.761	28.0673
809.173	18.0427
809.584	24.05733
809.996	-28.06727
810.408	-13.03336
810.819	-45.10447
811.231	36.09403
811.642	34.08234
812.053	17.04051
812.464	-59.138
812.875	-6.01511
813.286	45.11365
813.697	-16.03558
814.108	-21.05
814.519	-17.03741
814.929	34.08395
815.34	-32.07536
815.75	-50.12661
816.16	-37.08942
816.571	-20.05081
816.981	-38.08694
817.391	-51.12004
817.801	-24.05878
818.211	-22.05119
818.62	4.00945
819.03	17.04039
819.44	-60.15199
819.849	-54.13264
820.259	-16.03965
820.668	-8.01933
821.077	-6.01472
821.486	-29.06748
821.895	16.03781
822.304	9.02324
822.713	-12.02757
823.122	-9.0219
823.531	-61.14027
823.939	9.02145
824.348	-51.12116
824.756	-7.01702
825.164	-25.06131
825.573	-43.10623
825.981	-27.06518
826.389	24.05841
826.797	48.11851
827.205	-10.02257
827.612	-37.08905
828.02	-53.12168
828.428	-44.11007
828.835	-8.02078
829.243	-45.10443
829.65	-26.06391
830.057	-37.08756
830.464	23.0551
830.871	27.06288
831.278	-32.07583
831.685	-32.06941
832.092	-39.09265
832.499	-5.01068
832.905	-23.05659
833.312	-58.1273
833.718	-7.01715
834.124	9.02
834.531	-40.09793
834.937	-6.0151
835.343	-18.04199
835.749	-35.07868
836.155	-12.03075
836.561	-39.09425
836.966	-16.03802
837.372	-29.07193
837.777	15.03646
838.183	-14.03007
838.588	-10.02441
838.993	31.07305
839.399	-13.03118
839.804	-35.08382
840.209	-5.01259
840.613	-24.0519
841.018	-40.09883
841.423	-39.09836
841.828	-11.02732
842.232	-5.01184
842.637	16.03701
843.041	-12.03024
843.445	-50.12227
843.849	-36.08777
844.253	1.0023
844.657	-20.04962
845.061	34.07575
845.465	-55.13066
845.869	1.00225
846.272	-40.09607
846.676	-38.08827
847.079	-45.11345
847.483	8.01933
847.886	16.03733
848.289	-4.01058
848.692	-49.12105
849.095	-21.04896
849.498	6.01455
849.901	-5.01102
850.304	-18.04186
850.707	-5.01238
851.109	-31.07633
851.512	-15.03607
851.914	-19.0472
852.316	-1.00249
852.718	16.04129
853.121	-17.04068
853.523	-28.06337
853.925	-31.08024
854.326	-28.06903
854.728	6.01509
855.13	-10.02548
855.531	-14.03269
855.933	-45.10468
856.334	-36.08875
856.736	-5.01098
857.137	-4.00912
857.538	-27.06697
857.939	4.00976
858.34	-40.09435
858.741	-39.09972
859.142	-22.05123
859.542	-13.03381
859.943	-17.04119
860.343	-27.06589
860.744	32.07536
861.144	25.05957
861.544	-17.04045
861.945	-21.05224
862.345	-8.01894
862.745	-26.06368
863.145	-12.02732
863.544	22.0541
863.944	23.05244
864.344	-22.0526
864.743	37.08844
865.143	65.16234
865.542	-38.08488
865.941	-6.01452
866.34	27.06154
866.74	2.00525
867.139	5.01179
867.537	-29.07146
867.936	-35.08276
868.335	-23.05705
868.734	-33.08281
869.132	-36.08054
869.531	-45.10517
869.929	-41.09182
870.327	-38.08907
870.726	-36.08685
871.124	-24.05414
871.522	-15.03715
871.92	-2.0048
872.318	-27.06392
872.715	-44.10499
873.113	-35.08286
873.511	-36.08744
873.908	-23.05778
874.306	-3.00733
874.703	5.01202
875.1	-29.07146
875.497	-20.0465
875.894	8.0194
876.291	20.04761
876.688	-51.12949
877.085	-55.12839
877.482	-43.10541
877.878	15.03547
878.275	0
878.671	-41.08602
879.068	-19.04463
879.464	-15.03526
879.86	-63.14626
880.256	-5.01179
880.652	-39.09716
881.048	-20.04776
881.444	-66.15186
881.84	-30.07445
882.236	-31.0761
882.631	46.10934
883.027	9.021
883.422	-36.08954
883.817	-55.13697
884.213	-41.10321
884.608	-19.04651
885.003	-73.17162
885.398	-20.04891
885.793	-3.00729
886.188	-47.11431
886.582	-3.00741
886.977	-12.02746
887.371	-33.08101
887.766	-26.06358
888.16	-42.10076
888.554	1.00238
888.949	11.02676
889.343	-6.01415
889.737	-20.05272
890.131	-24.0588
890.525	12.03002
890.918	-5.01223
891.312	-28.06455
891.706	-16.04091
892.099	-14.0346
892.492	-29.06028
892.886	-13.03086
893.279	17.04187
893.672	15.03733
894.065	8.01946
894.458	-24.05827
894.851	-29.06879
895.244	-8.01989
895.637	46.1069
896.029	-1.00239
896.422	4.00935
896.814	-26.06285
897.206	24.05599
897.599	28.06676
897.991	-9.0213
898.383	14.03204
898.775	33.07247
899.167	2.00459
899.559	9.02189
899.951	-35.07964
900.342	-22.05404
900.734	24.0591
901.125	-41.10473
901.517	-25.05998
901.908	-40.09215
902.299	-23.05502
902.69	27.06201
903.082	-4.0094
903.473	14.03298
903.863	-13.03213
904.254	-2.00456
904.645	-54.12989
905.036	27.06449
905.426	-26.0569
905.817	-41.09766
906.207	-10.02285
906.597	-15.03446
906.987	-10.02503
907.378	5.01236
907.768	-8.02072
908.158	-18.0426
908.547	8.0204
908.937	-71.17707
909.327	-25.059
909.717	-21.0511
910.106	-40.09336
910.495	-3.00718
910.885	23.05655
911.274	-6.01455
911.663	24.05834
912.052	-13.0308
912.441	-6.01498
912.83	9.01977
913.219	-17.04326
913.608	5.01192
913.997	-4.00985
914.385	-11.02552
914.774	2.00471
915.162	28.06512
915.55	-8.01863
915.939	-10.02479
916.327	-48.11633
916.715	23.05771
917.103	-10.02347
917.491	16.03813
917.878	-9.02144
918.266	-35.08846
918.654	-9.02259
919.041	-1.00258
919.429	-20.04587
919.816	23.05632
920.203	9.02136
920.591	-2.00483
920.978	-1.00237
921.365	-25.06444
921.752	-46.10537
922.139	21.04377
922.525	-4.00936
922.912	-29.06865
923.299	-12.02907
923.685	-73.18594
924.072	-13.02827
924.458	-11.02664
924.844	-16.03857
925.231	-27.06049
925.617	11.02747
926.003	-23.05717
926.389	-29.0714
926.774	-36.08885
927.16	-11.0265
927.546	44.11027
927.931	14.03357
928.317	-15.03322
928.702	0
929.088	29.06767
929.473	-21.0526
929.858	-18.0432
930.243	2.0047
930.628	26.06175
931.013	-30.07271
931.398	5.01089
931.783	-35.08921
932.167	37.08814
932.552	-32.07802
932.937	-13.03117
933.321	16.03924
933.705	-71.17398
934.09	0
934.474	-11.02506
934.858	-34.08656
935.242	-1.00223
935.626	4.01001
936.009	16.04182
936.393	34.08484
936.777	-1.00251
937.16	8.02041
937.544	-20.04495
937.927	22.05438
938.311	-15.0353
938.694	35.0899
939.077	-5.0116
939.46	-82.19356
939.843	-26.05106
940.226	-23.05726
940.609	14.0314
940.991	-60.14901
941.374	-14.03351
941.757	2.00476
942.139	-51.11234
942.522	0
942.904	51.1176
943.286	-2.00492
943.668	20.05081
944.05	-32.077
944.432	-15.03584
944.814	-42.09999
945.196	-1.00239
945.578	-10.0235
945.959	-29.06535
946.341	-23.05382
946.722	-13.02939
947.104	19.04383
947.485	-2.0045
947.866	13.03203
948.247	35.08615
948.628	-82.19274
949.009	-36.09022
949.39	-17.04088
949.771	-49.10838
950.152	6.01428
950.532	17.04169
950.913	-14.03273
951.293	-27.07217
951.674	-13.03054
952.054	26.06351
952.434	14.0337
952.814	-61.14032
953.194	-26.06556
953.574	15.03551
953.954	-68.15652
954.334	43.10423
954.714	-10.02381
955.093	-10.02386
955.473	6.01473
955.853	-7.01766
956.232	2.00534
956.611	-22.05054
956.99	-6.01473
957.37	1.00246
957.749	-22.05011
958.128	-21.05194
958.506	2.00506
958.885	-33.08101
959.264	2.00482
959.643	33.07257
960.021	29.0699
960.4	0
960.778	7.01641
961.156	-50.12222
961.535	-43.09658
961.913	30.06789
962.291	22.05543
962.669	1.00247
963.047	4.00997
963.424	35.08754
963.802	-16.03837
964.18	-46.1119
964.557	-2.00442
964.935	9.02055
965.312	19.04829
965.69	-43.10419
966.067	-48.11282
966.444	-66.15634
966.821	11.02755
967.198	-50.11702
967.575	-19.04507
967.952	-26.05932
968.329	-4.0095
968.705	64.13122
969.082	40.10053
969.458	-17.04025
969.835	-19.04495
970.211	-4.0101
970.587	31.07461
970.963	-31.07695
971.339	-17.04356
971.715	-11.02676
972.091	-6.01432
972.467	-48.11528
972.843	-10.02444
973.219	-25.05769
973.594	-15.0383
973.97	-73.16558
974.345	9.02092
974.721	-15.03467
975.096	21.04947
975.471	-5.01142
975.846	-41.0953
976.221	-12.02972
976.596	0
976.971	18.04328
977.346	4.0089
977.72	-41.10162
978.095	-20.05038
978.469	-4.00919
978.844	1.00242
979.218	14.03296
979.593	-8.01847
979.967	-65.15209
980.341	35.07768
980.715	-30.07399
981.089	9.02179
981.463	-6.01332
981.837	-30.07241
982.21	-71.15711
982.584	-4.00941
982.957	-1.00244
983.331	-32.07236
983.704	26.06247
984.078	8.01904
984.451	-24.05707
984.824	-53.12726
985.197	-45.10492
985.57	-37.08905
985.943	-15.03526
986.316	-11.02575
986.688	6.01395
987.061	-24.05485
987.434	21.05379
987.806	-33.0767
988.179	-3.00681
988.551	-18.04423
988.923	-41.09793
989.295	-36.08725
989.667	-3.00706
990.039	13.03164
990.411	-25.05486
990.783	-20.04393
991.155	-3.00702
991.527	-9.02103
991.898	20.04842
992.27	6.01453
992.641	7.01688
993.012	-53.11831
993.384	-55.12748
993.755	-15.03748
994.126	16.03749
994.497	-20.04776
994.868	10.02182
995.239	15.03495
995.61	-57.14081
995.98	-7.01645
996.351	-33.08035
996.722	19.04296
997.092	-49.11398
997.462	-10.02294
997.833	-21.04781
998.203	-46.10707
998.573	-12.02917
998.943	28.06347
999.313	2.00467
999.683	1.00233
1000.053	-46.10045
1000.423	-45.10583
1000.792	-27.06748
1001.162	-73.17509
1001.531	17.04056
1001.901	-17.04096
1002.27	-53.11277
1002.639	-39.09659
1003.009	-13.02987
1003.378	12.02979
1003.747	21.04736
1004.116	-44.10245
1004.485	-41.09541
1004.853	-42.10244
1005.222	-32.07715
1005.591	-10.02289
1005.959	-8.0175
1006.328	-37.08126
1006.696	-11.02559
1007.064	-38.09234
1007.433	-54.13092
1007.801	-4.00933
1008.169	-44.10736
1008.537	-12.02559
1008.905	-12.02728
1009.273	12.02838
1009.64	5.01169
1010.008	-9.02071
1010.375	12.02754
1010.743	-55.11962
1011.11	8.01866
1011.478	31.07447
1011.845	-6.01355
1012.212	9.01986
1012.579	16.03799
1012.946	-48.10996
1013.313	16.03628
1013.68	2.0043
1014.047	-20.04622
1014.414	-15.03424
1014.78	-14.03396
1015.147	-35.08125
1015.513	-54.12712
1015.88	-37.09164
1016.246	1.00235
1016.612	-57.12597
1016.978	3.00716
1017.344	2.0048
1017.71	-2.00468
1018.076	-44.09982
1018.442	25.06237
1018.808	13.03175
1019.174	-59.14404
1019.539	-41.08746
1019.905	-2.00459
1020.27	-41.09849
1020.636	-6.0137
1021.001	8.01855
1021.366	-23.05392
1021.731	29.07311
1022.096	8.01975
1022.461	-1.00229
1022.826	-15.03485
1023.191	-16.04095
1023.556	17.03806
1023.92	-38.09008
1024.285	-44.10346
1024.649	2.0047
1025.014	-67.16058
1025.378	14.03427
1025.742	-38.09112
1026.107	14.03026
1026.471	7.01561
1026.835	1.0024
1027.199	-30.0704
1027.562	-64.1436
1027.926	-27.06372
1028.29	-11.02707
1028.654	-5.01104
1029.017	32.07589
1029.381	-21.04887
1029.744	-23.05719
1030.107	45.10178
1030.471	-1.00233
1030.834	-26.05622
1031.197	2.00464
1031.56	-30.06828
1031.923	-18.04544
1032.286	8.01808
1032.648	-16.03648
1033.011	10.02244
1033.374	-2.00448
1033.736	-17.04365
1034.099	-10.02364
1034.461	-22.0546
1034.823	-38.09279
1035.185	-60.14645
1035.548	7.01654
1035.91	24.05511
1036.272	10.02201
1036.634	6.01416
1036.995	-53.12036
1037.357	-24.05707
1037.719	-31.07347
1038.08	10.02309
1038.442	-2.00457
1038.803	-8.01825
1039.165	-53.13016
1039.526	7.01634
1039.887	3.00692
1040.248	-17.04144
1040.609	8.01886
1040.97	-52.12365
1041.331	-2.00495
1041.692	-10.02303
1042.053	-23.05028
1042.413	-45.10124
1042.774	20.04695
1043.134	-23.0523
1043.495	24.05814
1043.855	25.05905
1044.215	-36.08649
1044.576	-47.11045
1044.936	-35.07729
1045.296	34.08156
1045.656	-31.07311
1046.016	0
1046.375	-19.0447
1046.735	-20.04475
1047.095	-2.00452
1047.454	-9.01806
1047.814	-5.01164
1048.173	-6.01362
1048.533	-19.04208
1048.892	-69.16303
1049.251	-19.04595
1049.61	14.0333
1049.969	-50.1144
1050.328	-30.06282
1050.687	-35.08225
1051.046	-50.11826
1051.405	-38.09116
1051.763	-34.07682
1052.122	-27.0654
1052.48	-7.01668
1052.839	-7.01621
1053.197	-33.07531
1053.555	-18.03866
1053.914	-23.05441
1054.272	-39.08957
1054.63	-27.06436
1054.988	-34.07935
1055.345	-35.07165
1055.703	8.01861
1056.061	14.0353
1056.419	4.01022
1056.776	-47.10903
1057.134	-104.23229
1057.491	17.04112
1057.848	-21.05044
1058.206	-67.15129
1058.563	-32.06798
1058.92	-11.02433
1059.277	21.04989
1059.634	-42.09455
1059.991	8.01852
1060.348	-2.00437
1060.704	11.0259
1061.061	-25.05502
1061.418	-35.08273
1061.774	-43.10357
1062.131	13.0339
1062.487	-39.08799
1062.843	-35.08494
1063.199	16.03843
1063.555	-6.01356
1063.911	-32.07819
1064.267	9.01759
1064.623	29.06857
1064.979	-58.12875
1065.335	-10.02287
1065.691	-33.07555
1066.046	-60.12786
1066.402	-60.1318
1066.757	-1.00245
1067.112	-17.04025
1067.468	-3.00695
1067.823	-65.14935
1068.178	-10.02322
1068.533	19.0443
1068.888	-18.04138
1069.243	-42.1011
1069.598	-54.12712
1069.952	29.06401
1070.307	-31.07514
1070.662	-25.05841
1071.016	20.04364
1071.371	-6.01324
1071.725	-7.01601
1072.079	-2.00466
1072.434	2.00472
1072.788	-54.1235
1073.142	2.00476
1073.496	-51.11756
1073.85	23.05098
1074.203	-23.05422
1074.557	62.16078
1074.911	32.07257
1075.265	-12.0269
1075.618	8.01887
1075.971	-5.01147
1076.325	7.01738
1076.678	-51.11361
1077.031	-94.20388
1077.385	-24.05074
1077.738	14.0302
1078.091	-7.01551
1078.444	-14.03095
1078.796	-7.01675
1079.149	25.06003
1079.502	4.00919
1079.855	-30.06795
1080.207	10.02367
1080.56	-42.10692
1080.912	-22.05183
1081.264	19.04423
1081.617	-17.04035
1081.969	-13.03208
1082.321	-20.04717
1082.673	10.02233
1083.025	-37.08467
1083.377	-25.05687
1083.728	-39.08778
1084.08	-26.06266
1084.432	-16.0372
1084.783	-52.116
1085.135	0
1085.486	-25.05576
1085.838	5.01195
1086.189	36.08468
1086.54	-21.04833
1086.891	4.01
1087.242	46.10938
1087.593	-49.11434
1087.944	4.00879
1088.295	38.0821
1088.646	-4.00957
1088.996	-25.05889
1089.347	-28.0663
1089.698	-47.10959
1090.048	-39.09832
1090.398	4.00885
1090.749	-46.10605
1091.099	-28.06954
1091.449	-4.0097
1091.799	2.00484
1092.149	-46.11123
1092.499	16.03762
1092.849	-30.07448
1093.199	13.03114
1093.548	0
1093.898	-20.0484
1094.248	-28.06936
1094.597	-39.09867
1094.947	-13.0339
1095.296	-35.08471
1095.645	0
1095.994	3.00695
1096.343	8.01956
1096.692	-13.03388
1097.041	-4.01074
1097.39	10.02408
1097.739	-13.03286
1098.088	-1.00259
1098.437	-27.07042
1098.785	-32.0837
1099.134	-51.1305
1099.482	3.00808
1099.83	-1.00256
1100.179	-18.04673
1100.527	-56.14432
1100.875	-1.00259
1101.223	-2.00521
1101.571	-49.13265
1101.919	1.0026
1102.267	-16.04456
1102.615	-4.01286
1102.962	-7.02248
1103.31	5.01606
1103.658	-4.01283
