Data from N1 R1 sample 11_Subt2__3__11-26-09-367.txt Node

Date: Wed Sep 17 11:26:09 PDT 2025
User: uwsun
Spectrometer: HDX01956
Trigger mode: 0
Integration Time (sec): 5.000000E-1
Scans to average: 1
Nonlinearity correction enabled: true
Boxcar width: 0
Storing dark spectrum: false
XAxis mode: Wavelengths
Number of Pixels in Spectrum: 2068
>>>>>Begin Spectral Data<<<<<
194.03	-15.04364
194.578	5.01625
195.127	-6.01925
195.676	1.00322
196.225	-47.12649
196.773	-23.06451
197.321	-37.10419
197.87	-33.08695
198.418	10.02634
198.966	-1.0027
199.513	-10.02611
200.061	-32.08381
200.609	-28.07591
201.156	-11.02489
201.704	-35.09088
202.251	-6.01633
202.798	-10.02658
203.345	6.01524
203.892	-21.05464
204.438	-11.02687
204.985	13.03169
205.532	-17.04587
206.078	-48.12138
206.624	-7.01806
207.17	-2.00483
207.716	-2.00504
208.262	4.00821
208.808	33.08468
209.354	-4.01018
209.899	0
210.445	-3.00771
210.99	-33.08331
211.535	41.09875
212.08	-26.06244
212.625	-17.04368
213.17	37.0961
213.715	21.04929
214.259	-39.09447
214.804	-16.04036
215.348	-6.01431
215.892	25.06212
216.436	-67.15935
216.98	-45.10269
217.524	33.08065
218.068	24.06185
218.612	3.00782
219.155	14.03393
219.698	-14.03429
220.242	-19.04816
220.785	12.0289
221.328	-15.03803
221.871	53.13695
222.414	-10.02533
222.956	-25.06149
223.499	-17.03901
224.041	-77.18292
224.583	-37.08071
225.126	-35.07932
225.668	-31.07742
226.21	44.11292
226.751	25.05689
227.293	-11.02553
227.835	-8.02007
228.376	-39.09144
228.918	-31.07916
229.459	6.01527
230	11.02697
230.541	-13.03067
231.082	24.05947
231.622	-15.03481
232.163	-57.14184
232.704	15.03825
233.244	-23.05848
233.784	-21.05213
234.324	-7.01619
234.864	-14.03246
235.404	-20.04827
235.944	-50.12141
236.484	16.04063
237.023	-1.00241
237.563	-16.03819
238.102	-29.07048
238.641	-12.0308
239.18	-29.07003
239.719	4.0102
240.258	-24.05546
240.797	18.0438
241.335	-17.0423
241.874	-2.00402
242.412	3.00745
242.95	11.02713
243.488	-63.14655
244.026	31.07342
244.564	-20.04251
245.102	43.09908
245.64	-54.13293
246.177	-16.0365
246.715	14.03429
247.252	-25.05831
247.789	30.05692
248.326	11.02705
248.863	7.01579
249.4	-13.03025
249.936	41.08762
250.473	34.08178
251.009	-35.08257
251.546	30.06836
252.082	-50.11182
252.618	32.07292
253.154	-1.00246
253.69	9.02064
254.226	12.02932
254.761	-30.06941
255.297	-3.00672
255.832	-25.06112
256.367	-8.01926
256.903	36.08157
257.438	-2.0048
257.972	-5.01142
258.507	-27.06372
259.042	22.0489
259.576	50.11256
260.111	1.00235
260.645	11.02433
261.179	16.03827
261.713	5.01147
262.247	-48.11322
262.781	6.01299
263.315	-34.08472
263.849	-6.01536
264.382	-24.0567
264.915	-7.01699
265.449	-17.04254
265.982	-6.01398
266.515	16.04
267.048	-38.08347
267.58	-19.0422
268.113	6.01331
268.646	-26.06525
269.178	-41.09469
269.71	41.09239
270.243	23.05441
270.775	2.00524
271.307	-35.08557
271.838	24.05768
272.37	-51.1288
272.902	7.01622
273.433	77.17266
273.965	-15.03734
274.496	-8.02027
275.027	10.0254
275.558	6.01497
276.089	-20.05126
276.62	-28.07234
277.15	-14.03524
277.681	-11.02435
278.211	-34.08521
278.741	28.06352
279.272	-20.04714
279.802	-4.01017
280.332	-7.01696
280.861	-11.02694
281.391	3.00699
281.921	5.01221
282.45	7.0177
282.98	2.00531
283.509	32.0743
284.038	3.00704
284.567	11.02621
285.096	-8.0199
285.625	-74.17325
286.153	27.06582
286.682	20.04699
287.21	-57.14029
287.739	-11.02667
288.267	13.03234
288.795	3.00798
289.323	-47.11423
289.851	40.09581
290.378	-2.00458
290.906	9.02252
291.433	-12.03065
291.961	-29.06847
292.488	18.04548
293.015	-11.0267
293.542	73.18954
294.069	41.10329
294.596	-6.01501
295.122	29.07096
295.649	-40.09071
296.175	-13.0321
296.702	28.06982
297.228	-14.03459
297.754	7.01617
298.28	20.04714
298.806	-16.03963
299.332	16.03676
299.857	-45.10612
300.383	19.04869
300.908	7.01762
301.433	20.05009
301.958	-13.03069
302.483	-40.10216
303.008	13.03305
303.533	-34.09008
304.058	-6.01437
304.582	-38.09286
305.107	-34.09089
305.631	-14.03273
306.155	18.04295
306.679	-13.0315
307.203	3.00716
307.727	11.02671
308.251	-11.02787
308.775	53.13117
309.298	-12.02977
309.822	-13.0335
310.345	22.05382
310.868	3.00743
311.391	-6.01517
311.914	-30.07742
312.437	25.05857
312.96	33.07945
313.482	-73.17868
314.005	-8.02047
314.527	-54.14474
315.049	32.08253
315.571	-25.05836
316.093	5.01269
316.615	-13.0321
317.137	5.01125
317.659	5.01242
318.18	-39.09613
318.702	13.0313
319.223	-78.16759
319.744	-33.07719
320.265	-14.03515
320.786	21.05368
321.307	-39.09955
321.828	1.00233
322.348	-3.00727
322.869	35.08532
323.389	250.48219
323.909	14.03289
324.43	-21.0518
324.95	-6.01419
325.47	-7.01786
325.989	0
326.509	9.02082
327.029	40.09369
327.548	28.0652
328.067	16.03987
328.587	60.15302
329.106	-14.03268
329.625	27.07164
330.144	24.05738
330.662	27.06513
331.181	55.13257
331.7	-22.05298
332.218	31.06934
332.736	32.07688
333.255	15.03637
333.773	-24.05871
334.291	32.08187
334.808	23.05346
335.326	0
335.844	24.0581
336.361	50.13118
336.879	11.02671
337.396	39.0973
337.913	39.09258
338.43	14.03264
338.947	13.032
339.464	-37.08365
339.981	18.04394
340.497	-31.07893
341.014	-11.0277
341.53	-18.04224
342.046	41.1048
342.562	13.03328
343.078	27.0654
343.594	-3.00737
344.11	34.08364
344.626	51.13137
345.141	59.13838
345.657	22.05145
346.172	63.15523
346.687	-39.09343
347.202	88.20514
347.717	19.04668
348.232	46.11711
348.747	48.11392
349.261	19.04329
349.776	28.06855
350.29	47.12035
350.805	41.10369
351.319	14.03362
351.833	39.09251
352.347	8.01953
352.861	54.12999
353.374	-7.01654
353.888	27.06787
354.401	29.06812
354.915	37.08634
355.428	44.11221
355.941	-13.03145
356.454	44.10087
356.967	-20.04849
357.48	-3.00706
357.993	57.14313
358.505	-23.05796
359.018	46.11541
359.53	52.12994
360.042	21.04873
360.554	85.21167
361.066	25.06251
361.578	65.14773
362.09	43.10502
362.602	27.06236
363.113	59.14237
363.625	75.17446
364.136	58.13115
364.647	79.19121
365.158	15.0361
365.669	24.05902
366.18	23.05582
366.691	40.09056
367.201	68.16641
367.712	99.23101
368.222	69.16284
368.733	60.13446
369.243	24.05562
369.753	31.0737
370.263	80.19687
370.773	56.13923
371.282	68.16598
371.792	59.14032
372.301	30.07442
372.811	66.17568
373.32	68.15163
373.829	9.02192
374.338	28.06442
374.847	91.21418
375.356	39.09447
375.865	68.15032
376.373	27.06347
376.882	74.19025
377.39	102.24943
377.898	85.21206
378.407	38.089
378.915	114.25421
379.423	73.17342
379.93	200.46346
380.438	72.1762
380.946	81.1922
381.453	116.28134
381.96	156.3738
382.468	99.23636
382.975	158.38751
383.482	115.26147
383.989	158.40506
384.495	147.34517
385.002	131.27958
385.509	199.472
386.015	208.42588
386.521	171.38958
387.028	197.44537
387.534	191.40815
388.04	223.52974
388.546	181.39918
389.051	241.52303
389.557	207.47388
390.063	236.52406
390.568	287.66913
391.073	254.55229
391.578	322.75617
392.084	347.75657
392.589	342.71006
393.093	400.90476
393.598	384.83741
394.103	426.95257
394.607	476.06407
395.112	469.07229
395.616	552.22714
396.12	541.13609
396.624	631.34401
397.128	651.41486
397.632	771.59848
398.136	817.64119
398.639	916.84324
399.143	1065.19516
399.646	1181.25363
400.15	1233.27521
400.653	1445.47456
401.156	1599.5957
401.659	1915.146
402.162	2582.26423
402.664	3790.9252
403.167	7944.41093
403.67	24851.00646
404.172	59339.2192
404.674	63858.43483
405.176	63738.15102
405.678	63977.72923
406.18	64011.81569
406.682	63863.44694
407.184	28460.54259
407.686	12217.35974
408.187	7267.26667
408.688	4890.7089
409.19	3893.04569
409.691	3234.60865
410.192	2785.51219
410.693	2579.96109
411.194	2322.09892
411.694	2183.24312
412.195	1981.32478
412.696	1885.97907
413.196	1836.53437
413.696	1885.04391
414.196	1835.70176
414.696	1768.06985
415.196	1589.68538
415.696	1253.21034
416.196	1065.06012
416.695	854.74434
417.195	847.7679
417.694	786.43426
418.194	653.24441
418.693	635.31445
419.192	640.36409
419.691	626.31862
420.19	659.42559
420.688	639.4158
421.187	508.96153
421.685	475.02881
422.184	490.07242
422.682	336.70165
423.18	332.73108
423.678	267.59203
424.176	299.65718
424.674	270.58209
425.172	232.53121
425.669	247.58719
426.167	285.63746
426.664	211.46884
427.161	187.42293
427.659	173.41334
428.156	159.33639
428.652	121.30318
429.149	165.39559
429.646	114.25463
430.143	111.26572
430.639	104.24663
431.135	117.29136
431.632	86.19787
432.128	68.16449
432.624	95.2447
433.12	101.23122
433.616	84.18584
434.111	55.13192
434.607	61.1472
435.103	77.16312
435.598	86.18071
436.093	53.12469
436.588	75.17011
437.083	21.04794
437.578	40.09383
438.073	92.23015
438.568	81.19973
439.062	47.10209
439.557	30.07104
440.051	-15.03452
440.546	2.00463
441.04	40.09694
441.534	26.06605
442.028	71.17152
442.522	37.08962
443.015	-22.04843
443.509	-6.01483
444.002	40.09854
444.496	-19.04224
444.989	20.04904
445.482	-30.07564
445.975	28.0655
446.468	11.02426
446.961	51.11186
447.454	-9.02059
447.947	-2.00485
448.439	38.09379
448.931	38.08806
449.424	62.15778
449.916	51.12488
450.408	22.05092
450.9	-31.07669
451.392	39.09937
451.884	-5.01168
452.375	-38.09578
452.867	-14.03207
453.358	16.03711
453.849	-14.0306
454.341	33.07522
454.832	-11.02425
455.323	40.09999
455.814	-42.0983
456.304	-5.01175
456.795	-10.02322
457.285	-18.04042
457.776	10.02307
458.266	-32.07735
458.756	-54.13043
459.247	-17.04127
459.737	24.05847
460.226	18.04148
460.716	-14.03394
461.206	-10.02424
461.695	-55.13856
462.185	19.04547
462.674	-27.06288
463.163	40.0903
463.653	42.09012
464.142	0
464.63	4.00978
465.119	-2.00471
465.608	41.09642
466.096	-33.07318
466.585	-40.09321
467.073	-18.04305
467.561	-25.06083
468.05	-25.0585
468.538	-8.01974
469.026	-17.04084
469.513	-56.12141
470.001	-39.09133
470.489	0
470.976	10.02358
471.463	13.03253
471.951	-7.01754
472.438	-25.05957
472.925	-11.02621
473.412	-11.02695
473.899	-2.00464
474.385	-10.02472
474.872	-54.12851
475.359	19.04692
475.845	-52.11057
476.331	-46.10024
476.817	21.05131
477.303	2.00469
477.789	-35.08462
478.275	-10.02503
478.761	-59.14286
479.247	-29.0658
479.732	-24.06056
480.218	18.04727
480.703	18.04451
481.188	-24.0529
481.673	8.01855
482.158	-25.05504
482.643	20.05122
483.128	25.05861
483.612	5.01202
484.097	13.03151
484.581	9.02099
485.066	-3.00741
485.55	21.04682
486.034	-47.10422
486.518	41.0983
487.002	-24.05904
487.486	-78.1935
487.969	-35.08624
488.453	-33.08313
488.936	-27.06179
489.42	-36.08117
489.903	-44.11106
490.386	-94.20109
490.869	-11.02446
491.352	-84.20686
491.835	-70.14748
492.318	-41.0939
492.8	-10.02105
493.283	-17.04379
493.765	-40.09952
494.247	-14.03298
494.73	-14.03144
495.212	-41.09875
495.694	3.00714
496.175	-61.14959
496.657	-21.05037
497.139	-24.04223
497.62	-12.02918
498.102	-15.03772
498.583	-40.09963
499.064	-42.09552
499.545	-47.10924
500.026	-6.01374
500.507	-54.12687
500.988	-4.01008
501.469	-77.19585
501.949	28.06928
502.43	-9.02192
502.91	37.07896
503.39	-61.15395
503.87	-9.02152
504.35	-37.08797
504.83	-69.15485
505.31	-66.16236
505.79	-95.23063
506.269	-44.10285
506.749	-42.09776
507.228	-62.14913
507.707	16.036
508.187	-30.07276
508.666	-31.07787
509.145	-37.088
509.623	-3.0071
510.102	-36.08843
510.581	6.01459
511.059	-52.13313
511.538	-39.10189
512.016	-44.10732
512.494	-68.16697
512.972	-30.07293
513.45	-34.08066
513.928	-35.08643
514.406	-12.02976
514.884	-21.05475
515.361	-59.14414
515.839	1.00233
516.316	-11.02704
516.793	-34.08702
517.27	-54.1324
517.747	-27.07015
518.224	-52.12232
518.701	-33.0743
519.178	-55.14019
519.654	-53.12804
520.131	-58.14645
520.607	-46.11433
521.083	-110.25754
521.56	-35.08388
522.036	-78.17472
522.512	15.03727
522.987	-26.06358
523.463	-13.0312
523.939	-6.01505
524.414	-51.11919
524.89	9.02166
525.365	-85.19756
525.84	-30.07325
526.315	-30.0738
526.79	-22.05044
527.265	-8.01873
527.74	-24.05906
528.215	-105.25251
528.689	-62.13934
529.164	-67.14758
529.638	-64.16534
530.112	-81.19546
530.587	-93.20571
531.061	-44.10844
531.534	-10.02438
532.008	-8.01968
532.482	-17.03965
532.956	-59.1533
533.429	24.05906
533.903	-58.13024
534.376	-71.16124
534.849	-14.03264
535.322	-35.08401
535.795	-64.1579
536.268	-40.09854
536.741	-76.18488
537.213	-51.11976
537.686	-53.13223
538.158	-18.0416
538.631	-29.07133
539.103	-50.1155
539.575	-69.1463
540.047	-92.2071
540.519	-14.03389
540.991	-19.04695
541.463	-68.16734
541.934	-99.23092
542.406	-58.14241
542.877	-39.08982
543.348	-29.07117
543.82	-83.20699
544.291	-45.10723
544.762	-55.13382
545.233	14.03574
545.703	-50.11394
546.174	-82.19559
546.645	-27.06641
547.115	-67.16564
547.585	-57.13426
548.056	-18.04493
548.526	-50.12136
548.996	-49.11962
549.466	-34.0841
549.935	-53.12953
550.405	-72.16301
550.875	-13.03135
551.344	-62.15139
551.814	-21.049
552.283	-23.05126
552.752	7.01662
553.221	-6.01348
553.69	21.04802
554.159	0
554.628	-12.02771
555.096	-37.0958
555.565	-24.05418
556.033	24.05777
556.502	-52.12829
556.97	5.01129
557.438	-9.02145
557.906	21.05002
558.374	29.06786
558.842	50.12022
559.31	42.0947
559.777	30.07385
560.245	27.06248
560.712	-22.05133
561.18	14.0314
561.647	41.09156
562.114	49.11286
562.581	36.08905
563.048	36.08306
563.514	112.27866
563.981	86.19645
564.448	122.27306
564.914	105.24212
565.381	97.22064
565.847	125.28789
566.313	148.33793
566.779	119.2653
567.245	95.2188
567.711	170.39879
568.176	172.37814
568.642	191.46957
569.108	236.56137
569.573	179.40501
570.038	194.39523
570.504	259.56304
570.969	235.56339
571.434	248.53099
571.899	272.61904
572.363	318.6932
572.828	328.7153
573.293	318.69262
573.757	392.85195
574.222	377.79232
574.686	427.91241
575.15	426.95531
575.614	504.08779
576.078	384.84557
576.542	436.92055
577.006	440.92003
577.469	452.02858
577.933	442.93239
578.396	444.9756
578.86	449.97809
579.323	470.04372
579.786	441.8831
580.249	506.08932
580.712	463.03857
581.175	403.93025
581.637	412.87522
582.1	403.81747
582.563	383.75986
583.025	466.04596
583.487	410.78246
583.95	341.68949
584.412	354.6992
584.874	447.0096
585.336	332.74731
585.797	310.64133
586.259	315.70136
586.721	296.66356
587.182	304.66803
587.643	327.70481
588.105	278.62988
588.566	254.50946
589.027	331.77047
589.488	260.57447
589.949	294.68315
590.41	212.40792
590.87	258.56886
591.331	332.68714
591.791	210.47311
592.252	225.50846
592.712	185.43321
593.172	237.52158
593.632	251.53822
594.092	191.41558
594.552	212.44645
595.011	131.29653
595.471	179.39741
595.931	196.4318
596.39	136.32227
596.849	160.36607
597.308	121.25543
597.768	188.47401
598.227	147.34773
598.685	105.23777
599.144	144.33463
599.603	125.28904
600.062	126.26301
600.52	144.32084
600.978	78.18391
601.437	132.29654
601.895	125.26538
602.353	113.24629
602.811	164.36328
603.269	118.27778
603.727	125.29661
604.184	107.2422
604.642	159.38367
605.099	150.34485
605.557	181.43014
606.014	169.35692
606.471	148.36527
606.928	195.42284
607.385	179.4386
607.842	82.18761
608.299	132.30456
608.755	172.40789
609.212	181.39483
609.668	165.36526
610.125	172.40568
610.581	146.33673
611.037	139.30694
611.493	169.38612
611.949	180.42867
612.405	194.38498
612.861	172.38687
613.316	199.46398
613.772	195.43491
614.227	243.56366
614.683	185.3823
615.138	170.39004
615.593	171.38817
616.048	175.39128
616.503	175.41508
616.958	181.44252
617.412	191.44182
617.867	145.31911
618.321	149.30197
618.776	160.34524
619.23	173.39589
619.684	116.25578
620.138	166.37138
620.592	116.27785
621.046	208.47684
621.5	110.26167
621.954	140.30416
622.407	146.31679
622.861	149.35478
623.314	111.24829
623.768	205.46968
624.221	73.14334
624.674	128.29121
625.127	75.1735
625.58	97.21572
626.033	98.21219
626.485	114.2691
626.938	132.30916
627.39	120.27665
627.843	95.21696
628.295	65.14935
628.747	124.29122
629.199	82.18542
629.651	64.14625
630.103	57.13049
630.555	93.19417
631.006	103.23666
631.458	70.16382
631.909	7.0158
632.361	45.10377
632.812	63.14527
633.263	61.13205
633.714	41.08693
634.165	43.10298
634.616	40.09453
635.067	66.14467
635.518	47.11122
635.968	72.14067
636.419	68.14786
636.869	76.17863
637.319	87.20005
637.769	13.02941
638.219	78.18255
638.669	33.07849
639.119	34.08135
639.569	61.14558
640.019	82.18784
640.468	63.14063
640.918	19.04519
641.367	42.09401
641.816	-24.05407
642.265	64.14861
642.714	31.0712
643.163	61.14044
643.612	91.22075
644.061	69.14688
644.51	34.07807
644.958	31.06866
645.406	40.09552
645.855	31.07529
646.303	72.16526
646.751	44.10176
647.199	64.14437
647.647	54.12504
648.095	24.05489
648.543	68.13727
648.99	56.13403
649.438	25.05795
649.885	78.19287
650.333	89.1712
650.78	38.09178
651.227	33.08077
651.674	65.14761
652.121	57.13926
652.568	51.12455
653.015	-14.03491
653.461	43.10207
653.908	62.14163
654.354	71.16782
654.801	-1.00236
655.247	24.05214
655.693	26.06759
656.139	29.06924
656.585	48.11427
657.031	39.09161
657.477	86.18621
657.922	-5.01146
658.368	58.14173
658.813	4.00915
659.259	51.12321
659.704	62.14624
660.149	-24.05597
660.594	72.16956
661.039	32.07298
661.484	24.05692
661.929	55.12794
662.373	6.01511
662.818	-4.00994
663.262	29.07014
663.707	10.0255
664.151	26.06339
664.595	17.04121
665.039	4.00996
665.483	28.07116
665.927	39.09133
666.371	40.09398
666.814	-6.01434
667.258	44.10575
667.701	92.19374
668.145	31.07703
668.588	44.10864
669.031	19.04477
669.474	33.07906
669.917	10.02201
670.36	66.16343
670.803	72.17246
671.245	-24.04974
671.688	65.15691
672.13	55.12384
672.573	31.0781
673.015	9.02177
673.457	25.05449
673.899	34.08206
674.341	-9.02181
674.783	1.00241
675.225	-7.01732
675.666	13.03188
676.108	26.05625
676.549	-21.04933
676.991	-50.11154
677.432	2.004
677.873	-22.05068
678.314	5.01193
678.755	64.15651
679.196	-25.05769
679.637	-22.05304
680.078	1.00234
680.518	-17.03931
680.959	-10.02393
681.399	8.01982
681.839	22.05332
682.28	26.06448
682.72	-19.04378
683.16	37.09191
683.6	20.04548
684.039	-17.03541
684.479	0
684.919	0
685.358	-45.11308
685.798	0
686.237	-24.05762
686.676	-18.04098
687.115	27.06345
687.554	35.0834
687.993	5.01109
688.432	1.00229
688.871	-7.01612
689.309	16.03834
689.748	20.04158
690.186	-15.03524
690.625	-17.04015
691.063	-28.06725
691.501	32.07875
691.939	42.10507
692.377	-7.01701
692.815	46.11169
693.253	-50.12022
693.69	-5.01098
694.128	0
694.565	-11.02613
695.003	52.13168
695.44	29.06839
695.877	28.06561
696.314	-15.03173
696.751	-7.0159
697.188	31.07151
697.625	-9.02018
698.061	-11.02639
698.498	-34.08085
698.934	-36.08659
699.371	-8.01886
699.807	16.03764
700.243	3.00723
700.679	-10.02234
701.115	26.0603
701.551	-36.08415
701.987	-48.10584
702.422	0
702.858	19.04514
703.294	42.09552
703.729	3.00728
704.164	-13.03106
704.599	30.06659
705.035	-6.01347
705.47	6.01452
705.904	-27.06278
706.339	5.01145
706.774	-34.08004
707.209	11.02553
707.643	1.00239
708.078	-4.00971
708.512	-24.0603
708.946	-19.04505
709.38	10.02367
709.814	-28.0636
710.248	-15.03672
710.682	23.05491
711.116	18.04362
711.549	-21.0536
711.983	-15.03467
712.416	41.09635
712.85	-24.05947
713.283	17.03989
713.716	-13.03216
714.149	-16.03703
714.582	3.00672
715.015	-23.0564
715.448	40.09967
715.881	16.03411
716.313	-13.03034
716.746	11.0259
717.178	-22.05294
717.61	9.02276
718.043	19.04652
718.475	1.00242
718.907	2.00497
719.339	15.0338
719.77	23.05466
720.202	-26.06507
720.634	-20.04909
721.065	-17.04
721.497	29.07027
721.928	-22.0537
722.359	-44.1076
722.79	-45.10818
723.221	-38.09441
723.652	-30.07616
724.083	-25.05622
724.514	-35.08058
724.945	-32.07498
725.375	-45.10567
725.806	-36.08872
726.236	36.09081
726.666	-7.01642
727.096	-8.01947
727.526	26.06633
727.956	-9.02051
728.386	-22.05378
728.816	-9.02295
729.246	38.09265
729.675	-47.11483
730.105	-27.06587
730.534	14.0323
730.964	-34.08466
731.393	5.01214
731.822	10.02533
732.251	-27.06836
732.68	-17.03915
733.109	2.0049
733.537	36.08695
733.966	-16.03982
734.395	-7.0161
734.823	-38.08396
735.251	-40.09607
735.68	-33.08113
736.108	-44.10987
736.536	-25.05831
736.964	-10.02303
737.392	-4.00992
737.82	-3.0071
738.247	-31.07362
738.675	-3.00698
739.102	12.02961
739.53	-12.03072
739.957	18.04612
740.384	-63.15197
740.811	-73.18219
741.238	-1.00244
741.665	19.04421
742.092	-45.10327
742.519	4.00985
742.945	15.03611
743.372	-16.03958
743.798	-29.07392
744.225	-23.05411
744.651	-12.02979
745.077	-38.09451
745.503	-44.10599
745.929	52.12379
746.355	-20.04831
746.781	-48.11773
747.207	9.02118
747.632	16.03934
748.058	51.12641
748.483	21.04761
748.908	-9.02227
749.334	9.02197
749.759	32.07521
750.184	39.09261
750.609	27.06513
751.033	2.00461
751.458	21.04608
751.883	-10.02438
752.307	-11.0257
752.732	43.10833
753.156	-19.04645
753.58	-12.02803
754.005	-52.13022
754.429	17.03986
754.853	35.08586
755.277	-37.08773
755.7	5.01227
756.124	-19.04695
756.548	-54.12752
756.971	36.08633
757.394	4.0101
757.818	-1.00256
758.241	17.04267
758.664	-14.03509
759.087	2.00447
759.51	-41.10069
759.933	37.0881
760.356	32.08141
760.778	15.03637
761.201	-8.01912
761.623	-26.06135
762.046	21.04819
762.468	8.01888
762.89	6.01443
763.312	-15.03646
763.734	5.01192
764.156	6.01464
764.578	9.02019
765	30.07186
765.421	-10.02533
765.843	3.00776
766.264	-40.09409
766.686	-44.10856
767.107	6.01435
767.528	38.09609
767.949	-28.07053
768.37	11.02694
768.791	-3.00709
769.212	-4.00999
769.632	-42.09818
770.053	-52.13536
770.473	5.01187
770.894	-22.05352
771.314	-46.10778
771.734	2.00459
772.154	-26.06572
772.575	-7.0159
772.994	-22.04928
773.414	-21.04933
773.834	-20.04927
774.254	-12.02892
774.673	54.12925
775.093	-17.04197
775.512	12.0292
775.931	-15.03767
776.351	3.00739
776.77	-21.05115
777.189	15.03503
777.607	-20.05056
778.026	-35.08656
778.445	4.01003
778.864	-44.11059
779.282	-44.10398
779.701	-20.0496
780.119	-28.0704
780.537	-29.07143
780.955	-7.01743
781.373	-27.06596
781.791	-7.01571
782.209	-20.04443
782.627	-28.07309
783.045	-75.16998
783.462	-12.03025
783.88	-19.0487
784.297	11.0272
784.715	11.02793
785.132	-16.03794
785.549	-65.16163
785.966	16.0395
786.383	-10.0244
786.8	10.02274
787.217	-15.03544
787.633	-15.03735
788.05	-19.04345
788.466	-13.02971
788.883	16.04044
789.299	-46.10812
789.715	6.01438
790.131	-10.02449
790.547	-23.05653
790.963	-22.05374
791.379	-33.08257
791.795	-14.03101
792.21	-11.02508
792.626	-42.0976
793.041	17.04094
793.457	-20.04833
793.872	-50.11523
794.287	20.04749
794.702	-48.11497
795.117	-37.09137
795.532	6.01488
795.947	-50.11716
796.362	-26.0597
796.776	-34.07676
797.191	-3.00722
797.605	-18.04216
798.02	-33.07906
798.434	30.06485
798.848	33.08041
799.262	-17.0415
799.676	-14.03353
800.09	-12.02896
800.504	-23.05458
800.918	-66.14991
801.331	-87.2216
801.745	-29.06506
802.158	-72.17692
802.572	15.03548
802.985	-16.03753
803.398	-23.05367
803.811	-44.1092
804.224	-40.09676
804.637	-10.02346
805.05	-9.02022
805.462	-14.03351
805.875	-11.02813
806.288	-46.11035
806.7	-53.13016
807.112	8.01789
807.525	-52.12451
807.937	-20.04871
808.349	-39.09549
808.761	-26.06313
809.173	-23.055
809.584	-21.0506
809.996	-55.13282
810.408	-7.01794
810.819	-39.09043
811.231	20.05238
811.642	-19.04647
812.053	1.00239
812.464	-47.10967
812.875	-14.03531
813.286	-16.04085
813.697	-1.00222
814.108	13.03075
814.519	-26.05733
814.929	-26.0649
815.34	-24.05643
815.75	-23.05796
816.16	-67.16284
816.571	-28.07123
816.981	-19.04331
817.391	-66.15579
817.801	-32.07849
818.211	-43.10046
818.62	-16.03793
819.03	-50.12031
819.44	-31.07812
819.849	-20.04882
820.259	-31.07703
820.668	22.05286
821.077	17.04153
821.486	-6.0139
821.895	-56.13419
822.304	-26.06754
822.713	5.01145
823.122	-26.06346
823.531	-78.17997
823.939	15.03572
824.348	0
824.756	-22.05364
825.164	2.00488
825.573	-29.07146
825.981	-5.01202
826.389	-31.07622
826.797	36.08908
827.205	-4.00902
827.612	-28.06727
828.02	-99.22938
828.428	-41.10251
828.835	-35.09131
829.243	4.00919
829.65	-4.00979
830.057	-68.16188
830.464	7.01682
830.871	18.04199
831.278	-28.0663
831.685	-16.03458
832.092	-33.07831
832.499	16.03404
832.905	-32.07886
833.312	-53.1162
833.718	32.07785
834.124	14.03108
834.531	-61.14992
834.937	-30.07581
835.343	-36.08429
835.749	-18.04032
836.155	-16.04103
836.561	-20.04816
836.966	-22.05233
837.372	-31.07692
837.777	-52.12796
838.183	-13.02791
838.588	-9.02196
838.993	-13.0309
839.399	-37.08915
839.804	-48.11524
840.209	-27.06824
840.613	-45.09775
841.018	-24.05913
841.423	-10.02509
841.828	-28.06977
842.232	-31.07376
842.637	-10.02325
843.041	-15.03782
843.445	-24.05841
843.849	-36.08777
844.253	-1.0023
844.657	-35.08707
845.061	52.11543
845.465	-70.16677
845.869	-6.01355
846.272	-29.0695
846.676	-88.20643
847.079	-25.0628
847.483	25.06021
847.886	2.00468
848.289	-10.02649
848.692	-72.17862
849.095	-55.1291
849.498	10.02424
849.901	-58.12928
850.304	-45.10521
850.707	-9.0223
851.109	-28.0689
851.512	44.10463
851.914	-28.06967
852.316	-6.01498
852.718	20.05158
853.121	-17.04068
853.523	-55.12516
853.925	20.05131
854.326	17.04156
854.728	-34.0861
855.13	-32.08184
855.531	-41.09624
855.933	-25.05792
856.334	1.00245
856.736	-3.00659
857.137	4.00911
857.538	-25.06199
857.939	-17.04164
858.34	-38.0896
858.741	-12.03054
859.142	9.02083
859.542	-20.05208
859.943	-15.03633
860.343	-3.00729
860.744	21.04956
861.144	20.0477
861.544	-22.05239
861.945	-19.04725
862.345	-46.10968
862.745	23.05582
863.145	-36.08237
863.544	-6.01483
863.944	7.01601
864.344	-74.17867
864.743	-28.06776
865.143	1.00253
865.542	-84.1894
865.941	-21.05096
866.34	-7.01606
866.74	0
867.139	12.02826
867.537	-53.13117
867.936	-23.05426
868.335	-32.0795
868.734	-12.03
869.132	-7.01557
869.531	-39.09104
869.929	-27.06029
870.327	-3.00698
870.726	-16.03846
871.124	-4.00899
871.522	-40.09952
871.92	11.02631
872.318	-54.12851
872.715	-54.1291
873.113	-27.06382
873.511	-24.05817
873.908	-30.07546
874.306	-36.08846
874.703	-44.10676
875.1	-67.16624
875.497	-24.05584
875.894	-1.00243
876.291	8.01909
876.688	-38.09626
877.085	11.02534
877.482	-9.02192
877.878	20.04725
878.275	-56.14029
878.671	-54.11362
879.068	-25.0588
879.464	-6.01408
879.86	-43.09943
880.256	-60.14295
880.652	-29.07211
881.048	-80.19323
881.444	-27.06164
881.84	-10.02473
882.236	-14.03426
882.631	-28.0675
883.027	5.01168
883.422	-43.10708
883.817	-22.05446
884.213	-31.0779
884.608	15.03648
885.003	-81.19072
885.398	-31.07596
885.793	-34.08308
886.188	-93.22814
886.582	-30.07451
886.977	-26.05966
887.371	-32.07854
887.766	-2.00487
888.16	-32.07662
888.554	-7.01669
888.949	-14.03422
889.343	-63.15024
889.737	-30.07922
890.131	24.05827
890.525	13.03252
890.918	-27.06631
891.312	-25.0576
891.706	-49.126
892.099	1.00246
892.492	-27.0561
892.886	-49.11712
893.279	-58.14483
893.672	-26.06518
894.065	-56.13786
894.458	-56.13679
894.851	12.02824
895.244	-37.09248
895.637	-18.04236
896.029	-30.07211
896.422	-24.05639
896.814	-42.10183
897.206	9.02106
897.599	20.04776
897.991	10.02358
898.383	-16.03684
898.775	46.10075
899.167	-4.00919
899.559	-49.12047
899.951	-18.04082
900.342	-63.15592
900.734	11.02715
901.125	-44.11245
901.517	-19.04554
901.908	2.00457
902.299	-41.09841
902.69	21.04829
903.082	9.0211
903.473	0
903.863	-77.19252
904.254	12.02726
904.645	-50.12017
905.036	10.02396
905.426	-21.04591
905.817	-21.04983
906.207	-48.11053
906.597	-45.10401
906.987	-26.06528
907.378	9.02223
907.768	-29.07537
908.158	-24.05687
908.547	-1.00255
908.937	-47.1167
909.327	14.03279
909.717	-30.07312
910.106	-63.1477
910.495	-8.01918
910.885	31.0761
911.274	-48.11734
911.663	-29.07119
912.052	-20.04745
912.441	1.00249
912.83	-6.01322
913.219	-31.07907
913.608	9.02145
913.997	-8.01972
914.385	0
914.774	-37.08776
915.162	12.028
915.55	-23.05371
915.939	16.03948
916.327	-57.13838
916.715	17.0427
917.103	-15.03524
917.491	-12.02875
917.878	7.01662
918.266	-34.08591
918.654	2.00501
919.041	1.00258
919.429	-39.08979
919.816	-29.07169
920.203	-13.03098
920.591	-39.09479
920.978	18.04259
921.365	-17.04376
921.752	-51.11695
922.139	-17.03573
922.525	-34.08004
922.912	-2.00471
923.299	-44.10724
923.685	-55.13965
924.072	-61.13402
924.458	-42.10232
924.844	-20.04825
925.231	-83.18811
925.617	-13.03261
926.003	-2.00495
926.389	-41.10117
926.774	6.01469
927.16	-24.05797
927.546	-7.0177
927.931	-37.08959
928.317	-7.01548
928.702	0
929.088	20.04675
929.473	3.00748
929.858	-33.07942
930.243	-6.01414
930.628	22.05229
931.013	-35.0849
931.398	-10.02185
931.783	-10.02538
932.167	28.06681
932.552	-18.04377
932.937	6.01433
933.321	-27.06675
933.705	-65.1591
934.09	-40.09669
934.474	-35.08013
934.858	-1.00253
935.242	-8.01789
935.626	-62.15695
936.009	-5.01312
936.393	28.06994
936.777	-48.12138
937.16	31.07877
937.544	-32.0721
937.927	-12.02985
938.311	-47.11131
938.694	22.05664
939.077	-16.03721
939.46	-29.06775
939.843	17.03305
940.226	-61.1529
940.609	24.05372
940.991	-11.02707
941.374	-23.05514
941.757	-14.03343
942.139	-12.02622
942.522	23.05196
942.904	13.0302
943.286	-34.0841
943.668	18.04574
944.05	6.01433
944.432	23.05456
944.814	-36.0856
945.196	-20.04789
945.578	-9.02115
945.959	-36.08124
946.341	-15.03504
946.722	-23.0521
947.104	43.09872
947.485	-44.09994
947.866	-11.02722
948.247	53.13002
948.628	-49.11443
949.009	6.01492
949.39	10.02393
949.771	-41.09054
950.152	6.01428
950.532	29.07096
950.913	-13.03038
951.293	-1.00266
951.674	-9.02113
952.054	43.1047
952.434	-6.0145
952.814	-39.08932
953.194	-35.08839
953.574	20.0473
953.954	-55.12627
954.334	14.03412
954.714	-41.09819
955.093	14.03325
955.473	-5.0123
955.853	-35.08874
956.232	-34.09128
956.611	-27.06209
956.99	-29.07148
957.37	-1.00246
957.749	-24.05469
958.128	-11.02715
958.506	-11.02788
958.885	-26.06375
959.264	-32.07761
959.643	51.11172
960.021	-8.01942
960.4	-17.03726
960.778	-28.06609
961.156	-46.11236
961.535	-59.13295
961.913	16.03631
962.291	-9.0228
962.669	-5.01239
963.047	9.02242
963.424	8.02011
963.802	-5.01197
964.18	-52.12664
964.557	-15.03326
964.935	27.06144
965.312	-10.02555
965.69	19.0455
966.067	-28.06556
966.444	-87.20692
966.821	19.04752
967.198	-41.09579
967.575	-9.02131
967.952	-57.13086
968.329	-10.02379
968.705	22.04553
969.082	22.05547
969.458	-24.05689
969.835	7.01648
970.211	5.01261
970.587	2.00484
970.963	-20.04954
971.339	-46.11847
971.715	-5.01215
972.091	11.02616
972.467	-66.15905
972.843	11.02677
973.219	-1.0023
973.594	-21.05368
973.97	-57.12887
974.345	-24.05615
974.721	-48.11168
975.096	10.02361
975.471	-27.06196
975.846	-17.03933
976.221	-46.11462
976.596	-8.01894
976.971	39.0934
977.346	-1.00223
977.72	-28.06923
978.095	-4.01005
978.469	-16.03686
978.844	16.03863
979.218	-22.05215
979.593	7.01611
979.967	-53.12372
980.341	-1.00224
980.715	19.04644
981.089	-31.07562
981.463	-35.07816
981.837	3.0072
982.21	-52.11461
982.584	13.03048
982.957	-6.01466
983.331	-40.0906
983.704	23.05529
984.078	-20.04785
984.451	-31.07381
984.824	-21.05012
985.197	-50.1167
985.57	-39.0939
985.943	-10.02349
986.316	-28.06576
986.688	23.05329
987.061	39.08799
987.434	31.07927
987.806	-34.07904
988.179	-56.12854
988.551	20.0488
988.923	-44.10515
989.295	-7.01687
989.667	15.03517
990.039	69.16619
990.411	-23.05045
990.783	-67.14863
991.155	-43.1014
991.527	-19.04449
991.898	-20.04878
992.27	-24.05845
992.641	6.01447
993.012	-40.08905
993.384	-29.06687
993.755	-1.00249
994.126	15.03515
994.497	-20.04776
994.868	-11.02411
995.239	-48.11322
995.61	-37.09107
995.98	-42.09937
996.351	-20.04858
996.722	-39.08921
997.092	-34.07885
997.462	-36.083
997.833	-12.02727
998.203	-30.06961
998.573	-31.07562
998.943	2.00456
999.313	1.00233
999.683	-10.02336
1000.053	-99.21861
1000.423	-20.04681
1000.792	-48.12042
1001.162	-66.15809
1001.531	6.01434
1001.901	-46.11144
1002.27	-69.14732
1002.639	-34.08413
1003.009	-34.07845
1003.378	11.02731
1003.747	-14.0318
1004.116	-56.1307
1004.485	-14.03241
1004.853	-37.09016
1005.222	-65.15768
1005.591	27.06134
1005.959	-18.03946
1006.328	-11.02403
1006.696	-52.12194
1007.064	-45.10949
1007.433	-46.11136
1007.801	-48.11291
1008.169	-11.02667
1008.537	8.01699
1008.905	-13.02956
1009.273	-34.08113
1009.64	-4.00937
1010.008	1.0023
1010.375	-1.0023
1010.743	-25.05403
1011.11	68.15671
1011.478	26.06251
1011.845	-59.13464
1012.212	-14.03104
1012.579	9.0214
1012.946	-39.08918
1013.313	-9.02051
1013.68	-43.09328
1014.047	-60.13976
1014.414	-14.03195
1014.78	-22.05344
1015.147	-34.07892
1015.513	-24.05617
1015.88	-40.09912
1016.246	-27.06392
1016.612	-28.06151
1016.978	23.0547
1017.344	5.01198
1017.71	-3.00702
1018.076	-27.06104
1018.442	-7.01757
1018.808	-6.01471
1019.174	-27.06552
1019.539	-37.07886
1019.905	-9.02066
1020.27	-19.04545
1020.636	-43.09892
1021.001	-37.08654
1021.366	-49.11546
1021.731	49.12309
1022.096	-53.13232
1022.461	-13.02988
1022.826	-8.01856
1023.191	-33.08471
1023.556	-13.02928
1023.92	-12.0283
1024.285	-35.08215
1024.649	-3.00706
1025.014	-48.11462
1025.378	9.02205
1025.742	15.03561
1026.107	3.0065
1026.471	-40.09008
1026.835	-26.0627
1027.199	-52.12256
1027.562	-24.05341
1027.926	-13.0306
1028.29	-17.04189
1028.654	-37.08222
1029.017	32.07589
1029.381	-11.02555
1029.744	-24.05969
1030.107	42.09505
1030.471	-13.03034
1030.834	-73.15944
1031.197	60.13772
1031.56	-26.05913
1031.923	-36.09116
1032.286	17.03836
1032.648	-66.15198
1033.011	29.06481
1033.374	12.02679
1033.736	-13.03336
1034.099	-8.01891
1034.461	13.03206
1034.823	-35.08541
1035.185	-51.12427
1035.548	12.02833
1035.91	-7.01617
1036.272	10.02201
1036.634	-27.06414
1036.995	-49.11119
1037.357	-15.03561
1037.719	17.03992
1038.08	41.09409
1038.442	-38.08754
1038.803	-10.02282
1039.165	-14.03413
1039.526	3.00701
1039.887	-4.00924
1040.248	-14.03411
1040.609	-10.02366
1040.97	-15.03541
1041.331	19.04683
1041.692	6.01377
1042.053	-41.08997
1042.413	20.0444
1042.774	7.01648
1043.134	-71.163
1043.495	-10.02438
1043.855	26.0614
1044.215	-57.13749
1044.576	-18.04206
1044.936	-1.00219
1045.296	-15.03632
1045.656	-21.04943
1046.016	-18.04183
1046.375	-21.04943
1046.735	42.09276
1047.095	6.01353
1047.454	-29.05845
1047.814	-17.03965
1048.173	4.00906
1048.533	-13.02875
1048.892	-10.02336
1049.251	-32.07758
1049.61	-19.04548
1049.969	9.02035
1050.328	-27.0565
1050.687	-22.05157
1051.046	-32.07542
1051.405	-22.05262
1051.763	-10.02248
1052.122	-22.05324
1052.48	1.00238
1052.839	25.05751
1053.197	-31.07071
1053.555	-44.09502
1053.914	-7.01651
1054.272	-51.11741
1054.63	-12.02852
1054.988	11.02545
1055.345	-59.12143
1055.703	1.00233
1056.061	-3.00759
1056.419	29.07379
1056.776	-22.05078
1057.134	-75.16652
1057.491	-7.01701
1057.848	-15.03599
1058.206	-61.13757
1058.563	-24.0509
1058.92	35.07667
1059.277	-15.03588
1059.634	-28.06285
1059.991	1.00232
1060.348	-30.06598
1060.704	8.01885
1061.061	-33.07275
1061.418	-20.04714
1061.774	-36.08659
1062.131	3.00784
1062.487	-72.16354
1062.843	7.01685
1063.199	-14.03382
1063.555	-2.00452
1063.911	-32.07819
1064.267	6.01173
1064.623	4.0095
1064.979	-101.2262
1065.335	-14.03204
1065.691	-65.14977
1066.046	-23.04862
1066.402	-54.11847
1066.757	-13.03189
1067.112	-39.09272
1067.468	16.0369
1067.823	-21.04783
1068.178	-42.09814
1068.533	0
1068.888	-17.03908
1069.243	-35.08414
1069.598	-63.14857
1069.952	16.03541
1070.307	-11.02656
1070.662	15.03477
1071.016	-18.03959
1071.371	-8.01765
1071.725	-57.13165
1072.079	-6.01399
1072.434	-19.04498
1072.788	-82.18859
1073.142	-7.01669
1073.496	-15.03433
1073.85	-3.00669
1074.203	-12.02823
1074.557	41.10671
1074.911	26.05903
1075.265	-14.0314
1075.618	27.06345
1075.971	-32.07377
1076.325	-2.00497
1076.678	-49.10911
1077.031	-89.19283
1077.385	-5.01053
1077.738	-57.12481
1078.091	-18.03997
1078.444	-22.04871
1078.796	8.01909
1079.149	-5.01207
1079.502	6.01377
1079.855	-15.03387
1080.207	-11.02614
1080.56	38.09537
1080.912	-14.03293
1081.264	22.05119
1081.617	-26.06183
1081.969	-54.13426
1082.321	-59.14022
1082.673	31.06891
1083.025	-51.11704
1083.377	-29.06602
1083.728	-34.07644
1084.08	-33.07963
1084.432	-75.17639
1084.783	-48.10699
1085.135	36.08725
1085.486	-24.05352
1085.838	-14.03357
1086.189	-45.10752
1086.54	-6.01377
1086.891	43.10677
1087.242	47.11174
1087.593	-15.03477
1087.944	-22.04863
1088.295	16.03473
1088.646	12.02863
1088.996	-15.03526
1089.347	-10.0236
1089.698	-49.1143
1090.048	5.01251
1090.398	-39.08709
1090.749	-57.1317
1091.099	15.03696
1091.449	9.02177
1091.799	14.03383
1092.149	-42.10148
1092.499	-24.05687
1092.849	-45.11202
1093.199	-21.05064
1093.548	3.00704
1093.898	-63.15369
1094.248	-49.12185
1094.597	1.00251
1094.947	28.07251
1095.296	-4.00962
1095.645	-2.00503
1095.994	-6.01393
1096.343	37.08996
1096.692	27.06989
1097.041	-14.03766
1097.39	-31.07523
1097.739	-20.05061
1098.088	-23.05972
1098.437	-19.04949
1098.785	-60.15768
1099.134	-54.13825
1099.482	0
1099.83	-22.05644
1100.179	3.00776
1100.527	-58.14953
1100.875	-8.02078
1101.223	2.00521
1101.571	-52.14084
1101.919	-8.02085
1102.267	-5.0139
1102.615	2.00642
1102.962	-4.01284
1103.31	6.01926
1103.658	-9.02889
