Data from N2 R0 105C sample8_Subt2__1__12-14-14-034.txt Node

Date: Tue Aug 19 12:14:14 PDT 2025
User: uwsun
Spectrometer: HDX01956
Trigger mode: 0
Integration Time (sec): 5.000000E-1
Scans to average: 1
Nonlinearity correction enabled: true
Boxcar width: 0
Storing dark spectrum: false
XAxis mode: Wavelengths
Number of Pixels in Spectrum: 2068
>>>>>Begin Spectral Data<<<<<
194.03	172.49275
194.578	177.56601
195.127	167.52762
195.676	176.55748
196.225	204.5498
196.773	200.56011
197.321	326.90127
197.87	429.09696
198.418	389.99234
198.966	448.15582
199.513	384.95555
200.061	434.09285
200.609	409.06468
201.156	400.87857
201.704	417.04865
202.251	475.2393
202.798	397.02526
203.345	410.0057
203.892	403.00722
204.438	404.96455
204.985	476.12639
205.532	412.07268
206.078	467.12906
206.624	444.08283
207.17	409.95085
207.716	403.97961
208.262	437.86092
208.808	490.20007
209.354	472.13496
209.899	444.09367
210.445	466.14879
210.99	474.1346
211.535	483.12425
212.08	517.18979
212.625	444.10009
213.17	472.17
213.715	433.98874
214.259	434.00464
214.804	423.02596
215.348	425.96422
215.892	456.07483
216.436	481.09536
216.98	478.05316
217.524	414.97556
218.068	500.24086
218.612	430.06767
219.155	401.94218
219.698	433.02191
220.242	396.98003
220.785	406.94183
221.328	414.01291
221.871	407.00807
222.414	413.014
222.956	437.05324
223.499	433.96881
224.041	437.005
224.583	396.84343
225.126	416.91333
225.668	389.93745
226.21	416.03022
226.751	366.81539
227.293	472.06985
227.835	418.01514
228.376	378.86961
228.918	427.0604
229.459	348.87009
230	365.86664
230.541	455.04981
231.082	359.8583
231.622	411.93701
232.163	387.93545
232.704	386.94584
233.244	403.98876
233.784	427.02638
234.324	402.90114
234.864	376.85602
235.404	400.94258
235.944	353.8359
236.484	387.94671
237.023	411.97131
237.563	419.96063
238.102	335.78746
238.641	418.04083
239.18	388.91325
239.719	408.00816
240.258	410.9202
240.797	430.02128
241.335	431.03836
241.874	425.83688
242.412	488.15528
242.95	400.95428
243.488	424.96761
244.026	389.89295
244.564	384.79903
245.102	416.9306
245.64	399.94624
246.177	401.90351
246.715	464.09287
247.252	389.89366
247.789	403.76929
248.326	404.97413
248.863	430.94961
249.4	456.02263
249.936	457.92996
250.473	419.97678
251.009	415.95794
251.546	393.86991
252.082	419.91701
252.618	407.90277
253.154	445.06163
253.69	415.92511
254.226	410.96951
254.761	489.0943
255.297	376.82379
255.832	382.89668
256.367	467.08566
256.903	400.86971
257.438	469.07658
257.972	418.93622
258.507	455.03939
259.042	450.98089
259.576	416.91064
260.111	416.95471
260.645	361.78109
261.179	398.92438
261.713	456.01299
262.247	432.99459
262.781	435.91702
263.315	466.12432
263.849	466.14543
264.382	416.9463
264.915	495.14815
265.449	464.13253
265.982	488.09632
266.515	451.07145
267.048	409.88417
267.58	476.02769
268.113	450.97133
268.646	481.1634
269.178	428.95664
269.71	489.05559
270.243	479.06924
270.775	431.06996
271.307	435.02782
271.838	417.96753
272.37	452.08884
272.902	463.03602
273.433	421.90816
273.965	470.11902
274.496	445.07175
275.027	469.13518
275.558	465.1052
276.089	470.14123
276.62	467.15611
277.15	431.03092
277.681	510.09136
278.211	429.00893
278.741	493.07332
279.272	449.01082
279.802	447.08631
280.332	516.183
280.861	451.06693
281.391	463.03389
281.921	511.19512
282.45	497.20666
282.98	479.21129
283.509	484.0615
284.038	490.09497
284.567	501.12534
285.096	512.20471
285.625	509.13726
286.153	462.05604
286.682	501.1212
287.21	511.19792
287.739	515.19131
288.267	479.13285
288.795	478.19781
289.323	493.14215
289.851	513.17822
290.378	513.12828
290.906	510.20511
291.433	521.24466
291.961	517.1409
292.488	472.13839
293.015	519.19725
293.542	531.30278
294.069	516.21837
294.596	515.22281
295.122	512.186
295.649	509.09132
296.175	560.31882
296.702	567.31176
297.228	517.2087
297.754	562.24217
298.28	544.20183
298.806	522.21349
299.332	551.1927
299.857	591.27941
300.383	493.20364
300.908	541.27032
301.433	516.20424
301.958	552.21851
302.483	536.28907
303.008	591.38947
303.533	554.36402
304.058	583.31783
304.582	567.29307
305.107	577.44177
305.631	564.2279
306.155	618.37632
306.679	538.20537
307.203	605.3454
307.727	551.25603
308.251	636.48114
308.775	613.39472
309.298	604.39938
309.822	628.49855
310.345	644.45852
310.868	634.43237
311.391	622.4434
311.914	628.49056
312.437	671.44354
312.96	652.44793
313.482	630.4106
314.005	649.53541
314.527	712.73845
315.049	651.52709
315.571	688.46525
316.093	674.56908
316.615	676.53849
317.137	667.37463
317.659	700.59891
318.18	655.46994
318.702	693.49666
319.223	746.46087
319.744	725.52441
320.265	730.64674
320.786	740.70454
321.307	748.71818
321.828	780.64124
322.348	773.6902
322.869	800.75846
323.389	446.68033
323.909	752.59337
324.43	770.68682
324.95	762.61738
325.47	803.78975
325.989	809.74366
326.509	839.69704
327.029	843.71836
327.548	806.66256
328.067	895.95541
328.587	824.85432
329.106	837.6984
329.625	805.90088
330.144	843.78051
330.662	793.66095
331.181	921.91567
331.7	947.97501
332.218	928.80842
332.736	923.92663
333.255	958.9649
333.773	933.9458
334.291	923.01737
334.808	956.90885
335.326	1003.98847
335.844	1076.16399
336.361	1039.27778
336.879	1043.13729
337.396	1023.13197
337.913	1017.02503
338.43	1090.09808
338.947	1065.15211
339.464	1039.93475
339.981	1106.22951
340.497	1064.21996
341.014	1137.34375
341.53	1087.05786
342.046	1048.18847
342.562	1180.45466
343.078	1150.27296
343.594	1188.34711
344.11	1197.33254
344.626	1197.49719
345.141	1192.22715
345.657	1253.28129
346.172	1219.41015
346.687	1274.38782
347.202	1272.31426
347.717	1291.49127
348.232	1290.59744
348.747	1274.3785
349.261	1350.36195
349.776	1330.4931
350.29	1391.73047
350.805	1440.81038
351.319	1397.56997
351.833	1340.38588
352.347	1388.54386
352.861	1383.50879
353.374	1431.51154
353.888	1435.68333
354.401	1423.53368
354.915	1469.52922
355.428	1480.80621
355.941	1504.67245
356.454	1498.52448
356.967	1403.54778
357.48	1451.52836
357.993	1511.80938
358.505	1485.74329
359.018	1545.8222
359.53	1607.87756
360.042	1562.5485
360.554	1592.8224
361.066	1591.87622
361.578	1565.48234
362.09	1585.75172
362.602	1626.58368
363.113	1716.85298
363.625	1644.66719
364.136	1740.66418
364.647	1717.891
365.158	1723.802
365.669	1715.89224
366.18	1728.84669
366.691	1821.7276
367.201	1739.92991
367.712	1801.83025
368.222	1809.83329
368.733	1925.81445
369.243	1833.75885
369.753	1979.03932
370.263	1941.10085
370.773	1889.0876
371.282	1986.06345
371.792	2118.13247
372.301	2042.182
372.811	2025.41573
373.32	2111.73568
373.829	2173.15178
374.338	2260.90131
374.847	2295.0943
375.356	2349.20595
375.865	2436.73624
376.373	2614.05025
376.882	2616.51135
377.39	2605.2826
377.898	2720.41785
378.407	2836.92826
378.915	2959.70042
379.423	3095.11797
379.93	3177.82543
380.438	3401.20842
380.946	3521.96521
381.453	3566.99335
381.96	3855.77584
382.468	4166.6127
382.975	4291.55083
383.482	4322.00558
383.989	4381.77302
384.495	4582.99143
385.002	4844.37291
385.509	5146.79921
386.015	5427.69756
386.521	5754.14346
387.028	6020.92235
387.534	6116.7231
388.04	6375.97997
388.546	6562.74551
389.051	6829.65735
389.557	7507.1213
390.063	7850.43614
390.568	8242.97712
391.073	8383.16522
391.578	8806.97327
392.084	8871.21405
392.589	9184.20504
393.093	9923.4061
393.598	10837.78042
394.103	11958.35624
394.607	13063.33433
395.112	13952.96708
395.616	14651.67667
396.12	15787.75758
396.624	17632.33672
397.128	18785.83989
397.632	20927.93418
398.136	22563.68477
398.639	23996.84536
399.143	26628.16466
399.646	30120.34151
400.15	32761.68565
400.653	36641.31722
401.156	41277.67661
401.659	47987.45115
402.162	56594.07517
402.664	53965.1428
403.167	49329.08451
403.67	22278.45323
404.172	2696.20453
404.674	0
405.176	0
405.678	0
406.18	0
406.682	0
407.184	0
407.686	25783.58453
408.187	43316.52985
408.688	51225.60928
409.19	54389.01922
409.691	56215.4214
410.192	57270.57019
410.693	57845.40442
411.194	58219.2365
411.694	58633.01717
412.195	59215.68848
412.696	57803.19658
413.196	54597.14431
413.696	54973.08769
414.196	55606.85907
414.696	54905.47168
415.196	52125.71629
415.696	46749.41906
416.196	36813.71759
416.695	28424.74225
417.195	25119.59384
417.694	24141.96489
418.194	22347.90098
418.693	21451.45241
419.192	20675.46841
419.691	20410.26475
420.19	20031.19514
420.688	19412.74017
421.187	18608.18972
421.685	17292.47402
422.184	15538.76274
422.682	13265.52076
423.18	11397.72269
423.678	10219.55983
424.176	9442.70505
424.674	8768.96734
425.172	8467.32358
425.669	7961.67696
426.167	7457.13458
426.664	6747.8346
427.161	6176.83476
427.659	5760.40594
428.156	5374.88605
428.652	5097.16701
429.149	4831.05828
429.646	4793.58499
430.143	4362.31361
430.639	4204.39566
431.135	4063.90277
431.632	3785.52917
432.128	3559.94253
432.624	3439.40698
433.12	3281.73473
433.616	3199.59214
434.111	3064.04081
434.607	2953.15202
435.103	2871.51447
435.598	2810.52819
436.093	2671.08424
436.588	2494.78447
437.083	2349.83923
437.578	2326.98715
438.073	2246.35159
438.568	2180.17265
439.062	2053.63888
439.557	2003.95004
440.051	1964.76985
440.546	1859.74918
441.04	1873.98494
441.534	1858.19058
442.028	1791.8736
442.522	1775.88741
443.015	1709.5363
443.509	1721.92105
444.002	1683.89254
444.496	1643.52639
444.989	1627.79859
445.482	1603.86164
445.975	1589.6194
446.468	1600.42025
446.961	1623.47355
447.454	1510.46299
447.947	1462.60278
448.439	1387.49458
448.931	1519.52783
449.424	1442.69843
449.916	1413.60338
450.408	1410.39573
450.9	1416.61991
451.392	1345.60802
451.884	1322.32839
452.375	1335.60691
452.867	1302.26335
453.358	1307.31555
453.849	1263.0959
454.341	1253.22521
454.832	1268.14051
455.323	1211.3621
455.814	1230.25108
456.304	1170.16342
456.795	1240.25471
457.285	1185.08016
457.776	1161.11004
458.266	1117.16812
458.756	1132.18639
459.247	1138.2189
459.737	1072.13821
460.226	1101.04605
460.716	1095.17863
461.206	1102.185
461.695	1018.11265
462.185	1013.98128
462.674	1061.05529
463.163	995.83894
463.653	1019.8254
464.142	1000.04215
464.63	1000.07708
465.119	895.78568
465.608	961.91132
466.096	886.67748
466.585	899.79367
467.073	892.83436
467.561	902.86408
468.05	909.8237
468.538	877.86689
469.026	848.77741
469.513	953.87256
470.001	836.66128
470.489	818.72504
470.976	821.68104
471.463	819.79008
471.951	779.71693
472.438	743.56504
472.925	689.46071
473.412	725.58452
473.899	708.45891
474.385	740.6197
474.872	742.58447
475.359	728.61283
475.845	726.37876
476.331	642.25454
476.817	611.36549
477.303	677.43587
477.789	682.4958
478.275	604.38059
478.761	607.36156
479.247	608.28346
479.732	594.37945
480.218	618.48029
480.703	553.28793
481.188	518.05827
481.673	512.11594
482.158	582.18765
482.643	503.19107
483.128	565.2168
483.612	545.19777
484.097	485.11204
484.581	493.08241
485.066	549.26102
485.55	544.14164
486.034	455.94317
486.518	518.16716
487.002	492.16476
487.486	462.0793
487.969	468.10359
488.453	394.95182
488.936	480.05183
489.42	430.91862
489.903	433.03807
490.386	431.70595
490.869	437.92245
491.352	467.08609
491.835	436.88339
492.318	532.17332
492.8	471.95758
493.283	448.10314
493.765	442.05225
494.247	404.91752
494.73	418.90652
495.212	417.9748
495.694	370.85189
496.175	381.89904
496.657	404.93275
497.139	400.70607
497.62	405.9449
498.102	373.90705
498.583	377.91814
499.064	428.95309
499.545	389.87827
500.026	390.86813
500.507	341.78905
500.988	407.99081
501.469	350.8694
501.949	367.8938
502.43	374.88407
502.91	402.83835
503.39	375.91021
503.87	416.96998
504.35	402.92296
504.83	434.94201
505.31	361.85879
505.79	386.91842
506.269	429.98749
506.749	328.75069
507.228	381.89137
507.707	430.9385
508.187	376.8733
508.666	409.98972
509.145	395.92121
509.623	405.92855
510.102	455.07019
510.581	435.00796
511.059	459.1151
511.538	461.13999
512.016	533.23349
512.494	461.08601
512.972	443.0245
513.45	522.1781
513.928	530.24809
514.406	535.25524
514.884	600.45621
515.361	627.422
515.839	599.30448
516.316	595.3619
516.793	638.50675
517.27	630.41291
517.747	606.46583
518.224	664.44956
518.701	684.44852
519.178	605.40419
519.654	677.49136
520.131	626.44582
520.607	636.46835
521.083	603.31042
521.56	644.44612
522.036	628.31067
522.512	587.34572
522.987	659.47469
523.463	581.3261
523.939	600.38736
524.414	577.26554
524.89	565.27762
525.365	517.14233
525.84	520.21169
526.315	562.30095
526.79	462.02294
527.265	582.2875
527.74	465.09799
528.215	452.0497
528.689	461.00778
529.164	421.90349
529.638	441.10515
530.112	426.99836
530.587	437.93337
531.061	367.88311
531.534	387.91638
532.008	412.98177
532.482	366.82484
532.956	378.94746
533.429	431.01993
533.903	333.73805
534.376	327.72837
534.849	403.9284
535.322	339.80182
535.795	347.84227
536.268	338.80517
536.741	353.84073
537.213	358.82591
537.686	390.945
538.158	335.75484
538.631	332.79785
539.103	339.77415
539.575	269.57109
540.047	310.69008
540.519	315.7583
540.991	340.82482
541.463	299.72851
541.934	297.6908
542.406	277.67189
542.877	319.73728
543.348	318.77059
543.82	290.70777
544.291	305.71388
544.762	250.60151
545.233	344.85792
545.703	313.70556
546.174	372.86401
546.645	305.74063
547.115	371.89645
547.585	298.69272
548.056	396.96062
548.526	352.84044
548.996	311.74726
549.466	358.86195
549.935	367.87038
550.405	385.84723
550.875	342.81001
551.344	387.92592
551.814	447.01698
552.283	368.793
552.752	371.869
553.221	485.06213
553.69	398.87675
554.159	465.1238
554.628	417.93495
555.096	469.16657
555.565	452.00409
556.033	428.99128
556.502	399.95644
556.97	407.90052
557.438	440.02097
557.906	433.00688
558.374	400.91506
558.842	354.84166
559.31	379.85291
559.777	381.91262
560.245	417.97365
560.712	468.07064
561.18	467.03855
561.647	449.99632
562.114	444.00301
562.581	473.12984
563.048	504.13371
563.514	473.13156
563.981	473.058
564.448	518.13763
564.914	540.21928
565.381	597.29957
565.847	605.35818
566.313	633.40598
566.779	591.26198
567.245	655.4555
567.711	667.51524
568.176	680.4507
568.642	710.66523
569.108	749.71328
569.573	832.81277
570.038	848.65857
570.504	842.71127
570.969	908.06307
571.434	940.89072
571.899	935.00502
572.363	944.92399
572.828	1007.01804
573.293	1036.08436
573.757	1032.05828
574.222	1147.22648
574.686	1096.17408
575.15	1152.34353
575.614	1126.2182
576.078	1209.41695
576.542	1216.32784
577.006	1188.26757
577.469	1289.62906
577.933	1279.4259
578.396	1253.45682
578.86	1257.47044
579.323	1317.62234
579.786	1250.25011
580.249	1318.51515
580.712	1336.66817
581.175	1244.56625
581.637	1236.33564
582.1	1291.35073
582.563	1260.22677
583.025	1242.52457
583.487	1209.07177
583.95	1244.27793
584.412	1288.24242
584.874	1252.50591
585.336	1285.5138
585.797	1194.17624
586.259	1302.52387
586.721	1197.36657
587.182	1303.47155
587.643	1265.37728
588.105	1302.55248
588.566	1301.21249
589.027	1325.63707
589.488	1270.40123
589.949	1305.59602
590.41	1334.11013
590.87	1363.47362
591.331	1320.28879
591.791	1408.6449
592.252	1435.64144
592.712	1407.68993
593.172	1437.6006
593.632	1605.68943
594.092	1637.76118
594.552	1660.674
595.011	1665.87795
595.471	1710.77835
595.931	1803.87854
596.39	1912.28757
596.849	1968.19456
597.308	1946.9084
597.768	2129.72816
598.227	2189.4025
598.685	2208.19699
599.144	2389.44216
599.603	2529.60189
600.062	2626.11539
600.52	2784.35846
600.978	2961.62185
601.437	3151.39943
601.895	3229.03854
602.353	3405.22064
602.811	3658.29812
603.269	3789.66743
603.727	4025.61512
604.184	4359.09749
604.642	4527.49878
605.099	4711.97029
605.557	5055.16105
606.014	5267.34695
606.471	5584.10044
606.928	5895.05652
607.385	6220.70851
607.842	6437.01297
608.299	6829.16372
608.755	7013.32394
609.212	7545.9629
609.668	7880.20396
610.125	8196.71448
610.581	8519.92852
611.037	8831.25133
611.493	9230.98032
611.949	9618.82857
612.405	9784.2624
612.861	10234.40663
613.316	10396.87817
613.772	10740.11536
614.227	11059.25589
614.683	11456.48974
615.138	11673.05797
615.593	11930.39134
616.048	12074.35047
616.503	12394.64157
616.958	12757.52117
617.412	12779.23101
617.867	12884.4744
618.321	12946.50733
618.776	13064.68331
619.23	13246.47432
619.684	13134.03052
620.138	13030.11728
620.592	13065.81937
621.046	13119.64319
621.5	13180.50948
621.954	12927.65265
622.407	12849.23453
622.861	12883.67666
623.314	12897.39427
623.768	12698.82838
624.221	12745.51157
624.674	12634.56127
625.127	12594.21312
625.58	12731.30884
626.033	12699.45779
626.485	12549.69886
626.938	12689.6542
627.39	12736.06796
627.843	12783.46562
628.295	12777.53131
628.747	12785.2579
629.199	13018.20183
629.651	13098.71185
630.103	13068.39621
630.555	13396.72647
631.006	13568.87565
631.458	13838.7925
631.909	14083.36205
632.361	14280.61411
632.812	14646.84176
633.263	14921.6309
633.714	15398.52436
634.165	15722.3104
634.616	16137.08616
635.067	16647.55191
635.518	17270.14181
635.968	17878.52412
636.419	18534.12744
636.869	19068.2418
637.319	19713.59531
637.769	20628.04874
638.219	21300.79168
638.669	22303.75286
639.119	23228.37816
639.569	24363.38001
640.019	25330.23555
640.468	26444.07251
640.918	27721.9878
641.367	28775.06114
641.816	30314.11344
642.265	31413.01063
642.714	32757.77573
643.163	34049.89629
643.612	35447.69713
644.061	36356.55818
644.51	38265.93808
644.958	39642.31976
645.406	40876.1655
645.855	42120.90159
646.303	43622.32511
646.751	44709.58106
647.199	46167.34466
647.647	47237.33053
648.095	48726.78075
648.543	49539.56767
648.99	50692.21329
649.438	51925.91021
649.885	52550.48907
650.333	53505.22851
650.78	54243.42322
651.227	55133.02685
651.674	55269.75906
652.121	55634.33626
652.568	56317.08507
653.015	56190.62021
653.461	56291.50358
653.908	56119.51298
654.354	56006.55851
654.801	55723.46269
655.247	55424.83188
655.693	55410.45368
656.139	55224.28208
656.585	54598.98141
657.031	54557.59654
657.477	53891.37626
657.922	53663.86346
658.368	53283.77361
658.813	52749.39723
659.259	52587.99188
659.704	51838.91738
660.149	51524.06935
660.594	51281.69815
661.039	50606.95939
661.484	50067.95961
661.929	49525.52645
662.373	49488.82665
662.818	49475.39057
663.262	49313.02453
663.707	49128.50946
664.151	48944.73575
664.595	48985.04217
665.039	49401.40383
665.483	49291.81859
665.927	49693.14845
666.371	49613.93125
666.814	49936.57503
667.258	50084.39645
667.701	50626.27019
668.145	50675.3092
668.588	51169.1221
669.031	52055.4556
669.474	52215.95237
669.917	52676.5081
670.36	53564.87793
670.803	54429.36829
671.245	54271.34276
671.688	54614.87498
672.13	54950.01064
672.573	55694.36608
673.015	56254.58533
673.457	56574.91273
673.899	56977.14996
674.341	57424.07952
674.783	57774.05491
675.225	58144.52191
675.666	58628.70921
676.108	58495.00139
676.549	58549.72051
676.991	59018.91545
677.432	58620.74663
677.873	58431.78847
678.314	58026.41911
678.755	57615.48148
679.196	57360.52993
679.637	56971.83538
680.078	56232.55084
680.518	55757.61401
680.959	55016.03459
681.399	54597.55068
681.839	54024.39624
682.28	53356.96986
682.72	52354.75077
683.16	51689.56584
683.6	50523.12471
684.039	49884.07643
684.479	49415.09609
684.919	48646.38113
685.358	48180.89209
685.798	47766.48151
686.237	47168.09931
686.676	46262.69986
687.115	45689.23294
687.554	45053.61923
687.993	44806.11346
688.432	43599.50941
688.871	43203.92807
689.309	42501.59211
689.748	42560.98358
690.186	42121.79803
690.625	41369.52585
691.063	40963.05502
691.501	40535.90621
691.939	40041.23672
692.377	39709.64727
692.815	39470.7523
693.253	39044.12828
693.69	38377.67968
694.128	38072.8942
694.565	37515.82411
695.003	37129.87622
695.44	36529.04146
695.877	36125.76792
696.314	35435.62199
696.751	35108.27947
697.188	34820.62754
697.625	34369.08217
698.061	33821.60106
698.498	33199.27287
698.934	32813.64219
699.371	32411.23296
699.807	31805.623
700.243	31145.61604
700.679	30637.57436
701.115	30335.95964
701.551	29662.43717
701.987	29227.29985
702.422	28515.74767
702.858	28304.54826
703.294	27584.77343
703.729	27297.09972
704.164	26601.40495
704.599	26152.40826
705.035	25972.39845
705.47	25381.07393
705.904	25024.35447
706.339	24723.44267
706.774	23963.64324
707.209	23347.03011
707.643	23073.97587
708.078	22730.17445
708.512	22315.53366
708.946	21982.76256
709.38	21458.18368
709.814	21145.72037
710.248	20742.25968
710.682	20582.22928
711.116	19833.28626
711.549	19445.55174
711.983	19054.87618
712.416	18841.58227
712.85	18451.95897
713.283	18053.06589
713.716	17556.91247
714.149	17391.17183
714.582	16984.03662
715.015	16620.19651
715.448	16160.76167
715.881	15901.90412
716.313	15582.96491
716.746	15256.51982
717.178	15017.06372
717.61	14631.93453
718.043	14330.50184
718.475	14002.19731
718.907	13762.73458
719.339	13521.99065
719.77	13225.37108
720.202	12855.36996
720.634	12759.92353
721.065	12483.55612
721.497	12108.19063
721.928	11941.24277
722.359	11695.03502
722.79	11445.90592
723.221	11276.08457
723.652	11048.10319
724.083	10873.74456
724.514	10512.386
724.945	10448.11159
725.375	10364.82687
725.806	9931.54479
726.236	9789.20581
726.666	9593.71199
727.096	9523.58724
727.526	9403.39507
727.956	9237.91901
728.386	8987.59268
728.816	8852.48528
729.246	8826.37786
729.675	8514.01851
730.105	8361.75321
730.534	8334.61617
730.964	8172.71949
731.393	8167.61171
731.822	7986.70234
732.251	7905.5934
732.68	7886.20615
733.109	7685.34176
733.537	7429.20169
733.966	7621.46717
734.395	7473.96504
734.823	7348.74377
735.251	7235.18971
735.68	7108.33512
736.108	7068.36949
736.536	6944.94555
736.964	6924.92594
737.392	6850.35473
737.82	6837.09735
738.247	6817.04212
738.675	6784.02202
739.102	6641.44154
739.53	6544.5837
739.957	6550.65595
740.384	6502.21652
740.811	6461.47107
741.238	6463.28059
741.665	6315.9481
742.092	6347.14861
742.519	6180.47989
742.945	6260.23662
743.372	6255.48045
743.798	6068.80878
744.225	6197.1818
744.651	6126.57419
745.077	6099.5464
745.503	6107.3583
745.929	6051.28165
746.355	6071.48919
746.781	5980.54754
747.207	6114.27074
747.632	6031.55791
748.058	5947.62678
748.483	6122.01705
748.908	6161.46964
749.334	6025.50621
749.759	6058.09751
750.184	5991.33345
750.609	6129.45885
751.033	6160.10719
751.458	6108.81022
751.883	6206.42812
752.307	6121.19582
752.732	6059.70739
753.156	6303.48337
753.58	6198.19571
754.005	6177.56504
754.429	6217.13779
754.853	6200.45118
755.277	6100.09834
755.7	6241.47093
756.124	6267.46409
756.548	6331.18173
756.971	6284.20559
757.394	6242.77017
757.818	6366.64266
758.241	6251.61683
758.664	6291.61639
759.087	6514.77427
759.51	6337.38621
759.933	6400.24522
760.356	6416.57713
760.778	6412.43119
761.201	6279.29034
761.623	6466.1287
762.046	6510.04139
762.468	6361.03073
762.89	6450.27015
763.312	6462.33496
763.734	6441.16314
764.156	6460.33841
764.578	6592.90531
765	6429.2905
765.421	6367.61522
765.843	6466.73122
766.264	6450.16346
766.686	6437.36251
767.107	6360.20087
767.528	6425.56814
767.949	6312.6024
768.37	6268.23671
768.791	6232.26953
769.212	6155.62566
769.632	6169.08984
770.053	6225.92066
770.473	6206.29929
770.894	6023.50107
771.314	6046.11361
771.734	5853.19861
772.154	6001.69691
772.575	5886.04618
772.994	5941.96633
773.414	5876.30514
773.834	5905.65284
774.254	5768.64328
774.673	5626.52935
775.093	5597.71646
775.512	5592.64191
775.931	5537.91486
776.351	5431.81593
776.77	5357.77289
777.189	5399.50173
777.607	5310.11206
778.026	5221.01926
778.445	5104.13961
778.864	5201.17709
779.282	5072.80677
779.701	4971.13577
780.119	5021.39813
780.537	4889.21337
780.955	4730.28221
781.373	4691.17249
781.791	4748.49508
782.209	4632.64832
782.627	4634.85892
783.045	4540.82613
783.462	4421.63548
783.88	4347.73875
784.297	4331.53852
784.715	4180.7955
785.132	4197.36065
785.549	4096.626
785.966	4023.63376
786.383	3981.49902
786.8	3989.09592
787.217	3871.29212
787.633	3749.7109
788.05	3715.23262
788.466	3661.11329
788.883	3661.8368
789.299	3659.43097
789.715	3551.58111
790.131	3535.76193
790.547	3295.67693
790.963	3403.74767
791.379	3375.846
791.795	3227.15736
792.21	3273.28527
792.626	3153.38409
793.041	3088.73854
793.457	3143.72897
793.872	3087.3585
794.287	3034.51883
794.702	2975.61795
795.117	2873.7525
795.532	2841.80207
795.947	2833.47434
796.362	2802.45392
796.776	2751.22138
797.191	2741.61791
797.605	2647.47477
798.02	2546.49434
798.434	2502.95433
798.848	2526.61166
799.262	2524.67204
799.676	2368.3833
800.09	2454.62059
800.504	2317.34572
800.918	2300.2116
801.331	2173.61412
801.745	2189.06479
802.158	2218.48853
802.572	2068.17924
802.985	2108.21576
803.398	2085.16808
803.811	2034.39018
804.224	1873.13835
804.637	1987.14175
805.05	1909.89024
805.462	1851.10777
805.875	1848.37819
806.288	1764.0215
806.7	1773.15782
807.112	1722.7332
807.525	1750.03363
807.937	1633.93324
808.349	1612.95902
808.761	1574.85608
809.173	1589.80768
809.584	1490.74373
809.996	1508.78524
810.408	1527.00081
810.819	1442.59064
811.231	1458.98136
811.642	1448.71762
812.053	1480.74548
812.464	1445.64674
812.875	1264.58902
813.286	1312.68983
813.697	1339.40546
814.108	1239.40433
814.519	1191.0853
814.929	1150.3922
815.34	1182.36018
815.75	1119.36204
816.16	1081.22223
816.571	1003.18136
816.981	1007.97417
817.391	1041.11214
817.801	1014.15927
818.211	921.84101
818.62	964.99762
819.03	949.97133
819.44	868.96128
819.849	839.82995
820.259	810.79904
820.668	816.77714
821.077	833.83446
821.486	807.69401
821.895	781.68112
822.304	701.67633
822.713	724.53866
823.122	704.58095
823.531	732.56242
823.939	688.51909
824.348	692.52411
824.756	683.55224
825.164	604.38059
825.573	590.389
825.981	582.32278
826.389	604.39772
826.797	557.27483
827.205	562.20334
827.612	549.26203
828.02	507.1202
828.428	536.27542
828.835	508.25294
829.243	505.13666
829.65	432.02013
830.057	454.04604
830.464	461.05734
830.871	464.04316
831.278	400.91874
831.685	488.02392
832.092	472.09493
832.499	367.77165
832.905	365.88561
833.312	422.91909
833.718	394.93997
834.124	401.87021
834.531	355.85748
834.937	309.75652
835.343	378.87829
835.749	329.731
836.155	291.73955
836.561	323.77608
836.966	331.78351
837.372	309.76408
837.777	300.73408
838.183	296.63649
838.588	256.61595
838.993	289.68385
839.399	232.56011
839.804	236.56783
840.209	282.7097
840.613	287.62709
841.018	206.51232
841.423	251.62977
841.828	251.62796
842.232	262.63134
842.637	252.58858
843.041	217.55405
843.445	207.51453
843.849	197.48199
844.253	246.57659
844.657	215.53907
845.061	238.53706
845.465	180.43458
845.869	263.60303
846.272	204.49624
846.676	139.33402
847.079	174.44561
847.483	183.44924
847.886	187.4432
848.289	186.49292
848.692	151.38189
849.095	167.40343
849.498	172.42715
849.901	118.27193
850.304	167.40114
850.707	136.34438
851.109	185.45851
851.512	191.47078
851.914	159.40798
852.316	124.31075
852.718	116.30279
853.121	144.35435
853.523	141.33637
853.925	139.3656
854.326	119.29753
854.728	139.3599
855.13	181.46864
855.531	169.40964
855.933	111.26471
856.334	142.35612
856.736	128.29227
857.137	81.19124
857.538	149.37844
857.939	155.38767
858.34	113.27689
858.741	129.33666
859.142	151.36437
859.542	101.26924
859.943	81.2034
860.343	90.22596
860.744	145.35279
861.144	85.20728
861.544	49.12194
861.945	139.35853
862.345	120.29399
862.745	132.33342
863.145	75.18084
863.544	67.17126
863.944	103.24365
864.344	113.2815
864.743	111.27441
865.143	106.27413
865.542	105.2478
865.941	113.28406
866.34	97.23415
866.74	57.15381
867.139	117.28605
867.537	68.17476
867.936	74.18183
868.335	103.26429
868.734	127.32997
869.132	107.25399
869.531	53.12867
869.929	126.29442
870.327	87.21303
870.726	95.2358
871.124	142.33545
871.522	81.20886
871.92	111.27702
872.318	63.15638
872.715	70.17308
873.113	92.22865
873.511	136.34414
873.908	83.21528
874.306	94.23879
874.703	54.1366
875.1	93.23872
875.497	85.20905
875.894	73.18403
876.291	64.15894
876.688	110.28889
877.085	45.10933
877.482	89.22429
877.878	86.21085
878.275	58.15046
878.671	100.22603
879.068	85.20759
879.464	57.14009
879.86	65.15632
880.256	64.15987
880.652	58.14989
881.048	64.15976
881.444	32.07694
881.84	44.11348
882.236	73.18502
882.631	111.27762
883.027	51.12455
883.422	51.13201
883.817	52.13555
884.213	100.25969
884.608	57.14354
885.003	88.21703
885.398	88.22569
885.793	57.14488
886.188	80.20431
886.582	43.11034
886.977	93.22382
887.371	16.04075
887.766	51.13004
888.16	79.19895
888.554	54.13416
888.949	42.10658
889.343	69.16964
889.737	51.13954
890.131	37.09371
890.525	11.02869
890.918	17.04332
891.312	23.05548
891.706	19.04989
892.099	43.10976
892.492	59.13137
892.886	34.08447
893.279	50.13007
893.672	-2.00513
894.065	62.15672
894.458	70.17996
894.851	62.15375
895.244	32.08296
895.637	74.18183
896.029	57.14133
896.422	52.12872
896.814	11.02791
897.206	31.07568
897.599	43.10704
897.991	21.05171
898.383	97.23522
898.775	92.21066
899.167	27.06537
899.559	30.07699
899.951	81.19324
900.342	34.08705
900.734	38.09776
901.125	63.16677
901.517	31.07824
901.908	102.24506
902.299	89.22405
902.69	85.20464
903.082	59.145
903.473	61.15042
903.863	65.16784
904.254	73.17449
904.645	109.27243
905.036	51.12677
905.426	70.16177
905.817	98.24391
906.207	70.17137
906.597	8.0191
906.987	60.15736
907.378	29.07408
907.768	72.19222
908.158	33.08215
908.547	14.03709
908.937	25.06462
909.327	84.20785
909.717	79.20051
910.106	19.04668
910.495	65.16445
910.885	92.23603
911.274	63.15951
911.663	28.07153
912.052	71.17559
912.441	46.11789
912.83	64.15101
913.219	34.08984
913.608	54.13387
913.997	47.12069
914.385	56.13521
914.774	31.07695
915.162	83.2024
915.55	29.07146
915.939	39.10025
916.327	43.10759
916.715	51.13178
917.103	42.10435
917.491	20.05
917.878	59.1449
918.266	1.00261
918.654	93.24113
919.041	13.03479
919.429	31.07529
919.816	38.09722
920.203	33.08209
920.591	33.08293
920.978	27.06636
921.365	36.09589
921.752	73.17775
922.139	65.14599
922.525	119.29148
922.912	42.10377
923.299	41.10417
923.685	87.22922
924.072	70.16164
924.458	39.09839
924.844	38.09626
925.231	46.10985
925.617	54.14014
926.003	66.16998
926.389	64.16379
926.774	49.126
927.16	49.12371
927.546	54.14124
927.931	67.16933
928.317	28.06558
928.702	17.04085
929.088	52.12655
929.473	42.10821
929.858	0
930.243	49.12043
930.628	55.13801
931.013	13.03309
931.398	53.12338
931.783	43.11364
932.167	53.13333
932.552	12.03039
932.937	48.12051
933.321	45.11531
933.705	39.10042
934.09	38.09633
934.474	62.14907
934.858	65.17022
935.242	28.06699
935.626	32.08399
936.009	-9.0241
936.393	24.062
936.777	55.1429
937.16	10.02634
937.544	6.01442
937.927	38.09889
938.311	70.17194
938.694	2.00535
939.077	24.05889
939.46	12.02931
939.843	113.24284
940.226	56.14553
940.609	91.21643
940.991	39.10105
941.374	56.13958
941.757	13.03253
942.139	91.21168
942.522	50.11912
942.904	54.1322
943.286	15.03852
943.668	54.14187
944.05	57.14293
944.432	69.17457
944.814	25.0621
945.196	65.16316
945.578	41.10192
945.959	42.10091
946.341	19.04651
946.722	61.14525
947.104	53.12939
947.485	22.05262
947.866	96.24784
948.247	-22.05652
948.628	23.05667
949.009	95.2464
949.39	20.05059
949.771	48.11427
950.152	68.17054
950.532	17.04339
950.913	66.16152
951.293	56.15329
951.674	116.2885
952.054	50.12769
952.434	27.06812
952.814	61.14775
953.194	48.12602
953.574	-4.00997
953.954	5.01223
954.334	73.18463
954.714	38.09513
955.093	39.0968
955.473	-5.01277
955.853	25.06547
956.232	20.05492
956.611	31.07571
956.99	57.14652
957.37	33.08577
957.749	58.14162
958.128	61.15724
958.506	59.15686
958.885	56.14407
959.264	77.19474
959.643	32.07433
960.021	82.20676
960.4	7.01649
960.778	76.18888
961.156	64.16374
961.535	-2.00479
961.913	64.15265
962.291	56.14812
962.669	-1.00258
963.047	2.00518
963.424	30.07764
963.802	62.15566
964.18	31.07944
964.557	54.12702
964.935	39.09439
965.312	20.05276
965.69	2.00507
966.067	76.1882
966.444	13.03248
966.821	19.04959
967.198	46.11299
967.575	27.06663
967.952	59.14097
968.329	61.15108
968.705	37.08102
969.082	62.16195
969.458	54.13416
969.835	29.07183
970.211	61.1598
970.587	30.07586
970.963	54.13951
971.339	20.0532
971.715	34.08622
972.091	45.11276
972.467	49.1241
972.843	23.05836
973.219	53.12741
973.594	73.19492
973.97	44.10612
974.345	15.037
974.721	-15.03681
975.096	45.1108
975.471	61.14725
975.846	22.05388
976.221	52.13555
976.596	55.13522
976.971	41.10273
977.346	50.11775
977.72	48.12444
978.095	56.14687
978.469	29.07038
978.844	37.09345
979.218	-20.04938
979.593	18.04397
979.967	71.17495
980.341	36.08458
980.715	63.16132
981.089	-11.02791
981.463	89.21127
981.837	26.06535
982.21	29.06865
982.584	58.14278
982.957	76.19327
983.331	94.22507
983.704	-43.10728
984.078	12.03043
984.451	-1.00251
984.824	34.08496
985.197	24.05932
985.57	24.06127
985.943	32.07953
986.316	65.1611
986.688	43.10498
987.061	117.2788
987.434	38.10041
987.806	83.20391
988.179	55.13337
988.551	61.15702
988.923	22.05527
989.295	9.02249
989.667	29.07177
990.039	67.16933
990.411	2.00475
990.783	38.08925
991.155	60.14972
991.527	30.07434
991.898	60.15242
992.27	7.01767
992.641	24.06095
993.012	45.10789
993.384	-7.01706
993.755	57.1482
994.126	-2.00492
994.497	-3.00759
994.868	76.17856
995.239	23.05665
995.61	34.08763
995.98	47.11751
996.351	5.01269
996.722	15.03639
997.092	7.01715
997.462	33.07984
997.833	9.02178
998.203	15.03692
998.573	25.06327
998.943	86.20599
999.313	41.10099
999.683	80.19716
1000.053	42.09945
1000.423	1.00247
1000.792	57.15043
1001.162	37.09224
1001.531	23.05798
1001.901	76.19403
1002.27	35.08039
1002.639	63.16369
1003.009	-4.00972
1003.378	-4.01037
1003.747	65.1578
1004.116	32.07863
1004.485	15.03644
1004.853	33.08489
1005.222	55.13925
1005.591	29.07016
1005.959	57.13348
1006.328	22.05116
1006.696	45.1119
1007.064	12.03068
1007.433	51.12871
1007.801	28.06926
1008.169	49.12402
1008.537	80.1809
1008.905	41.09852
1009.273	44.10916
1009.64	56.13796
1010.008	68.16548
1010.375	9.02167
1010.743	98.22683
1011.11	36.08771
1011.478	-16.04047
1011.845	29.06953
1012.212	26.06104
1012.579	29.07206
1012.946	49.11829
1013.313	36.08662
1013.68	41.09398
1014.047	42.10313
1014.414	48.11646
1014.78	28.07045
1015.147	-9.02205
1015.513	27.06665
1015.88	36.0922
1016.246	-5.01241
1016.612	3.00698
1016.978	35.08738
1017.344	38.09623
1017.71	9.02207
1018.076	1.00241
1018.442	55.14152
1018.808	56.14216
1019.174	49.12538
1019.539	61.1396
1019.905	21.05079
1020.27	30.07602
1020.636	31.07574
1021.001	6.01466
1021.366	33.08122
1021.731	-6.01555
1022.096	17.04394
1022.461	40.09654
1022.826	18.04371
1023.191	1.00266
1023.556	55.13217
1023.92	25.0621
1024.285	-16.04013
1024.649	51.12714
1025.014	47.11832
1025.378	37.09478
1025.742	86.2163
1026.107	25.05767
1026.471	16.03767
1026.835	51.12931
1027.199	71.17739
1027.562	8.01911
1027.926	42.104
1028.29	80.20596
1028.654	27.06377
1029.017	14.03478
1029.381	26.0637
1029.744	9.02323
1030.107	53.12693
1030.471	5.01214
1030.834	36.08339
1031.197	13.03158
1031.56	-6.01449
1031.923	13.03415
1032.286	32.07642
1032.648	62.15167
1033.011	-32.07571
1033.374	52.12284
1033.736	30.0803
1034.099	116.28609
1034.461	-22.05674
1034.823	-5.01271
1035.185	34.08692
1035.548	47.11704
1035.91	42.10255
1036.272	2.00464
1036.634	66.1614
1036.995	74.17799
1037.357	37.09191
1037.719	7.0172
1038.08	20.04827
1038.442	-4.00973
1038.803	20.04885
1039.165	57.14713
1039.526	67.16375
1039.887	54.13181
1040.248	8.02014
1040.609	28.06944
1040.97	54.13475
1041.331	25.06431
1041.692	66.16007
1042.053	80.18547
1042.413	69.16329
1042.774	75.18351
1043.134	58.14057
1043.495	65.16381
1043.855	27.06672
1044.215	18.04582
1044.576	16.03981
1044.936	56.13049
1045.296	56.1412
1045.656	27.06692
1046.016	30.07317
1046.375	24.05895
1046.735	65.15114
1047.095	-13.03132
1047.454	28.06094
1047.814	74.17995
1048.173	-36.08639
1048.533	15.03522
1048.892	19.04726
1049.251	21.05368
1049.61	-5.0126
1049.969	66.16038
1050.328	18.04022
1050.687	22.05448
1051.046	0
1051.405	59.14996
1051.763	28.06635
1052.122	15.03821
1052.48	1.00248
1052.839	39.09368
1053.197	-12.02927
1053.555	48.10792
1053.914	26.06393
1054.272	13.03163
1054.63	30.07551
1054.988	30.0732
1055.345	24.05336
1055.703	57.13853
1056.061	-16.04196
1056.419	-3.00791
1056.776	15.03663
1057.134	26.06183
1057.491	24.06082
1057.848	17.04263
1058.206	32.07706
1058.563	76.17017
1058.92	4.00934
1059.277	36.08977
1059.634	27.06459
1059.991	84.20319
1060.348	46.10719
1060.704	29.07104
1061.061	40.09394
1061.418	-26.06464
1061.774	15.03786
1062.131	28.07552
1062.487	16.03844
1062.843	43.10786
1063.199	37.09418
1063.555	34.08144
1063.911	-4.0102
1064.267	61.12911
1064.623	10.02493
1064.979	75.17865
1065.335	32.07717
1065.691	-12.02938
1066.046	-23.05107
1066.402	43.10129
1066.757	34.0865
1067.112	14.03473
1067.468	101.24776
1067.823	38.09351
1068.178	44.1072
1068.533	34.08404
1068.888	44.10624
1069.243	6.0151
1069.598	15.03731
1069.952	30.07013
1070.307	44.11225
1070.662	29.06998
1071.016	30.06919
1071.371	-14.03277
1071.725	11.02679
1072.079	-4.00979
1072.434	18.04495
1072.788	33.08053
1073.142	59.14746
1073.496	-1.00243
1073.85	-17.0402
1074.203	66.16475
1074.557	10.02705
1074.911	27.06481
1075.265	-1.00239
1075.618	21.05169
1075.971	27.06545
1076.325	26.06736
1076.678	33.07837
1077.031	40.09332
1077.385	73.16538
1077.738	54.12509
1078.091	-7.01658
1078.444	37.08763
1078.796	-8.01998
1079.149	40.10032
1079.502	59.14436
1079.855	69.16461
1080.207	57.1419
1080.56	19.04981
1080.912	-1.00247
1081.264	59.14409
1081.617	50.12535
1081.969	45.11632
1082.321	15.03715
1082.673	12.02855
1083.025	37.08992
1083.377	107.2339
1083.728	20.0473
1084.08	17.04309
1084.432	42.10347
1084.783	45.10682
1085.135	50.12715
1085.486	50.1188
1085.838	33.08296
1086.189	-12.0297
1086.54	25.0606
1086.891	23.05959
1087.242	9.02218
1087.593	36.08872
1087.944	-15.03474
1088.295	25.05815
1088.646	27.06724
1088.996	14.03443
1089.347	-2.00502
1089.698	-3.00733
1090.048	-36.09432
1090.398	39.0914
1090.749	52.12659
1091.099	53.13799
1091.449	15.03803
1091.799	35.08921
1092.149	72.18174
1092.499	-18.04496
1092.849	67.173
1093.199	7.01769
1093.548	43.10588
1093.898	43.1093
1094.248	13.03378
1094.597	28.07393
1094.947	-15.04061
1095.296	0
1095.645	50.13096
1095.994	31.07531
1096.343	25.06381
1096.692	73.19839
1097.041	-49.1348
1097.39	89.22709
1097.739	14.03692
1098.088	40.1082
1098.437	0
1098.785	19.05127
1099.134	17.04548
1099.482	19.05289
1099.83	30.07903
1100.179	29.07762
1100.527	-9.02421
1100.875	22.05897
1101.223	27.07233
1101.571	14.03917
1101.919	16.04311
1102.267	8.02273
1102.615	-6.01938
1102.962	0
1103.31	1.00322
1103.658	9.02904
