Data from N2 R0 105C sample8_Subt2__5__12-14-18-034.txt Node

Date: Tue Aug 19 12:14:18 PDT 2025
User: uwsun
Spectrometer: HDX01956
Trigger mode: 0
Integration Time (sec): 5.000000E-1
Scans to average: 1
Nonlinearity correction enabled: true
Boxcar width: 0
Storing dark spectrum: false
XAxis mode: Wavelengths
Number of Pixels in Spectrum: 2068
>>>>>Begin Spectral Data<<<<<
194.03	161.46199
194.578	167.53467
195.127	168.53071
195.676	173.54818
196.225	200.53937
196.773	221.6169
197.321	310.85921
197.87	406.04221
198.418	423.07023
198.966	390.01599
199.513	349.87401
200.061	407.02967
200.609	390.01841
201.156	364.80557
201.704	403.01592
202.251	404.06649
202.798	410.05652
203.345	414.01478
203.892	383.96292
204.438	423.00404
204.985	431.02856
205.532	412.07268
206.078	465.12464
206.624	433.05811
207.17	473.08361
207.716	425.02658
208.262	444.87327
208.808	438.08282
209.354	497.18951
209.899	405.00457
210.445	423.05083
210.99	391.95258
211.535	476.10945
212.08	455.0598
212.625	453.12058
213.17	449.11756
213.715	525.17451
214.259	462.06366
214.804	424.0282
215.348	415.94345
215.892	461.08559
216.436	476.08505
216.98	435.96888
217.524	389.92111
218.068	490.21822
218.612	438.08599
219.155	416.97456
219.698	407.96744
220.242	401.99149
220.785	396.92046
221.328	405.99476
221.871	393.97812
222.414	410.00718
222.956	433.04437
223.499	402.90521
224.041	426.98391
224.583	403.85703
225.126	361.80176
225.668	389.93745
226.21	397.98878
226.751	417.91918
227.293	411.94494
227.835	420.01962
228.376	392.89929
228.918	389.97484
229.459	381.94688
230	360.85559
230.541	460.06031
231.082	355.84939
231.622	366.84201
232.163	396.95557
232.704	375.92077
233.244	419.0227
233.784	411.99306
234.324	401.89908
234.864	365.83283
235.404	397.93606
235.944	398.93422
236.484	379.92852
237.023	423.99734
237.563	352.81789
238.102	382.88968
238.641	359.90552
239.18	435.01233
239.719	381.94826
240.258	426.95296
240.797	398.95314
241.335	405.98262
241.874	419.82623
242.412	381.92234
242.95	420.99814
243.488	434.98843
244.026	411.93928
244.564	429.88372
245.102	396.88952
245.64	412.97461
246.177	416.93443
246.715	469.1036
247.252	467.054
247.789	498.92878
248.326	444.06025
248.863	459.00551
249.4	431.97347
249.936	466.94633
250.473	464.06997
251.009	445.01895
251.546	431.94645
252.082	404.88699
252.618	419.92707
253.154	471.11819
253.69	403.90059
254.226	446.04511
254.761	448.01083
255.297	359.78937
255.832	412.96141
256.367	478.10887
256.903	401.8717
257.438	404.94127
257.972	467.03339
258.507	428.985
259.042	471.02013
259.576	492.05776
260.111	444.01116
260.645	401.8602
261.179	395.91795
261.713	439.98062
262.247	426.98196
262.781	429.90557
263.315	462.11549
263.849	469.15218
264.382	454.02273
264.915	465.08483
265.449	459.12134
265.982	521.16268
266.515	449.0671
267.048	403.87232
267.58	458.99452
268.113	469.00628
268.646	478.15678
269.178	415.93008
269.71	453.98722
270.243	422.9549
270.775	416.03547
271.307	407.96893
271.838	458.05192
272.37	481.15248
272.902	492.09447
273.433	410.88652
273.965	451.07761
274.496	436.05182
275.027	428.04374
275.558	462.09868
276.089	446.08771
276.62	492.21254
277.15	453.0791
277.681	474.02205
278.211	407.96335
278.741	458.00437
279.272	476.06582
279.802	477.15285
280.332	461.06832
280.861	494.15914
281.391	466.03996
281.921	494.15914
282.45	516.24841
282.98	484.22286
283.509	458.00986
284.038	474.06264
284.567	459.0397
285.096	522.22589
285.625	516.15127
286.153	468.06849
286.682	478.0747
287.21	497.16823
287.739	493.14531
288.267	442.05265
288.795	469.17712
289.323	505.16722
289.851	525.20294
290.378	486.07484
290.906	513.21151
291.433	505.21007
291.961	540.18602
292.488	525.25375
293.015	549.25901
293.542	545.33371
294.069	462.10205
294.596	491.17111
295.122	518.1985
295.649	495.06445
296.175	543.28295
296.702	542.26005
297.228	525.22551
297.754	570.25777
298.28	506.12659
298.806	519.20722
299.332	539.16967
299.857	520.1425
300.383	560.35041
300.908	550.28922
301.433	531.23566
301.958	566.24581
302.483	554.32788
303.008	547.29689
303.533	525.29942
304.058	520.19027
304.582	582.32331
305.107	554.38998
305.631	539.1796
306.155	545.23184
306.679	507.14303
307.203	567.27069
307.727	610.37418
308.251	598.40295
308.775	590.34855
309.298	637.46629
309.822	588.41372
310.345	666.50167
310.868	628.42053
311.391	624.44747
311.914	592.41474
312.437	606.3217
312.96	651.446
313.482	642.43396
314.005	700.63985
314.527	646.59653
315.049	607.43598
315.571	700.48696
316.093	703.62731
316.615	686.55812
317.137	658.35879
317.659	708.6146
318.18	662.48353
318.702	679.47077
319.223	717.41359
319.744	713.5031
320.265	678.54553
320.786	765.75339
321.307	717.65711
321.828	769.62198
322.348	804.74656
322.869	772.70681
323.389	505.75692
323.909	756.60046
324.43	778.7015
324.95	840.75289
325.47	760.70887
325.989	812.74901
326.509	799.63079
327.029	832.70013
327.548	851.73782
328.067	881.93048
328.587	826.85806
329.106	788.61668
329.625	853.99555
330.144	855.80115
330.662	830.72436
331.181	880.84696
331.7	945.97171
332.218	937.8221
332.736	950.97122
333.255	953.95683
333.773	895.88216
334.291	943.05248
334.808	988.95825
335.326	1013.00214
335.844	1022.08058
336.361	1033.26746
336.879	1024.10724
337.396	1048.1721
337.913	1105.15594
338.43	1089.09665
338.947	1054.13517
339.464	1075.98416
339.981	1092.20826
340.497	1113.29729
341.014	1081.25597
341.53	1065.02686
342.046	1115.29426
342.562	1179.45312
343.078	1183.32039
343.594	1188.34711
344.11	1201.33815
344.626	1197.49719
345.141	1237.28601
345.657	1231.25348
346.172	1214.40303
346.687	1280.39559
347.202	1292.33898
347.717	1318.52721
348.232	1279.58171
348.747	1299.41046
349.261	1333.34239
349.776	1335.49945
350.29	1299.60428
350.805	1437.80648
351.319	1350.51219
351.833	1302.34051
352.347	1393.54988
352.861	1400.52891
353.374	1369.44086
353.888	1433.68089
354.401	1447.56082
354.915	1497.55872
355.428	1429.74253
355.941	1475.64012
356.454	1524.55068
356.967	1466.62061
357.48	1448.52508
357.993	1500.79638
358.505	1460.71358
359.018	1521.7948
359.53	1639.91138
360.042	1537.52471
360.554	1544.77053
361.066	1560.84191
361.578	1516.43734
362.09	1606.77314
362.602	1610.56957
363.113	1633.77503
363.625	1653.67524
364.136	1661.60042
364.647	1719.89284
365.158	1772.84358
365.669	1733.90879
366.18	1754.86944
366.691	1687.62498
367.201	1771.95878
367.712	1845.86409
368.222	1793.82073
368.733	1789.7203
369.243	1859.77715
369.753	1984.04273
370.263	1962.1165
370.773	1875.0762
371.282	1994.06892
371.792	2007.06349
372.301	2015.1634
372.811	2094.46898
373.32	2053.70975
373.829	2076.0965
374.338	2281.90875
374.847	2353.11645
375.356	2373.21525
375.865	2473.74225
376.373	2579.04468
376.882	2637.51712
377.39	2686.29848
377.898	2688.41176
378.407	2864.92753
378.915	2990.69607
379.423	3071.12044
379.93	3215.81736
380.438	3276.23333
380.946	3568.95018
381.453	3671.95752
381.96	3807.79619
382.468	4122.6348
382.975	4274.55978
383.482	4418.95137
383.989	4404.76085
384.495	4574.99597
385.002	4831.38005
385.509	5057.8477
386.015	5479.67799
386.521	5726.15358
387.028	6052.91537
387.534	6323.70516
388.04	6292.98811
388.546	6623.75268
389.051	6835.65935
389.557	7431.06196
390.063	7900.49424
390.568	8163.8638
391.073	8403.20065
391.578	8774.90733
392.084	8921.33665
392.589	9187.21396
393.093	10003.70704
393.598	10811.64787
394.103	11751.01015
394.607	13019.97538
395.112	14040.79944
395.616	14797.20123
396.12	16071.16586
396.624	17520.83855
397.128	18965.3787
397.632	20907.63902
398.136	22473.4034
398.639	23972.51679
399.143	26617.03446
399.646	30162.72609
400.15	33109.46254
400.653	36443.57423
401.156	41530.9727
401.659	47768.82533
402.162	56520.88219
402.664	53962.07556
403.167	49329.08451
403.67	22278.45323
404.172	2696.20453
404.674	0
405.176	0
405.678	0
406.18	0
406.682	0
407.184	0
407.686	25783.58453
408.187	43316.52985
408.688	51225.60928
409.19	54389.01922
409.691	56215.4214
410.192	57270.57019
410.693	57845.40442
411.194	58219.2365
411.694	58633.01717
412.195	59215.68848
412.696	57664.83609
413.196	54882.81831
413.696	54910.28012
414.196	55815.61628
414.696	54638.02461
415.196	52418.94586
415.696	46853.1215
416.196	36686.63491
416.695	28387.34899
417.195	25080.08188
417.694	24319.33527
418.194	22587.30698
418.693	21228.21091
419.192	20729.25053
419.691	20467.09002
420.19	19943.9339
420.688	19298.10269
421.187	18512.84828
421.685	17202.28971
422.184	15415.36037
422.682	13018.4201
423.18	11163.39723
423.678	9999.69386
424.176	9402.5848
424.674	8824.09521
425.172	8400.20854
425.669	7851.55988
426.167	7368.07256
426.664	6733.83194
427.161	6244.8265
427.659	5696.43159
428.156	5265.93396
428.652	5040.19891
429.149	4801.0753
429.646	4648.66675
430.143	4437.2723
430.639	4039.47997
431.135	3984.93872
431.632	3763.53879
432.128	3572.93825
432.624	3325.42789
433.12	3241.74484
433.616	3207.59008
434.111	3039.0434
434.607	2862.15234
435.103	2886.51244
435.598	2830.5261
436.093	2713.08877
436.588	2481.78247
437.083	2350.8395
437.578	2286.97308
438.073	2222.3384
438.568	2126.14268
439.062	2083.65174
439.557	1979.93498
440.051	1954.76402
440.546	1801.70839
441.04	1943.03665
441.534	1814.15034
442.028	1834.90813
442.522	1736.85375
443.015	1715.54076
443.509	1712.91261
444.002	1668.87789
444.496	1613.50139
444.989	1591.7622
445.482	1597.85522
445.975	1615.6437
446.468	1623.43882
446.961	1529.39314
447.454	1553.50362
447.947	1500.64486
448.439	1413.52481
448.931	1474.48244
449.424	1428.68128
449.916	1501.70599
450.408	1368.35005
450.9	1404.60532
451.392	1303.55146
451.884	1307.31079
452.375	1332.60287
452.867	1307.26911
453.358	1323.33438
453.849	1249.08047
454.341	1247.21792
454.832	1261.13265
455.323	1216.36908
455.814	1291.32714
456.304	1247.26235
456.795	1192.19331
457.285	1175.0679
457.776	1193.15095
458.266	1188.26757
458.756	1115.16218
459.247	1141.22319
459.737	1104.18593
460.226	1128.08242
460.716	1116.20973
461.206	1043.09608
461.695	987.06228
462.185	983.93611
462.674	1044.03044
463.163	942.76375
463.653	1077.90097
464.142	967.99094
464.63	984.05103
465.119	938.85299
465.608	979.93904
466.096	928.7392
466.585	871.74899
467.073	882.81785
467.561	900.86078
468.05	928.85373
468.538	893.8944
469.026	788.67334
469.513	1003.94785
470.001	798.59967
470.489	795.68492
470.976	819.6777
471.463	764.68912
471.951	777.71323
472.438	757.58967
472.925	739.54979
473.412	774.67423
473.899	748.52762
474.385	728.59744
474.872	778.6485
475.359	688.53679
475.845	753.42076
476.331	620.21778
476.817	705.54531
477.303	638.36453
477.789	652.43894
478.275	617.40665
478.761	633.41238
479.247	644.34886
479.732	607.40606
480.218	608.45909
480.703	595.37443
481.188	578.16506
481.673	521.13343
482.158	592.20536
482.643	496.17606
483.128	545.17869
483.612	549.20556
484.097	495.13274
484.581	484.06462
485.066	508.17626
485.55	503.06498
486.034	417.87175
486.518	547.22531
487.002	489.15832
487.486	480.11747
487.969	484.13785
488.453	460.09518
488.936	472.036
489.42	413.88556
489.903	436.04468
490.386	427.70018
490.869	447.94149
491.352	442.0329
491.835	413.84119
492.318	448.00507
492.8	467.95031
493.283	418.0348
493.765	398.95749
494.247	394.89663
494.73	384.83883
495.212	402.94251
495.694	379.87104
496.175	374.88373
496.657	410.94547
497.139	433.75775
497.62	356.8386
498.102	429.03003
498.583	343.84067
499.064	395.88563
499.545	368.83443
500.026	368.8229
500.507	361.832
500.988	394.9615
501.469	338.84143
501.949	400.96813
502.43	407.9559
502.91	398.83074
503.39	316.77551
503.87	411.95927
504.35	344.79899
504.83	375.82419
505.31	368.87426
505.79	407.96446
506.269	442.01267
506.749	347.79113
507.228	399.93017
507.707	390.85842
508.187	429.98592
508.666	425.02311
509.145	433.00015
509.623	351.81347
510.102	454.06804
510.581	394.92231
511.059	381.94102
511.538	443.099
512.016	520.20646
512.494	484.1352
512.972	451.04139
513.45	489.11092
513.928	518.22263
514.406	540.26575
514.884	537.31849
515.361	612.39216
515.839	609.32348
516.316	548.266
516.793	586.39773
517.27	563.2798
517.747	619.49365
518.224	642.40799
518.701	674.43043
519.178	609.41237
519.654	626.39358
520.131	590.37231
520.607	625.44608
521.083	645.38933
521.56	648.45392
522.036	592.24527
522.512	576.32338
522.987	657.47081
523.463	627.41798
523.939	555.29462
524.414	567.24619
524.89	533.21299
525.365	555.21671
525.84	540.25342
526.315	531.23663
526.79	529.15525
527.265	526.177
527.74	493.15792
528.215	473.09401
528.689	456.99986
529.164	482.01888
529.638	425.06805
530.112	437.01979
530.587	404.86906
531.061	389.93213
531.534	398.94042
532.008	385.92219
532.482	339.76822
532.956	346.87227
533.429	366.87887
533.903	357.78728
534.376	334.74288
534.849	346.80617
535.322	374.87859
535.795	352.8536
536.268	314.75146
536.741	348.82962
537.213	302.70451
537.686	341.83391
538.158	297.67442
538.631	322.7753
539.103	331.7571
539.575	296.62471
540.047	345.76241
540.519	373.88801
540.991	320.77922
541.463	309.75146
541.934	295.68642
542.406	333.79919
542.877	320.73944
543.348	347.83626
543.82	269.65909
544.291	335.77948
544.762	319.75745
545.233	358.89055
545.703	342.76635
546.174	325.76187
546.645	314.76119
547.115	343.83319
547.585	349.80307
548.056	374.91101
548.526	408.96366
548.996	362.86134
549.466	382.91553
549.935	380.89894
550.405	346.76765
550.875	361.85186
551.344	384.91927
551.814	392.90361
552.283	382.82069
552.752	444.02296
553.221	445.98458
553.69	389.85855
554.159	444.07719
554.628	452.00409
555.096	475.18023
555.565	472.04426
556.033	443.02085
556.502	401.96087
556.97	370.82499
557.438	439.01885
557.906	385.90566
558.374	407.92976
558.842	384.9077
559.31	400.89629
559.777	346.83433
560.245	399.93493
560.712	424.98046
561.18	453.01027
561.647	439.97616
562.114	439.99477
562.581	437.05086
563.048	461.04593
563.514	482.15115
563.981	427.96601
564.448	517.13566
564.914	538.21525
565.381	533.17577
565.847	585.3186
566.313	589.32006
566.779	549.1828
567.245	653.45165
567.711	666.51327
568.176	647.39006
568.642	704.65308
569.108	695.60688
569.573	786.72912
570.038	856.67108
570.504	745.54727
570.969	886.02195
571.434	859.75971
571.899	852.86106
572.363	889.83433
572.828	929.89639
573.293	976.99196
573.757	1005.0168
574.222	1104.16463
574.686	1130.22402
575.15	1115.28709
575.614	1150.2529
576.078	1107.26456
576.542	1190.29213
577.006	1164.23446
577.469	1230.54185
577.933	1182.29403
578.396	1168.3354
578.86	1245.45366
579.323	1208.46535
579.786	1293.30244
580.249	1271.45259
580.712	1289.60192
581.175	1221.53163
581.637	1151.21948
582.1	1266.31951
582.563	1269.23753
583.025	1253.54064
583.487	1169.02422
583.95	1220.24723
584.412	1224.16623
584.874	1252.50591
585.336	1185.37216
585.797	1247.24298
586.259	1253.45682
586.721	1209.38369
587.182	1208.3435
587.643	1222.32031
588.105	1242.46879
588.566	1206.10233
589.027	1272.56232
589.488	1238.35871
589.949	1270.54665
590.41	1289.06463
590.87	1245.32591
591.331	1286.24947
591.791	1413.65109
592.252	1358.54698
592.712	1377.65131
593.172	1430.59244
593.632	1482.56451
594.092	1550.67445
594.552	1541.56332
595.011	1556.76531
595.471	1646.72082
595.931	1679.77206
596.39	1818.20159
596.849	1829.08034
597.308	1943.90642
597.768	2023.63723
598.227	2013.28201
598.685	2031.09356
599.144	2252.37457
599.603	2495.58862
600.062	2478.0849
600.52	2628.33187
600.978	2780.59791
601.437	2878.4005
601.895	3016.06713
602.353	3212.25594
602.811	3371.36996
603.269	3591.71964
603.727	3814.6887
604.184	3975.27418
604.642	4269.6222
605.099	4466.10268
605.557	4729.34248
606.014	4888.56026
606.471	5163.3373
606.928	5622.18346
607.385	5718.9476
607.842	6062.13579
608.299	6501.22517
608.755	6692.3651
609.212	6971.83254
609.668	7436.98799
610.125	7698.42071
610.581	7959.43378
611.037	8320.60898
611.493	8544.95441
611.949	8809.45369
612.405	9226.8563
612.861	9552.62838
613.316	9997.71853
613.772	10147.15687
614.227	10402.90319
614.683	10824.68912
615.138	10957.91109
615.593	11164.77185
616.048	11558.68074
616.503	11582.42872
616.958	11885.70095
617.412	11801.65634
617.867	11942.76764
618.321	12159.43925
618.776	12175.04499
619.23	12273.26098
619.684	12286.58899
620.138	12277.38856
620.592	12431.86592
621.046	12345.71837
621.5	12338.26812
621.954	12216.2115
622.407	12061.41616
622.861	12183.50572
623.314	12073.36354
623.768	11989.7049
624.221	12094.36262
624.674	11928.48142
625.127	11961.5836
625.58	12012.02955
626.033	11894.65564
626.485	11943.30292
626.938	11918.24431
627.39	11872.09047
627.843	12036.02602
628.295	11861.16944
628.747	12161.54681
629.199	12238.28877
629.651	12362.98305
630.103	12467.52333
630.555	12652.46239
631.006	12703.89087
631.458	12891.98284
631.909	13214.65149
632.361	13478.23955
632.812	13859.1848
633.263	14390.73833
633.714	14628.05311
634.165	15066.90856
634.616	15442.92588
635.067	15823.43708
635.518	16347.5539
635.968	16895.32709
636.419	17567.74151
636.869	18107.66741
637.319	18861.00391
637.769	19608.72729
638.219	20570.33016
638.669	21257.59675
639.119	22293.79142
639.569	23287.8996
640.019	24225.69018
640.468	25278.27224
640.918	26469.79802
641.367	27528.93042
641.816	28815.40261
642.265	30050.8998
642.714	31281.72834
643.163	32426.51147
643.612	33787.85419
644.061	34785.94275
644.51	36304.24362
644.958	37628.53442
645.406	38814.08582
645.855	40241.00183
646.303	41392.62696
646.751	42614.20771
647.199	43908.17114
647.647	45203.99757
648.095	46279.22555
648.543	47260.75877
648.99	48412.4164
649.438	49051.68068
649.885	50306.27241
650.333	50667.4729
650.78	51462.77854
651.227	52312.55804
651.674	52622.60285
652.121	53076.95237
652.568	53484.25106
653.015	53568.91627
653.461	53697.61491
653.908	53783.57442
654.354	53165.18991
654.801	53050.40692
655.247	52860.33264
655.693	52838.26168
656.139	52518.9191
656.585	51908.19102
657.031	51866.78541
657.477	51665.90736
657.922	51039.55145
658.368	50809.78408
658.813	50460.42421
659.259	50135.3415
659.704	49711.75484
660.149	49037.3033
660.594	48755.51579
661.039	47981.82759
661.484	47682.24957
661.929	47468.40423
662.373	47227.0486
662.818	47208.4711
663.262	46888.93343
663.707	46782.02724
664.151	46825.65646
664.595	46768.42631
665.039	47156.89862
665.483	47023.22491
665.927	47428.72498
666.371	47718.13235
666.814	47973.45229
667.258	48328.3561
667.701	48552.56733
668.145	48604.90264
668.588	49094.21669
669.031	49766.61248
669.474	50028.72092
669.917	50569.54597
670.36	51152.9836
670.803	52141.11881
671.245	52027.92485
671.688	52197.61981
672.13	52859.64649
672.573	53015.97923
673.015	54026.46992
673.457	54246.07098
673.899	54426.14483
674.341	55159.27483
674.783	55616.48015
675.225	55439.27251
675.666	55932.46617
676.108	56273.91173
676.549	56402.50841
676.991	56193.79794
677.432	56313.73944
677.873	55886.70399
678.314	55761.64666
678.755	55194.58544
679.196	54811.44457
679.637	54307.99649
680.078	53857.20737
680.518	53283.94831
680.959	52732.39192
681.399	52307.31681
681.839	52039.87208
682.28	51178.90499
682.72	50175.60535
683.16	49331.81269
683.6	48559.31658
684.039	47761.23212
684.479	47431.35619
684.919	46623.97543
685.358	46337.94832
685.798	45795.58627
686.237	45146.20944
686.676	44330.28839
687.115	43673.95154
687.554	43531.09207
687.993	42628.42567
688.432	41966.72381
688.871	40929.483
689.309	40846.14464
689.748	40524.43412
690.186	40246.79299
690.625	39925.14652
691.063	39267.95727
691.501	39106.42252
691.939	38432.6336
692.377	38221.19073
692.815	37679.97354
693.253	37495.49107
693.69	36910.85598
694.128	36613.2377
694.565	35847.54108
695.003	35672.25318
695.44	34982.6268
695.877	34620.5789
696.314	34075.49032
696.751	33813.52413
697.188	33272.50188
697.625	33044.69111
698.061	32392.80869
698.498	31970.94263
698.934	31505.22595
699.371	30952.99952
699.807	30321.55199
700.243	29827.65053
700.679	29537.72784
701.115	28842.28061
701.551	28317.82453
701.987	27824.63766
702.422	27306.7593
702.858	26920.14381
703.294	26743.00316
703.729	26001.96935
704.164	25577.56263
704.599	25080.76066
705.035	24575.04339
705.47	24161.83993
705.904	23756.31653
706.339	23393.43774
706.774	22696.30785
707.209	22388.10361
707.643	22134.31361
708.078	21683.97845
708.512	21310.99201
708.946	20779.40271
709.38	20615.08405
709.814	20057.21735
710.248	19706.71699
710.682	19560.94701
711.116	18960.40652
711.549	18454.43551
711.983	18118.5689
712.416	17684.70011
712.85	17516.24752
713.283	17169.20322
713.716	16906.21092
714.149	16385.48615
714.582	16103.04447
715.015	15764.99899
715.448	15318.19388
715.881	14970.37721
716.313	14770.10429
716.746	14521.70407
717.178	14095.94411
717.61	14033.91354
718.043	13725.64848
718.475	13301.86728
718.907	12965.09913
719.339	12804.91137
719.77	12545.90568
720.202	12267.87437
720.634	12059.86392
721.065	11650.00967
721.497	11408.73497
721.928	11278.12157
722.359	10970.88573
722.79	10847.43747
723.221	10650.6899
723.652	10389.82089
724.083	10249.52074
724.514	9913.52234
724.945	9800.21179
725.375	9789.18331
725.806	9324.18532
726.236	9155.95181
726.666	9074.66758
727.096	8929.52094
727.526	8888.55849
727.956	8574.82067
728.386	8343.79091
728.816	8356.9338
729.246	8211.70871
729.675	8009.59277
730.105	7763.31239
730.534	7718.14235
730.964	7616.41987
731.393	7466.24321
731.822	7532.52263
732.251	7390.41898
732.68	7272.94197
733.109	7012.21697
733.537	7052.15302
733.966	6987.39476
734.395	6918.86731
734.823	6749.66087
735.251	6700.20895
735.68	6635.39177
736.108	6518.45976
736.536	6466.00579
736.964	6337.01845
737.392	6224.52518
737.82	6326.20596
738.247	6150.20486
738.675	6119.19085
739.102	6107.62484
739.53	5939.82588
739.957	5897.92542
740.384	5879.44944
740.811	5874.71107
741.238	5797.54625
741.665	5668.20737
742.092	5676.4283
742.519	5572.77025
742.945	5665.49716
743.372	5661.75411
743.798	5558.06967
744.225	5497.50328
744.651	5416.93108
745.077	5426.88453
745.503	5482.66086
745.929	5478.55897
746.355	5518.76203
746.781	5303.89989
747.207	5378.62873
747.632	5292.94066
748.058	5226.0101
748.483	5360.37316
748.908	5356.87015
749.334	5491.77361
749.759	5301.46518
750.184	5327.66921
750.609	5392.82505
751.033	5368.47945
751.458	5413.11939
751.883	5323.86358
752.307	5380.55145
752.732	5349.07724
753.156	5396.92013
753.58	5353.59671
754.005	5269.02691
754.429	5386.52393
754.853	5323.88551
755.277	5282.4937
755.7	5401.87957
756.124	5333.92074
756.548	5378.61649
756.971	5357.63725
757.394	5418.18633
757.818	5478.069
758.241	5446.01329
758.664	5454.02478
759.087	5453.1766
759.51	5455.79646
759.933	5445.67176
760.356	5557.97373
760.778	5599.79325
761.201	5452.6741
761.623	5548.5095
762.046	5472.46534
762.468	5426.43596
762.89	5518.67528
763.312	5556.72908
763.734	5533.54779
764.156	5454.78765
764.578	5554.28817
765	5522.68855
765.421	5452.05465
765.843	5451.21641
766.264	5388.62934
766.686	5410.83068
767.107	5356.65926
767.528	5458.02255
767.949	5394.05193
768.37	5303.69487
768.791	5303.71641
769.212	5211.11386
769.632	5170.57438
770.053	5152.48702
770.473	5163.81688
770.894	5113.97922
771.314	5044.62146
771.734	5034.63016
772.154	4990.24231
772.575	5033.48687
772.994	4995.44909
773.414	5024.75735
773.834	4962.16609
774.254	4920.11104
774.673	4763.00941
775.093	4689.22325
775.512	4714.13207
775.931	4690.38867
776.351	4608.276
776.77	4538.22954
777.189	4543.98002
777.607	4537.53762
778.026	4497.41737
778.445	4361.53672
778.864	4343.63482
779.282	4353.19938
779.701	4257.50839
780.119	4272.78142
780.537	4162.58053
780.955	4114.58257
781.373	4046.48511
781.791	3994.88918
782.209	3921.00591
782.627	3932.14584
783.045	3926.12529
783.462	3738.89297
783.88	3746.95494
784.297	3725.76639
784.715	3583.97521
785.132	3497.5982
785.549	3452.80912
785.966	3428.79332
786.383	3365.66366
786.8	3413.28744
787.217	3282.44719
787.633	3171.79864
788.05	3247.34573
788.466	3071.23818
788.883	3128.89118
789.299	3101.5233
789.715	3019.63281
790.131	2920.78167
790.547	2875.66833
790.963	2887.74507
791.379	2826.81814
791.795	2755.17623
792.21	2759.29776
792.626	2655.35547
793.041	2728.68913
793.457	2643.65637
793.872	2555.30538
794.287	2574.4505
794.702	2502.51578
795.117	2476.63457
795.532	2449.67167
795.947	2346.33876
796.362	2297.30209
796.776	2284.10166
797.191	2328.46866
797.605	2274.33463
798.02	2162.31495
798.434	2152.84516
798.848	2156.4199
799.262	2095.43054
799.676	2121.25187
800.09	2067.39146
800.504	1988.14954
800.918	2026.06343
801.331	1899.38719
801.745	1841.85124
802.158	1885.2382
802.572	1790.96909
802.985	1783.97259
803.398	1795.95409
803.811	1724.10979
804.224	1688.96758
804.637	1675.87869
805.05	1642.6772
805.462	1606.87212
805.875	1499.97703
806.288	1502.7495
806.7	1497.85287
807.112	1431.45564
807.525	1467.72998
807.937	1410.67442
808.349	1409.71564
808.761	1360.59923
809.173	1293.45726
809.584	1280.47879
809.996	1216.40699
810.408	1277.65601
810.819	1265.3738
811.231	1260.69036
811.642	1228.42741
812.053	1299.51626
812.464	1271.42815
812.875	1141.40119
813.286	1131.41226
813.697	1121.12446
814.108	1044.11872
814.519	998.83578
814.929	1048.22886
815.34	986.05702
815.75	948.07511
816.16	979.05814
816.571	877.95953
816.981	880.77641
817.391	899.88396
817.801	880.9295
818.211	817.67209
818.62	870.84037
819.03	770.66274
819.44	769.7724
819.849	788.73714
820.259	724.63652
820.668	729.61672
821.077	677.53922
821.486	664.43733
821.895	633.4054
822.304	640.54813
822.713	655.4127
823.122	665.50521
823.531	625.36462
823.939	579.30719
824.348	614.37418
824.756	570.3247
825.164	543.25617
825.573	553.31114
825.981	520.19647
826.389	539.26316
826.797	461.07506
827.205	475.03582
827.612	482.12258
828.02	461.02815
828.428	482.1586
828.835	458.13979
829.243	421.9656
829.65	427.00928
830.057	465.06909
830.464	394.91762
830.871	400.91286
831.278	359.83135
831.685	410.87666
832.092	421.98839
832.499	353.7445
832.905	320.783
833.312	382.83905
833.718	350.84206
834.124	370.80825
834.531	336.8145
834.937	328.80019
835.343	315.74103
835.749	290.64958
836.155	298.7564
836.561	304.73308
836.966	228.55046
837.372	275.68426
837.777	302.7387
838.183	243.52849
838.588	204.49568
838.993	268.63674
839.399	214.51842
839.804	213.51473
840.209	223.56717
840.613	222.49174
841.018	199.49554
841.423	269.67274
841.828	245.61362
842.232	196.47821
842.637	246.57524
843.041	195.49982
843.445	195.48576
843.849	182.44653
844.253	174.41358
844.657	194.48827
845.061	209.47442
845.465	180.43458
845.869	190.44204
846.272	140.34464
846.676	164.39221
847.079	177.45305
847.483	165.4064
847.886	134.32084
848.289	156.4155
848.692	179.45044
849.095	188.45235
849.498	140.34971
849.901	157.35899
850.304	130.31446
850.707	105.26735
851.109	144.35957
851.512	185.4565
851.914	142.36544
852.316	88.22197
852.718	83.21787
853.121	150.36871
853.523	154.36647
853.925	113.29852
854.326	112.28038
854.728	181.46523
855.13	113.29601
855.531	159.38613
855.933	66.15875
856.334	133.33409
856.736	123.28114
857.137	118.27659
857.538	132.33627
857.939	127.31925
858.34	138.33658
858.741	109.28544
859.142	146.35263
859.542	124.32929
859.943	89.22316
860.343	59.14895
860.744	89.21881
861.144	30.07391
861.544	110.27069
861.945	115.29787
862.345	121.29638
862.745	125.31614
863.145	147.34961
863.544	123.3113
863.944	58.1384
864.344	72.1807
864.743	112.27683
865.143	97.25124
865.542	86.20371
865.941	117.2939
866.34	117.28137
866.74	86.23096
867.139	94.23081
867.537	85.2178
867.936	86.21085
868.335	90.23146
868.734	157.4058
869.132	77.18384
869.531	113.27123
869.929	106.24866
870.327	102.24906
870.726	88.21871
871.124	128.3032
871.522	98.25195
871.92	98.24516
872.318	116.28514
872.715	82.20231
873.113	120.29671
873.511	128.32436
873.908	54.14076
874.306	98.24878
874.703	65.1641
875.1	66.17021
875.497	88.21631
875.894	64.16161
876.291	72.17855
876.688	94.24754
877.085	50.12136
877.482	65.16451
877.878	77.1891
878.275	108.27775
878.671	118.26574
879.068	70.17143
879.464	94.22944
879.86	67.16106
880.256	98.24329
880.652	61.15756
881.048	49.12265
881.444	17.04099
881.84	49.12626
882.236	40.10198
882.631	120.29965
883.027	36.08817
883.422	54.1397
883.817	76.19729
884.213	81.21103
884.608	53.13357
885.003	56.13892
885.398	82.21052
885.793	69.17501
886.188	55.14108
886.582	53.13576
886.977	101.2427
887.371	20.0509
887.766	57.14519
888.16	81.20391
888.554	34.08478
888.949	62.15678
889.343	79.19387
889.737	51.13954
890.131	41.10377
890.525	69.17817
890.918	22.05601
891.312	51.12237
891.706	4.01053
892.099	36.092
892.492	106.23373
892.886	53.13122
893.279	59.15324
893.672	-10.02568
894.065	19.0484
894.458	78.20025
894.851	67.166
895.244	9.02342
895.637	64.15755
896.029	57.14133
896.422	28.06961
896.814	26.06579
897.206	43.10474
897.599	53.1317
897.991	22.05416
898.383	105.25423
898.775	56.12916
899.167	51.12293
899.559	68.17336
899.951	74.17678
900.342	75.19063
900.734	64.16391
901.125	66.17463
901.517	76.19026
901.908	60.1453
902.299	91.229
902.69	70.16901
903.082	72.17653
903.473	74.18203
903.863	34.08826
904.254	104.24711
904.645	69.1737
905.036	20.05
905.426	95.21845
905.817	74.18498
906.207	58.14231
906.597	-1.00239
906.987	49.12875
907.378	25.0639
907.768	58.1552
908.158	22.05488
908.547	45.1186
908.937	72.18459
909.327	63.15649
909.717	76.193
910.106	-1.00247
910.495	57.14442
910.885	74.19045
911.274	54.13694
911.663	8.02051
912.052	47.11675
912.441	15.03865
912.83	73.17195
913.219	51.13437
913.608	12.02998
913.997	75.19164
914.385	54.13043
914.774	11.0274
915.162	40.09833
915.55	53.13002
915.939	12.03099
916.327	13.0327
916.715	22.05713
917.103	41.10188
917.491	44.10951
917.878	-11.02736
918.266	-18.04719
918.654	78.20276
919.041	38.10128
919.429	66.15923
919.816	39.09976
920.203	52.12891
920.591	43.10786
920.978	24.05902
921.365	38.10118
921.752	94.22798
922.139	116.25781
922.525	45.11174
922.912	29.07183
923.299	24.06116
923.685	69.18235
924.072	-3.00703
924.458	34.08585
924.844	56.1414
925.231	57.13583
925.617	16.04179
926.003	40.10348
926.389	36.09259
926.774	44.11324
927.16	66.16612
927.546	68.17744
927.931	86.21661
928.317	60.13965
928.702	21.05043
929.088	79.19128
929.473	55.14138
929.858	42.10461
930.243	44.10824
930.628	73.18258
931.013	40.10133
931.398	44.10261
931.783	38.10051
932.167	84.21013
932.552	-24.06116
932.937	37.09308
933.321	18.04634
933.705	34.08763
934.09	48.12146
934.474	16.03881
934.858	18.04751
935.242	37.08837
935.626	59.15414
936.009	-18.04828
936.393	38.09793
936.777	20.05228
937.16	8.02108
937.544	37.08837
937.927	55.14271
938.311	64.15738
938.694	14.03736
939.077	16.03932
939.46	10.02444
939.843	85.18377
940.226	74.19171
940.609	102.24208
940.991	28.07269
941.374	48.11982
941.757	30.07483
942.139	35.08231
942.522	21.05031
942.904	25.06153
943.286	45.11495
943.668	55.14447
944.05	58.14541
944.432	56.14201
944.814	3.00748
945.196	50.12585
945.578	52.129
945.959	52.1247
946.341	-9.02214
946.722	37.08851
947.104	93.22535
947.485	9.02158
947.866	102.26305
948.247	11.0281
948.628	25.06158
949.009	4.01054
949.39	40.10082
949.771	73.17295
950.152	39.09832
950.532	34.08653
950.913	47.11543
951.293	25.06877
951.674	126.3128
952.054	80.20323
952.434	29.07314
952.814	49.11896
953.194	65.17016
953.574	45.11121
953.954	48.11646
954.334	90.22693
954.714	23.05773
955.093	47.11649
955.473	13.03309
955.853	32.0837
956.232	6.01651
956.611	54.13131
956.99	116.2951
957.37	36.09352
957.749	33.08095
958.128	61.15724
958.506	51.13577
958.885	64.16442
959.264	31.07905
959.643	26.06047
960.021	80.20179
960.4	73.16981
960.778	99.24501
961.156	44.11296
961.535	40.09501
961.913	76.18086
962.291	55.1455
962.669	-25.06467
963.047	29.07483
963.424	34.08793
963.802	47.11832
964.18	33.08453
964.557	63.14793
964.935	42.1016
965.312	28.07376
965.69	40.10079
966.067	74.18331
966.444	46.11424
966.821	28.07296
967.198	73.17841
967.575	-26.06478
967.952	69.16455
968.329	45.11178
968.705	27.05925
969.082	50.13087
969.458	66.16361
969.835	22.05456
970.211	80.20889
970.587	47.11849
970.963	57.14718
971.339	38.10078
971.715	34.08622
972.091	34.08536
972.467	89.22381
972.843	29.0735
973.219	78.18662
973.594	76.20283
973.97	73.17509
974.345	27.06646
974.721	15.03661
975.096	13.0322
975.471	42.10175
975.846	22.05388
976.221	57.14845
976.596	30.0741
976.971	54.13499
977.346	-19.04535
977.72	66.17057
978.095	45.11824
978.469	27.06555
978.844	15.03803
979.218	-2.00492
979.593	85.20503
979.967	30.07448
980.341	9.02126
980.715	47.12069
981.089	-15.03809
981.463	80.19023
981.837	61.15235
982.21	65.15281
982.584	44.1086
982.957	65.16562
983.331	44.10636
983.704	-3.00743
984.078	46.11595
984.451	59.14666
984.824	38.09489
985.197	20.04947
985.57	45.11446
985.943	34.08447
986.316	34.08475
986.688	18.04415
987.061	66.15881
987.434	41.10828
987.806	67.16509
988.179	43.10451
988.551	72.18498
988.923	25.06278
989.295	-8.02006
989.667	17.04217
990.039	77.19426
990.411	55.1292
990.783	39.09158
991.155	64.15958
991.527	43.1063
991.898	45.11462
992.27	-5.01265
992.641	60.1514
993.012	66.15761
993.384	-30.07342
993.755	43.11207
994.126	4.00984
994.497	19.0479
994.868	63.1484
995.239	-7.01734
995.61	38.09787
995.98	31.07773
996.351	13.03295
996.722	41.09897
997.092	6.0147
997.462	72.17292
997.833	-6.01456
998.203	21.05163
998.573	5.0127
998.943	42.10145
999.313	30.07404
999.683	53.13127
1000.053	68.1602
1000.423	33.08104
1000.792	36.09535
1001.162	13.03255
1001.531	32.08054
1001.901	36.09255
1002.27	30.06897
1002.639	21.05496
1003.009	-11.02677
1003.378	22.05676
1003.747	51.12414
1004.116	-12.02973
1004.485	-28.06857
1004.853	20.05156
1005.222	-2.00511
1005.591	43.10376
1005.959	2.00473
1006.328	6.014
1006.696	72.17816
1007.064	30.07645
1007.433	59.14869
1007.801	-5.01244
1008.169	-3.00766
1008.537	13.0298
1008.905	58.13893
1009.273	-1.0025
1009.64	63.155
1010.008	52.12692
1010.375	14.03367
1010.743	64.14914
1011.11	49.11909
1011.478	-1.00252
1011.845	36.0862
1012.212	67.15604
1012.579	18.04482
1012.946	43.10392
1013.313	68.16263
1013.68	50.1144
1014.047	54.1323
1014.414	21.05121
1014.78	13.0328
1015.147	52.12598
1015.513	26.06419
1015.88	1.00258
1016.246	17.04203
1016.612	50.11532
1016.978	22.05506
1017.344	75.18867
1017.71	11.02696
1018.076	38.09092
1018.442	4.01038
1018.808	71.17976
1019.174	26.0668
1019.539	53.12148
1019.905	29.07003
1020.27	44.11122
1020.636	52.12655
1021.001	56.13557
1021.366	12.02965
1021.731	-12.03114
1022.096	37.09531
1022.461	41.09894
1022.826	20.04854
1023.191	28.07423
1023.556	58.1393
1023.92	28.06951
1024.285	62.1533
1024.649	33.08254
1025.014	62.15566
1025.378	43.11003
1025.742	56.14161
1026.107	22.05078
1026.471	39.0914
1026.835	69.17439
1027.199	61.15268
1027.562	43.10203
1027.926	37.09171
1028.29	82.21104
1028.654	50.11757
1029.017	25.06199
1029.381	59.14366
1029.744	12.03096
1030.107	42.10079
1030.471	-21.05125
1030.834	-22.05155
1031.197	37.08949
1031.56	25.06003
1031.923	31.08118
1032.286	34.08116
1032.648	64.15651
1033.011	0
1033.374	41.09706
1033.736	19.05095
1034.099	35.0876
1034.461	-11.02831
1034.823	-4.01017
1035.185	40.10216
1035.548	48.11951
1035.91	39.09528
1036.272	5.01158
1036.634	-6.01487
1036.995	83.1993
1037.357	-11.02756
1037.719	21.05146
1038.08	19.04587
1038.442	56.13465
1038.803	15.03667
1039.165	64.165
1039.526	22.05422
1039.887	17.04178
1040.248	4.01008
1040.609	9.0224
1040.97	38.0951
1041.331	10.02579
1041.692	55.13367
1042.053	72.16718
1042.413	56.13286
1042.774	45.11072
1043.134	64.15493
1043.495	11.02799
1043.855	27.06672
1044.215	65.1641
1044.576	67.16515
1044.936	48.11203
1045.296	49.12371
1045.656	21.05211
1046.016	-5.01227
1046.375	-1.00247
1046.735	3.00706
1047.095	23.05504
1047.454	18.03926
1047.814	12.02952
1048.173	-18.04305
1048.533	-9.02123
1048.892	6.01496
1049.251	59.1498
1049.61	4.01006
1049.969	82.19866
1050.328	58.12853
1050.687	4.00994
1051.046	-30.0744
1051.405	51.12981
1051.763	20.04747
1052.122	19.04836
1052.48	-25.06219
1052.839	10.02415
1053.197	30.0726
1053.555	-6.01364
1053.914	14.0345
1054.272	17.04133
1054.63	28.0705
1054.988	32.07805
1055.345	7.01562
1055.703	13.03186
1056.061	-7.01833
1056.419	27.07087
1056.776	23.05609
1057.134	62.14641
1057.491	-18.04595
1057.848	9.0226
1058.206	21.05067
1058.563	17.03853
1058.92	3.00701
1059.277	13.03255
1059.634	45.10727
1059.991	43.10482
1060.348	14.03283
1060.704	25.06128
1061.061	26.06123
1061.418	-32.07965
1061.774	43.10798
1062.131	13.03515
1062.487	-3.00723
1062.843	-4.01012
1063.199	56.14206
1063.555	17.04085
1063.911	10.02545
1064.267	48.10189
1064.623	28.06956
1064.979	71.16925
1065.335	43.10349
1065.691	36.08735
1066.046	-33.07342
1066.402	75.17556
1066.757	9.023
1067.112	45.111
1067.468	94.23089
1067.823	24.05921
1068.178	54.13131
1068.533	84.20572
1068.888	25.06058
1069.243	27.0677
1069.598	13.03235
1069.952	24.05617
1070.307	69.17526
1070.662	35.08436
1071.016	29.0669
1071.371	49.11326
1071.725	27.06557
1072.079	24.05841
1072.434	67.16582
1072.788	25.0611
1073.142	68.16968
1073.496	-22.0537
1073.85	26.06097
1074.203	88.21879
1074.557	61.16364
1074.911	15.03609
1075.265	2.00477
1075.618	-3.00742
1075.971	47.1135
1076.325	28.07251
1076.678	31.07364
1077.031	47.1095
1077.385	58.1318
1077.738	46.10673
1078.091	-5.01184
1078.444	20.04752
1078.796	6.01494
1079.149	11.02773
1079.502	52.1274
1079.855	55.13156
1080.207	60.14928
1080.56	35.0915
1080.912	34.08358
1081.264	6.0148
1081.617	42.10545
1081.969	22.05709
1082.321	2.00497
1082.673	39.09229
1083.025	30.07301
1083.377	40.08868
1083.728	16.03787
1084.08	16.04056
1084.432	39.09613
1084.783	37.08797
1085.135	-8.02055
1085.486	-7.01681
1085.838	40.10043
1086.189	6.0148
1086.54	26.06301
1086.891	39.10077
1087.242	-18.04457
1087.593	26.06419
1087.944	-2.00462
1088.295	42.09737
1088.646	52.12891
1088.996	-16.03956
1089.347	28.06997
1089.698	34.08249
1090.048	-4.01042
1090.398	1.00236
1090.749	9.02209
1091.099	66.17145
1091.449	18.04561
1091.799	50.12711
1092.149	58.14677
1092.499	-17.04246
1092.849	32.08313
1093.199	-21.05332
1093.548	51.12539
1093.898	6.01535
1094.248	10.026
1094.597	29.07656
1094.947	34.09131
1095.296	24.06004
1095.645	50.13096
1095.994	16.03898
1096.343	65.16475
1096.692	63.17149
1097.041	-11.03008
1097.39	72.18427
1097.739	48.12585
1098.088	46.12431
1098.437	-2.00538
1098.785	9.02433
1099.134	37.09867
1099.482	51.14127
1099.83	13.03434
1100.179	29.07762
1100.527	9.02414
1100.875	-9.02425
1101.223	2.00538
1101.571	19.05312
1101.919	20.05385
1102.267	4.01137
1102.615	6.01935
1102.962	-1.00322
1103.31	1.00322
1103.658	12.03871
