Data from N2 R0 105C sample3_Subt2__0__11-55-35-759.txt Node

Date: Tue Aug 19 11:55:35 PDT 2025
User: uwsun
Spectrometer: HDX01956
Trigger mode: 0
Integration Time (sec): 1.000000E-1
Scans to average: 1
Nonlinearity correction enabled: true
Boxcar width: 0
Storing dark spectrum: false
XAxis mode: Wavelengths
Number of Pixels in Spectrum: 2068
>>>>>Begin Spectral Data<<<<<
194.03	8.02347
194.578	4.01305
195.127	4.01289
195.676	6.0194
196.225	-434.28442
196.773	-329.99422
197.321	-286.86446
197.87	-409.19389
198.418	-418.21023
198.966	-370.08462
199.513	-469.33971
200.061	-432.25046
200.609	-366.07439
201.156	-718.93587
201.704	-433.24918
202.251	-330.97733
202.798	-392.14565
203.345	-491.39887
203.892	-452.29854
204.438	-550.54293
204.985	-544.53307
205.532	-346.01326
206.078	-495.40649
206.624	-497.41766
207.17	-624.73501
207.716	-492.38769
208.262	-904.3278
208.808	-458.31193
209.354	-516.46555
209.899	-453.29395
210.445	-445.27446
210.99	-515.45767
211.535	-565.57848
212.08	-565.57265
212.625	-443.26948
213.17	-423.21387
213.715	-623.71422
214.259	-599.66267
214.804	-521.48042
215.348	-649.78182
215.892	-561.57548
216.436	-618.71088
216.98	-664.80424
217.524	-574.60191
218.068	-423.21993
218.612	-444.27216
219.155	-587.63441
219.698	-567.5899
220.242	-471.34223
220.785	-620.71909
221.328	-525.50114
221.871	-487.39694
222.414	-508.45272
222.956	-526.49128
223.499	-702.92512
224.041	-615.70337
224.583	-781.07349
225.126	-719.94327
225.668	-540.5204
226.21	-467.33715
226.751	-719.94953
227.293	-616.6963
227.835	-520.4778
228.376	-645.77586
228.918	-463.32999
229.459	-486.38976
230	-609.70612
230.541	-597.65763
231.082	-592.66179
231.622	-670.84843
232.163	-568.60944
232.704	-524.49095
233.244	-502.42874
233.784	-535.5134
234.324	-707.93361
234.864	-682.87267
235.404	-609.70508
235.944	-592.64757
236.484	-507.43716
237.023	-584.63533
237.563	-653.80691
238.102	-630.74844
238.641	-468.34654
239.18	-594.65467
239.719	-491.40677
240.258	-682.86203
240.797	-553.55442
241.335	-517.46201
241.874	-888.2748
242.412	-540.52409
242.95	-559.56842
243.488	-627.72306
244.026	-659.81838
244.564	-832.18439
245.102	-665.80783
245.64	-601.68885
246.177	-689.88621
246.715	-553.55206
247.252	-625.71648
247.789	-984.49602
248.326	-514.4454
248.863	-687.85983
249.4	-647.77128
249.936	-851.23164
250.473	-596.65614
251.009	-609.6815
251.546	-716.93922
252.082	-705.89745
252.618	-713.93762
253.154	-553.56339
253.69	-702.91416
254.226	-581.62668
254.761	-646.77442
255.297	-738.98459
255.832	-613.70733
256.367	-566.57617
256.903	-731.9597
257.438	-613.70311
257.972	-687.87657
258.507	-603.66285
259.042	-713.9252
259.576	-726.95995
260.111	-636.75576
260.645	-780.08348
261.179	-617.70944
261.713	-652.77335
262.247	-634.75845
262.781	-798.12178
263.315	-500.41922
263.849	-464.32953
264.382	-633.73461
264.915	-562.56793
265.449	-457.30035
265.982	-623.70991
266.515	-504.41078
267.048	-749.00491
267.58	-713.92208
268.113	-733.97083
268.646	-473.34272
269.178	-676.84331
269.71	-702.89275
270.243	-645.76525
270.775	-452.29664
271.307	-554.55225
271.838	-609.68885
272.37	-502.42063
272.902	-653.78827
273.433	-763.04773
273.965	-517.45671
274.496	-510.44329
275.027	-482.3685
275.558	-549.55114
276.089	-475.35082
276.62	-457.31581
277.15	-527.48401
277.681	-713.91959
278.211	-573.6028
278.741	-695.88511
279.272	-646.77162
279.802	-486.38069
280.332	-578.60711
280.861	-540.51486
281.391	-646.76434
281.921	-559.57273
282.45	-467.33161
282.98	-383.11146
283.509	-682.85373
284.038	-629.72147
284.567	-639.76156
285.096	-516.44926
285.625	-619.69625
286.153	-604.66847
286.682	-627.72034
287.21	-535.50243
287.739	-577.61498
288.267	-531.49346
288.795	-406.17339
289.323	-554.54179
289.851	-557.5451
290.378	-655.78464
290.906	-501.40817
291.433	-466.31628
291.961	-658.79939
292.488	-492.39566
293.015	-553.53972
293.542	-418.19897
294.069	-498.39952
294.596	-473.32981
295.122	-543.5128
295.649	-677.81442
296.175	-471.32418
296.702	-524.46636
297.228	-514.43703
297.754	-614.68121
298.28	-627.7149
298.806	-514.43173
299.332	-674.83082
299.857	-632.71621
300.383	-463.32451
300.908	-517.45627
301.433	-512.4288
301.958	-612.67096
302.483	-463.31705
303.008	-471.3286
303.533	-381.09348
304.058	-551.52465
304.582	-556.5464
305.107	-334.96936
305.631	-633.7192
306.155	-558.53655
306.679	-585.6051
307.203	-573.57663
307.727	-534.47597
308.251	-466.31269
308.775	-525.46081
309.298	-497.39437
309.822	-395.12034
310.345	-514.42952
310.868	-529.46967
311.391	-470.31834
311.914	-425.20593
312.437	-605.64895
312.96	-555.53237
313.482	-545.50663
314.005	-413.17043
314.527	-322.93401
315.049	-439.24123
315.571	-606.64402
316.093	-428.20515
316.615	-451.25278
317.137	-680.8162
317.659	-439.22507
318.18	-533.47895
318.702	-577.57563
319.223	-714.87238
319.744	-589.58787
320.265	-453.26068
320.786	-419.18031
321.307	-414.16425
321.828	-571.5493
322.348	-483.328
322.869	-458.26454
323.389	-1226.80553
323.909	-569.54436
324.43	-482.32629
324.95	-556.51028
325.47	-447.2455
325.989	-489.339
326.509	-618.65767
327.029	-586.57336
327.548	-579.55684
328.067	-435.20902
328.587	-387.0794
329.106	-589.57548
329.625	-304.8687
330.144	-501.36143
330.662	-560.51479
331.181	-488.32501
331.7	-486.32719
332.218	-614.62644
332.736	-485.32002
333.255	-496.34285
333.773	-464.25977
334.291	-393.09075
334.808	-537.43538
335.326	-522.39548
335.844	-452.22162
336.361	-329.92505
336.879	-443.20519
337.396	-414.13104
337.913	-489.30782
338.43	-515.36701
338.947	-462.25272
339.464	-570.47907
339.981	-448.21783
340.497	-401.10121
341.014	-370.01383
341.53	-564.49146
342.046	-392.07288
342.562	-322.88994
343.078	-451.21832
343.594	-412.11227
344.11	-431.1578
344.626	-309.8563
345.141	-494.30184
345.657	-507.32918
346.172	-385.04043
346.687	-441.16998
347.202	-497.30426
347.717	-353.94671
348.232	-320.87913
348.747	-441.16686
349.261	-507.31569
349.776	-405.07788
350.29	-294.80311
350.805	-273.74612
351.319	-387.02511
351.833	-504.3202
352.347	-414.09732
352.861	-443.17099
353.374	-478.25371
353.888	-301.80199
354.401	-406.06028
354.915	-433.11995
355.428	-278.75041
355.941	-373.98317
356.454	-464.19592
356.967	-376.98924
357.48	-422.09464
357.993	-310.8343
358.505	-348.93438
359.018	-281.74798
359.53	-295.78471
360.042	-462.17879
360.554	-330.875
361.066	-283.75405
361.578	-473.18845
362.09	-362.95082
362.602	-469.19143
363.113	-335.87083
363.625	-426.09137
364.136	-450.13563
364.647	-308.80356
365.158	-370.95533
365.669	-332.87028
366.18	-323.83475
366.691	-436.09828
367.201	-296.77384
367.712	-355.90692
368.222	-368.9416
368.733	-408.02616
369.243	-391.98443
369.753	-312.80424
370.263	-240.62191
370.773	-258.67429
371.282	-304.78553
371.792	-266.68093
372.301	-222.57448
372.811	-135.36046
373.32	-440.07305
373.829	-257.65547
374.338	-339.83087
374.847	-237.58973
375.356	-198.49726
375.865	-396.94221
376.373	-272.66558
376.882	-77.1962
377.39	-178.44527
377.898	-89.22308
378.407	-227.5382
378.915	-289.66822
379.423	-83.19793
379.93	-173.40162
380.438	31.0739
380.946	-7.0163
381.453	34.07901
381.96	32.07322
382.468	101.22732
382.975	165.36663
383.482	48.10073
383.989	253.57382
384.495	101.21406
385.002	24.04776
385.509	366.74598
386.015	62.11286
386.521	336.64465
387.028	330.61541
387.534	252.45945
388.04	434.80899
388.546	439.76947
389.051	464.77173
389.557	588.97759
390.063	740.1646
390.568	829.30705
391.073	830.20561
391.578	973.46646
392.084	841.13723
392.589	753.9508
393.093	1098.372
393.598	1173.29327
394.103	1447.43233
394.607	1605.33238
395.112	1811.41485
395.616	2082.28018
396.12	2033.92537
396.624	2382.68946
397.128	2693.48896
397.632	2994.96388
398.136	3353.43857
398.639	3524.22733
399.143	4083.81763
399.646	4633.59256
400.15	5044.9202
400.653	5802.37069
401.156	6658.77395
401.659	7540.33426
402.162	9407.83397
402.664	11237.74423
403.167	16054.58575
403.67	19828.85303
404.172	2696.20453
404.674	0
405.176	0
405.678	0
406.18	0
406.682	0
407.184	0
407.686	25783.58453
408.187	43316.52985
408.688	32541.29279
409.19	21804.55268
409.691	17878.2685
410.192	15105.60625
410.693	13048.29852
411.194	11928.78435
411.694	11721.07352
412.195	10998.31417
412.696	9675.39147
413.196	9114.04528
413.696	9396.83221
414.196	9382.94968
414.696	9398.78512
415.196	8998.77634
415.696	7951.94234
416.196	6169.68708
416.695	4550.81097
417.195	3906.24114
417.694	3543.20258
418.194	3238.57194
418.693	3119.01493
419.192	3157.19398
419.691	3103.26642
420.19	3001.39243
420.688	2926.50144
421.187	2470.37643
421.685	2480.82601
422.184	2176.2033
422.682	1662.25653
423.18	1346.42182
423.678	1121.38881
424.176	1077.40735
424.674	806.10936
425.172	875.32601
425.669	831.37677
426.167	654.09265
426.664	517.90387
427.161	432.77452
427.659	417.82538
428.156	126.23415
428.652	430.91186
429.149	324.67569
429.646	82.16637
430.143	196.41984
430.639	128.27809
431.135	178.40823
431.632	32.07017
432.128	59.13534
432.624	132.31798
433.12	-102.23093
433.616	-187.41914
434.111	-78.18348
434.607	-102.24506
435.103	-318.71405
435.598	-350.79201
436.093	-157.3777
436.588	-294.69097
437.083	-288.68714
437.578	-266.6509
438.073	-138.3549
438.568	-185.46737
439.062	-423.0129
439.557	-301.75818
440.051	-379.93711
440.546	-390.97576
441.04	-251.6431
441.534	-144.37894
442.028	-313.80275
442.522	-285.73172
443.015	-481.19126
443.509	-274.71488
444.002	-298.78198
444.496	-460.14643
444.989	-318.82992
445.482	-281.74375
445.975	-397.0125
446.468	-518.28184
446.961	-503.25216
447.454	-465.17625
447.947	-353.92201
448.439	-386.0052
448.931	-469.20443
449.424	-297.79213
449.916	-328.86592
450.408	-491.25925
450.9	-354.94174
451.392	-296.79611
451.884	-442.13361
452.375	-258.6919
452.867	-496.26877
453.358	-479.23826
453.849	-594.48935
454.341	-527.36342
454.832	-605.53837
455.323	-349.93014
455.814	-453.17619
456.304	-457.18375
456.795	-483.2572
457.285	-564.44037
457.776	-537.39171
458.266	-434.14812
458.756	-438.15833
459.247	-450.20161
459.737	-439.17625
460.226	-510.32235
460.716	-430.15266
461.206	-407.08536
461.695	-369.99965
462.185	-491.29544
462.674	-492.30048
463.163	-608.56798
463.653	-632.60847
464.142	-414.11043
464.63	-407.10391
465.119	-507.33412
465.608	-477.25973
466.096	-592.51985
466.585	-513.35219
467.073	-474.26745
467.561	-472.26831
468.05	-544.44956
468.538	-449.22349
469.026	-479.29071
469.513	-565.49933
470.001	-583.53426
470.489	-499.34859
470.976	-548.46167
471.463	-431.18336
471.951	-433.18924
472.438	-542.45612
472.925	-559.5001
473.412	-488.33223
473.899	-602.59782
474.385	-482.31919
474.872	-537.45606
475.359	-458.2578
475.845	-752.93528
476.331	-718.84847
476.817	-501.36928
477.303	-570.52989
477.789	-521.42399
478.275	-458.26375
478.761	-528.45253
479.247	-628.67678
479.732	-459.28056
480.218	-374.05892
480.703	-447.23973
481.188	-727.89712
481.673	-618.662
482.158	-699.83337
482.643	-453.26458
483.128	-608.63138
483.612	-586.58618
484.097	-539.48257
484.581	-613.65151
485.066	-483.33177
485.55	-671.77772
486.034	-770.01888
486.518	-569.55921
487.002	-454.26523
487.486	-516.4302
487.969	-487.35499
488.453	-479.33971
488.936	-646.74351
489.42	-725.92518
489.903	-470.31472
490.386	-1144.69588
490.869	-734.93646
491.352	-532.47411
491.835	-794.04812
492.318	-606.64666
492.8	-786.0421
493.283	-426.21222
493.765	-523.46871
494.247	-620.6901
494.73	-697.86006
495.212	-564.56234
495.694	-610.6692
496.175	-556.54113
496.657	-587.61262
497.139	-1071.60765
497.62	-575.59009
498.102	-512.4424
498.583	-496.39644
499.064	-632.70629
499.545	-636.72596
500.026	-673.81725
500.507	-623.70721
500.988	-474.33566
501.469	-484.37665
501.949	-502.41249
502.43	-571.5869
502.91	-783.04849
503.39	-519.46191
503.87	-556.53489
504.35	-621.70711
504.83	-691.84829
505.31	-567.57969
505.79	-545.51931
506.269	-610.68452
506.749	-655.78464
507.228	-587.62379
507.707	-698.87587
508.187	-617.70358
508.666	-507.42938
509.145	-592.63839
509.623	-624.71508
510.102	-546.52702
510.581	-585.62179
511.059	-471.33703
511.538	-444.27366
512.016	-557.55899
512.494	-549.53941
512.972	-619.72457
513.45	-606.67347
513.928	-497.3965
514.406	-521.46621
514.884	-413.18548
515.361	-542.51164
515.839	-641.75319
516.316	-561.57259
516.793	-472.34569
517.27	-587.63542
517.747	-444.27815
518.224	-626.7287
518.701	-659.79439
519.178	-541.53038
519.654	-588.62833
520.131	-522.47148
520.607	-524.47936
521.083	-632.72446
521.56	-550.52828
522.036	-684.83348
522.512	-554.5513
522.987	-565.57314
523.463	-565.578
523.939	-536.50959
524.414	-657.80491
524.89	-580.60817
525.365	-649.77394
525.84	-549.53988
526.315	-551.54786
526.79	-666.81257
527.265	-640.76625
527.74	-536.50363
528.215	-578.60761
528.689	-693.87546
529.164	-741.97675
529.638	-428.23456
530.112	-568.57979
530.587	-755.01371
531.061	-565.58961
531.534	-572.59534
532.008	-532.48785
532.482	-699.90629
532.956	-470.34952
533.429	-559.56842
533.903	-718.92833
534.376	-727.96106
534.849	-610.67872
535.322	-597.65763
535.795	-543.52862
536.268	-571.58789
536.741	-577.60954
537.213	-620.69872
537.686	-513.445
538.158	-716.94795
538.631	-576.61293
539.103	-671.83288
539.575	-841.20246
540.047	-719.9307
540.519	-567.58358
540.991	-520.4565
541.463	-530.4827
541.934	-661.81704
542.406	-555.54767
542.877	-623.69963
543.348	-557.56233
543.82	-550.5434
544.291	-616.69203
544.762	-603.67585
545.233	-469.33414
545.703	-691.86643
546.174	-610.68136
546.645	-544.52236
547.115	-527.47995
547.585	-626.71081
548.056	-505.42331
548.526	-553.53972
548.996	-534.48058
549.466	-517.44254
549.935	-559.55306
550.405	-690.85016
550.875	-549.51532
551.344	-511.42359
551.814	-584.59855
552.283	-750.9925
552.752	-560.54158
553.221	-617.65796
553.69	-667.78705
554.159	-448.26308
554.628	-584.57004
555.096	-383.09502
555.565	-605.63207
556.033	-561.54457
556.502	-485.35026
556.97	-628.68009
557.438	-524.44151
557.906	-536.47826
558.374	-583.58796
558.842	-528.45983
559.31	-598.60611
559.777	-484.34268
560.245	-512.40537
560.712	-539.47603
561.18	-583.5722
561.647	-577.54489
562.114	-531.43236
562.581	-405.12482
563.048	-523.41762
563.514	-361.9997
563.981	-507.35779
564.448	-501.3307
564.914	-435.17238
565.381	-466.23783
565.847	-382.02645
566.313	-383.02528
566.779	-472.23502
567.245	-360.96658
567.711	-270.72858
568.176	-409.07374
568.642	-141.38516
569.108	-192.52134
569.573	-231.61553
570.038	-419.06121
570.504	-315.80788
570.969	-16.04313
571.434	-222.56532
571.899	-130.34245
572.363	-164.41794
572.828	-114.28755
573.293	-60.15113
573.757	-96.24154
574.222	-40.09959
574.686	-6.01496
575.15	59.1498
575.614	-6.01496
576.078	105.26347
576.542	67.16387
577.006	37.09033
577.469	248.62505
577.933	131.31802
578.396	186.45651
578.86	181.44581
579.323	267.66122
579.786	74.17346
580.249	169.41226
580.712	294.72873
581.175	284.71191
581.637	107.2581
582.1	121.28579
582.563	1.00235
583.025	242.60381
583.487	-9.02049
583.95	87.20588
584.412	13.03029
584.874	221.54772
585.336	183.45123
585.797	33.07788
586.259	199.48724
586.721	172.42169
587.182	134.32658
587.643	100.24181
588.105	192.4749
588.566	-45.10447
589.027	213.53329
589.488	123.29781
589.949	191.47822
590.41	-118.26541
590.87	92.22095
591.331	54.12519
591.791	236.57106
592.252	238.5696
592.712	259.63248
593.172	243.57368
593.632	178.41494
594.092	175.41268
594.552	172.39432
595.011	343.80123
595.471	323.72988
595.931	329.74677
596.39	548.28253
596.849	526.19776
597.308	454.98541
597.768	779.84233
598.227	675.5099
598.685	668.42754
599.144	776.67642
599.603	888.91196
600.062	846.65543
600.52	948.89635
600.978	1129.27025
601.437	1164.22699
601.895	1158.0712
602.353	1366.42117
602.811	1483.62349
603.269	1720.08541
603.727	1797.17813
604.184	1834.01068
604.642	2087.49167
605.099	2171.28598
605.557	2374.64481
606.014	2321.15851
606.471	2738.96315
606.928	2800.29297
607.385	3076.97021
607.842	3140.423
608.299	3323.6209
608.755	3536.76731
609.212	3562.22291
609.668	3775.24251
610.125	4089.57782
610.581	4283.31167
611.037	4356.05431
611.493	4642.12192
611.949	4865.40467
612.405	4681.14625
612.861	5133.81842
613.316	5290.89779
613.772	5423.59183
614.227	5493.75385
614.683	5508.03317
615.138	5751.4962
615.593	5933.37388
616.048	6013.1555
616.503	6249.54537
616.958	6261.79325
617.412	6166.35829
617.867	6102.9933
618.321	6155.61273
618.776	6165.98479
619.23	6261.25061
619.684	6281.0299
620.138	6242.16593
620.592	6185.56178
621.046	6192.24092
621.5	6314.57164
621.954	5988.11139
622.407	5801.12109
622.861	5947.62678
623.314	5828.21875
623.768	5795.43846
624.221	5282.75725
624.674	5594.43118
625.127	5543.53641
625.58	5544.35554
626.033	5349.20261
626.485	5436.8038
626.938	5420.7287
627.39	5225.73862
627.843	5187.68639
628.295	5114.6484
628.747	5163.87274
629.199	5147.58129
629.651	5161.60365
630.103	5168.67267
630.555	4866.25697
631.006	5157.75548
631.458	5161.84591
631.909	5153.52671
632.361	5296.65276
632.812	5309.63024
633.263	5240.13131
633.714	5252.05319
634.165	5644.81309
634.616	5660.63086
635.067	5590.05506
635.518	5880.45498
635.968	5748.44671
636.419	6073.79799
636.869	6273.23785
637.319	6466.04374
637.769	6701.8668
638.219	6925.04315
638.669	7094.16412
639.119	7562.40308
639.569	7795.37529
640.019	7913.23853
640.468	8223.39455
640.918	8713.15656
641.367	8944.3757
641.816	9234.91833
642.265	9834.30314
642.714	10143.17053
643.163	10535.40715
643.612	11051.15674
644.061	11151.06939
644.51	11584.71677
644.958	12040.46268
645.406	12538.7022
645.855	12968.19417
646.303	13340.3366
646.751	13622.50172
647.199	14245.7723
647.647	14606.72939
648.095	14961.8072
648.543	15128.40936
648.99	15641.21879
649.438	15916.17745
649.885	16339.67188
650.333	16087.3046
650.78	16784.84845
651.227	17130.61803
651.674	17141.67996
652.121	17504.59363
652.568	17465.8766
653.015	17685.04233
653.461	17546.48973
653.908	17612.71235
654.354	17630.68779
654.801	17483.96014
655.247	17439.85289
655.693	17708.17164
656.139	17422.71765
656.585	17290.40301
657.031	17359.42244
657.477	17101.99173
657.922	16951.93189
658.368	16774.63549
658.813	16900.63778
659.259	16732.58041
659.704	16394.62215
660.149	16401.32587
660.594	16236.3139
661.039	16007.70547
661.484	16024.22393
661.929	15781.9087
662.373	15729.62037
662.818	15753.29239
663.262	15825.74142
663.707	15647.03574
664.151	15492.1262
664.595	15327.87483
665.039	15602.88946
665.483	15560.0116
665.927	15511.08474
666.371	15462.63646
666.814	15632.01
667.258	15652.8942
667.701	15500.51996
668.145	15923.22145
668.588	15934.69394
669.031	16047.21636
669.474	16223.00327
669.917	16208.61269
670.36	16611.49618
670.803	16629.75004
671.245	16559.28175
671.688	16912.7083
672.13	16908.01175
672.573	17302.5073
673.015	17469.24181
673.457	17341.94178
673.899	17631.45231
674.341	17744.64132
674.783	17906.87923
675.225	18068.47981
675.666	18068.32681
676.108	18048.02396
676.549	18193.93289
676.991	18063.38277
677.432	18113.99392
677.873	18026.38303
678.314	18178.31126
678.755	17933.81667
679.196	17864.3133
679.637	17771.97971
680.078	17550.26944
680.518	17368.0562
680.959	17311.34177
681.399	17056.65483
681.839	17008.74138
682.28	16755.41735
682.72	16516.14733
683.16	16292.38196
683.6	15900.88792
684.039	15535.48065
684.479	15771.86174
684.919	15473.70198
685.358	15563.3049
685.798	15536.38761
686.237	15009.76158
686.676	14737.13884
687.115	14727.70383
687.554	14497.49767
687.993	14192.85749
688.432	13906.93346
688.871	13829.27125
689.309	13735.10145
689.748	13375.0841
690.186	13604.20807
690.625	13355.52866
691.063	13277.58483
691.501	13227.10113
691.939	13187.66843
692.377	13071.08733
692.815	12904.08637
693.253	12741.03034
693.69	12602.87876
694.128	12617.10049
694.565	12358.8116
695.003	12410.59294
695.44	12208.99127
695.877	12026.94763
696.314	11560.19823
696.751	11547.80946
697.188	11526.57602
697.625	11273.46782
698.061	11406.78067
698.498	11340.51953
698.934	11099.44859
699.371	10983.04546
699.807	10666.86935
700.243	10654.7591
700.679	10310.73132
701.115	10228.42828
701.551	10119.08616
701.987	9908.52081
702.422	9910.49328
702.858	9699.96303
703.294	9565.63645
703.729	9474.48268
704.164	9372.25649
704.599	8931.3303
705.035	8924.3562
705.47	8889.49459
705.904	8753.17741
706.339	8574.81205
706.774	8474.78858
707.209	8346.616
707.643	8280.68862
708.078	8223.75399
708.512	8180.81555
708.946	7872.28301
709.38	7853.26768
709.814	7522.93132
710.248	7599.25424
710.682	7373.1403
711.116	7419.23608
711.549	7398.53979
711.983	7076.92455
712.416	6965.01729
712.85	6968.38815
713.283	6785.09226
713.716	6699.37767
714.149	6457.06782
714.582	6350.88712
715.015	6363.39197
715.448	6370.53059
715.881	5914.70298
716.313	5916.25485
716.746	5847.36293
717.178	5838.43581
717.61	5778.7559
718.043	5633.74708
718.475	5491.60383
718.907	5560.90864
719.339	5328.38167
719.77	5159.75743
720.202	5251.10073
720.634	5096.05549
721.065	4917.87014
721.497	4855.11619
721.928	4835.20252
722.359	4806.19036
722.79	4720.18462
723.221	4651.35605
723.652	4542.53195
724.083	4346.92583
724.514	4208.02451
724.945	4216.19118
725.375	4193.24933
725.806	4165.49482
726.236	4187.71902
726.666	3956.31363
727.096	4059.54815
727.526	4045.79642
727.956	3768.12237
728.386	3837.58281
728.816	3853.80514
729.246	3776.65983
729.675	3699.72743
730.105	3642.54185
730.534	3465.38255
730.964	3638.7625
731.393	3453.6393
731.822	3574.92864
732.251	3542.84717
732.68	3350.3554
733.109	3386.67965
733.537	3390.61177
733.966	3385.86127
734.395	3275.32623
734.823	3177.11984
735.251	3270.65281
735.68	3266.81424
736.108	3261.84896
736.536	3134.4234
736.964	3070.40654
737.392	3125.81886
737.82	3110.57111
738.247	3119.51515
738.675	3071.4938
739.102	3107.86194
739.53	3126.96615
739.957	3131.03134
740.384	3008.62483
740.811	3093.84332
741.238	3013.67235
741.665	2871.336
742.092	2990.52521
742.519	3008.75935
742.945	2888.56885
743.372	3019.78528
743.798	3046.99528
744.225	2818.49599
744.651	3012.8198
745.077	2947.78037
745.503	2930.62648
745.929	2912.54229
746.355	2929.72164
746.781	2992.74304
747.207	2835.54558
747.632	2869.75425
748.058	2954.79111
748.483	2832.33782
748.908	3012.74466
749.334	3039.72889
749.759	2842.38569
750.184	2998.56989
750.609	2996.72347
751.033	2914.43159
751.458	2853.15911
751.883	3059.72735
752.307	2893.49247
752.732	3105.91326
753.156	3063.80602
753.58	2977.52223
754.005	3111.83641
754.429	3001.4788
754.853	3021.74281
755.277	2943.40648
755.7	3110.7774
756.124	3024.77563
756.548	3080.55135
756.971	3048.55882
757.394	3212.03776
757.818	3247.96894
758.241	3143.90728
758.664	3199.92146
759.087	3038.22071
759.51	3183.73354
759.933	3109.62693
760.356	3235.9266
760.778	3175.79602
761.201	3158.63102
761.623	3050.53887
762.046	3125.46685
762.468	2967.4242
762.89	3137.6623
763.312	3175.72337
763.734	3103.56365
764.156	3110.72626
764.578	3122.35377
765	3142.67504
765.421	3282.9441
765.843	3217.07769
766.264	3010.56541
766.686	3090.74114
767.107	3046.57628
767.528	3116.91903
767.949	3226.91612
768.37	2973.57847
768.791	3009.59758
769.212	3124.88069
769.632	2943.42098
770.053	3130.15386
770.473	2908.60722
770.894	2936.71512
771.314	2809.39166
771.734	2763.38805
772.154	2891.85766
772.575	2757.27689
772.994	2699.224
773.414	2729.47453
773.834	2807.77105
774.254	2784.70686
774.673	2624.52701
775.093	2675.66806
775.512	2684.61338
775.931	2678.79045
776.351	2657.66966
776.77	2563.57906
777.189	2461.3683
777.607	2605.81495
778.026	2511.67761
778.445	2549.73049
778.864	2444.74616
779.282	2336.39932
779.701	2405.61248
780.119	2479.84334
780.537	2297.57562
780.955	2251.5364
781.373	2171.40471
781.791	2012.9131
782.209	1946.92389
782.627	2313.90969
783.045	1981.02139
783.462	2080.53647
783.88	2095.58939
784.297	1973.36776
784.715	2020.51846
785.132	1904.1729
785.549	1933.32486
785.966	1859.24668
786.383	1792.10053
786.8	1698.79835
787.217	1667.84829
787.633	1650.02797
788.05	1569.6911
788.466	1424.47007
788.883	1669.10313
789.299	1466.66866
789.715	1481.74532
790.131	1551.91649
790.547	1478.76871
790.963	1447.77187
791.379	1467.84376
791.795	1232.21533
792.21	1253.30192
792.626	1191.25748
793.041	1301.5666
793.457	1294.55218
793.872	1139.17329
794.287	1118.20959
794.702	1150.29935
795.117	1163.38247
795.532	1109.3226
795.947	1001.0198
796.362	997.00713
796.776	883.74543
797.191	974.03822
797.605	875.82961
798.02	861.82331
798.434	611.22463
798.848	904.94393
799.262	860.8888
799.676	752.61623
800.09	832.83035
800.504	689.49626
800.918	594.28126
801.331	774.77792
801.745	493.06378
802.158	644.47033
802.572	514.15058
802.985	483.09061
803.398	455.02561
803.811	558.30392
804.224	465.07675
804.637	417.95758
805.05	296.6652
805.462	383.9006
805.875	481.17909
806.288	310.73792
806.7	353.85907
807.112	142.32802
807.525	283.68129
807.937	263.63818
808.349	241.59444
808.761	262.63372
809.173	173.41839
809.584	188.45903
809.996	170.41879
810.408	246.62864
810.819	65.15803
811.231	299.77087
811.642	89.22276
812.053	115.28565
812.464	45.11145
812.875	101.26097
813.286	73.19123
813.697	-115.28367
814.108	-57.14467
814.519	-255.61668
814.929	4.01043
815.34	-68.17494
815.75	-35.09243
816.16	-60.1549
816.571	-27.0715
816.981	-211.53209
817.391	-178.46111
817.801	-115.30452
818.211	-294.75206
818.62	-214.55913
819.03	-216.56416
819.44	-111.3003
819.849	-216.57528
820.259	-204.54747
820.668	-206.545
821.077	-191.50997
821.486	-346.90912
821.895	-276.7277
822.304	-127.35123
822.713	-360.94397
823.122	-284.7656
823.531	-391.03262
823.939	-366.98397
824.348	-314.83592
824.756	-298.81012
825.164	-331.89733
825.573	-285.78388
825.981	-374.00982
826.389	-335.91784
826.797	-405.10094
827.205	-496.29966
827.612	-398.0831
828.02	-486.29145
828.428	-331.91724
828.835	-285.80432
829.243	-484.30441
829.65	-397.084
830.057	-439.18701
830.464	-489.32964
830.871	-502.34681
831.278	-518.40066
831.685	-654.7116
832.092	-448.2233
832.499	-687.77143
832.905	-436.21012
833.312	-612.61682
833.718	-452.246
834.124	-628.653
834.531	-437.20667
834.937	-473.31885
835.343	-545.48868
835.749	-660.75816
836.155	-385.08963
836.561	-491.3547
836.966	-521.42851
837.372	-456.27864
837.777	-481.34035
838.183	-758.98902
838.588	-568.57146
838.993	-585.60915
839.399	-551.51894
839.804	-563.55154
840.209	-446.262
840.613	-733.93673
841.018	-513.43533
841.423	-469.32216
841.828	-493.39157
842.232	-556.53873
842.637	-629.71381
843.041	-455.29234
843.445	-530.48634
843.849	-578.6091
844.253	-633.72911
844.657	-509.43503
845.061	-710.90189
845.465	-609.68044
845.869	-688.86763
846.272	-601.67288
846.676	-638.75024
847.079	-465.31761
847.483	-595.6618
847.886	-636.73758
848.289	-406.17646
848.692	-537.51677
849.095	-631.74441
849.498	-579.62604
849.901	-769.07122
850.304	-639.76045
850.707	-546.54243
851.109	-571.6021
851.512	-561.56586
851.914	-516.47255
852.316	-571.6021
852.718	-480.3738
853.121	-608.69471
853.523	-663.81564
853.925	-457.31658
854.326	-596.67404
854.728	-498.4241
855.13	-496.42675
855.531	-634.75899
855.933	-702.92451
856.334	-574.61666
856.736	-775.07724
857.137	-725.96895
857.538	-535.51567
857.939	-571.60699
858.34	-629.74431
858.741	-489.40392
859.142	-641.76873
859.542	-450.30301
859.943	-579.6186
860.343	-616.7339
860.744	-626.73356
861.144	-693.92469
861.544	-634.76499
861.945	-504.43786
862.345	-643.78866
862.745	-569.60864
863.145	-696.9129
863.544	-580.64295
863.944	-726.98207
864.344	-608.7041
864.743	-612.70481
865.143	-539.54165
865.542	-724.97284
865.941	-605.70784
866.34	-685.88772
866.74	-446.29627
867.139	-643.78479
867.537	-556.57685
867.936	-638.76514
868.335	-545.54911
868.734	-504.44426
869.132	-702.91599
869.531	-698.92322
869.929	-773.10953
870.327	-662.83665
870.726	-627.75224
871.124	-710.94335
871.522	-539.53205
871.92	-630.77383
872.318	-645.79865
872.715	-660.84075
873.113	-617.72271
873.511	-572.62126
873.908	-543.55263
874.306	-584.65329
874.703	-597.6771
875.1	-561.59651
875.497	-652.81228
875.894	-600.6863
876.291	-642.79057
876.688	-499.43854
877.085	-695.91286
877.482	-607.71142
877.878	-653.81085
878.275	-547.55944
878.671	-815.1709
879.068	-667.84735
879.464	-654.80939
879.86	-715.96353
880.256	-635.77786
880.652	-571.62837
881.048	-635.77677
881.444	-743.03536
881.84	-578.64367
882.236	-599.69091
882.631	-620.74621
883.027	-684.8894
883.422	-581.65984
883.817	-537.53365
884.213	-542.55504
884.608	-630.77276
885.003	-661.84495
885.398	-566.60954
885.793	-604.70631
886.188	-569.61106
886.582	-594.68564
886.977	-691.90006
887.371	-623.75705
887.766	-601.70014
888.16	-621.75088
888.554	-662.84973
888.949	-613.72781
889.343	-686.91145
889.737	-443.30175
890.131	-618.739
890.525	-582.66393
890.918	-623.75812
891.312	-745.04406
891.706	-565.62272
892.099	-607.71814
892.492	-859.26168
892.886	-664.85019
893.279	-558.5953
893.672	-618.74743
894.065	-610.71805
894.458	-575.63636
894.851	-655.82765
895.244	-587.67599
895.637	-654.8139
896.029	-652.81677
896.422	-649.80367
896.814	-631.77476
897.206	-707.95319
897.599	-682.91142
897.991	-693.92111
898.383	-683.8887
898.775	-832.24269
899.167	-723.98736
899.559	-585.65488
899.951	-745.04406
900.342	-601.70167
900.734	-589.67271
901.125	-519.5006
901.517	-624.75054
901.908	-714.97035
902.299	-615.7345
902.69	-717.97769
903.082	-680.88948
903.473	-675.87995
903.863	-577.64743
904.254	-741.03244
904.645	-625.76003
905.036	-668.86821
905.426	-810.18411
905.817	-645.81247
906.207	-690.91725
906.597	-781.13203
906.987	-541.55605
907.378	-621.75882
907.768	-502.46046
908.158	-669.86842
908.547	-545.57169
908.937	-574.62986
909.327	-657.83661
909.717	-608.72227
910.106	-700.93839
910.495	-612.7263
910.885	-552.56785
911.274	-622.75768
911.663	-613.73408
912.052	-658.83517
912.441	-592.67846
912.83	-774.10857
913.219	-528.51975
913.608	-669.86785
913.997	-591.67839
914.385	-712.95807
914.774	-675.88169
915.162	-698.93946
915.55	-691.91854
915.939	-608.73053
916.327	-657.84224
916.715	-587.67599
917.103	-657.83098
917.491	-656.83129
917.878	-689.91596
918.266	-576.6458
918.654	-533.52358
919.041	-509.47295
919.429	-719.98134
919.816	-602.70476
920.203	-671.87343
920.591	-652.83074
920.978	-709.96909
921.365	-504.45614
921.752	-702.94634
922.139	-872.31923
922.525	-681.90483
922.912	-687.91453
923.299	-640.81289
923.685	-507.46247
924.072	-813.19184
924.458	-630.7706
924.844	-629.77343
925.231	-759.07723
925.617	-576.64872
926.003	-577.64401
926.389	-598.69953
926.774	-582.65307
927.16	-644.81763
927.546	-557.60067
927.931	-624.76227
928.317	-807.1841
928.702	-759.07854
929.088	-719.99127
929.473	-595.69429
929.858	-673.8842
930.243	-698.94187
930.628	-625.75147
931.013	-617.73697
931.398	-812.19727
931.783	-522.50335
932.167	-647.82251
932.552	-642.80596
932.937	-644.80884
933.321	-603.71195
933.705	-566.60329
934.09	-629.77451
934.474	-717.9684
934.858	-545.56756
935.242	-760.07766
935.626	-548.57226
936.009	-529.5313
936.393	-606.72792
936.777	-563.61031
937.16	-557.6002
937.544	-758.07154
937.927	-563.60841
938.311	-687.91335
938.694	-523.51305
939.077	-696.92552
939.46	-727.00657
939.843	-924.41276
940.226	-560.60149
940.609	-721.97187
940.991	-577.64597
941.374	-655.83383
941.757	-664.85532
942.139	-781.11442
942.522	-753.05624
942.904	-704.95552
943.286	-615.74445
943.668	-535.53833
944.05	-652.83408
944.432	-611.72426
944.814	-677.88726
945.196	-619.73625
945.578	-659.83768
945.959	-740.0281
946.341	-697.92317
946.722	-727.98259
947.104	-701.94146
947.485	-744.02618
947.866	-550.57103
948.247	-619.74789
948.628	-702.95057
949.009	-552.58327
949.39	-617.72959
949.771	-753.05429
950.152	-635.78492
950.532	-614.73298
950.913	-678.87868
951.293	-418.22524
951.674	-601.68113
952.054	-594.68059
952.434	-645.81357
952.814	-698.92201
953.194	-531.52369
953.574	-679.89109
953.954	-702.93302
954.334	-618.74638
954.714	-651.8232
955.093	-667.8594
955.473	-621.74929
955.853	-543.55217
956.232	-438.28468
956.611	-706.95073
956.99	-580.64838
957.37	-575.6427
957.749	-687.90034
958.128	-567.61311
958.506	-484.39669
958.885	-565.6031
959.264	-612.72891
959.643	-809.17683
960.021	-616.7381
960.4	-785.12047
960.778	-640.78884
961.156	-591.67738
961.535	-769.09661
961.913	-743.03214
962.291	-507.46077
962.669	-605.71403
963.047	-586.66543
963.424	-569.61735
963.802	-620.73879
964.18	-589.66519
964.557	-774.09984
964.935	-719.97824
965.312	-535.53608
965.69	-642.80596
966.067	-652.82013
966.444	-666.85919
966.821	-563.60793
967.198	-708.97088
967.575	-713.98815
967.952	-734.00593
968.329	-655.8254
968.705	-936.45395
969.082	-536.53556
969.458	-664.85589
969.835	-670.86229
970.211	-541.55468
970.587	-620.74091
970.963	-577.64548
971.339	-518.49444
971.715	-617.73697
972.091	-644.80498
972.467	-624.76067
972.843	-639.80271
973.219	-731.005
973.594	-481.39549
973.97	-722.98305
974.345	-692.91923
974.721	-731.01824
975.096	-678.88218
975.471	-720.98379
975.846	-702.94029
976.221	-551.57691
976.596	-690.91963
976.971	-647.81311
977.346	-775.10356
977.72	-552.5716
978.095	-549.57999
978.469	-721.9856
978.844	-633.78093
979.218	-698.92864
979.593	-729.0146
979.967	-671.86939
980.341	-778.10393
980.715	-594.68766
981.089	-667.87995
981.463	-735.00771
981.837	-657.84449
982.21	-776.10863
982.584	-673.87034
982.957	-595.68418
983.331	-732.01438
983.704	-710.97583
984.078	-643.81125
984.451	-676.8952
984.824	-646.80394
985.197	-701.95291
985.57	-608.71657
985.943	-660.83791
986.316	-673.88305
986.688	-717.98759
987.061	-731.01068
987.434	-543.56729
987.806	-663.8437
988.179	-701.93118
988.551	-577.64205
988.923	-666.8706
989.295	-689.92955
989.667	-682.89797
990.039	-616.73758
990.411	-799.17424
990.783	-784.1222
991.155	-657.8428
991.527	-689.92188
991.898	-601.69707
992.27	-661.85797
992.641	-628.77035
993.012	-742.03166
993.384	-732.01185
993.755	-553.58077
994.126	-726.01224
994.497	-638.78871
994.868	-786.14194
995.239	-688.90696
995.61	-595.69278
995.98	-671.88549
996.351	-653.84163
996.722	-708.94095
997.092	-713.96975
997.462	-738.0309
997.833	-744.04228
998.203	-707.96171
998.573	-630.77168
998.943	-721.98186
999.313	-681.8908
999.683	-667.85998
1000.053	-773.10417
1000.423	-688.90518
1000.792	-501.43967
1001.162	-656.83185
1001.531	-623.74374
1001.901	-579.64037
1002.27	-831.22441
1002.639	-552.57814
1003.009	-749.06085
1003.378	-597.69745
1003.747	-715.97897
1004.116	-701.94568
1004.485	-737.0291
1004.853	-604.71761
1005.222	-623.75865
1005.591	-726.99591
1005.959	-795.15715
1006.328	-816.19673
1006.696	-676.89172
1007.064	-622.75874
1007.433	-638.79907
1007.801	-703.9615
1008.169	-638.80288
1008.537	-868.32529
1008.905	-748.05261
1009.273	-679.89691
1009.64	-688.91702
1010.008	-720.9993
1010.375	-777.13455
1010.743	-803.17537
1011.11	-716.97895
1011.478	-667.87369
1011.845	-752.05709
1012.212	-776.09312
1012.579	-691.93219
1012.946	-725.99536
1013.313	-750.0594
1013.68	-826.20778
1014.047	-716.99374
1014.414	-710.95748
1014.78	-656.84365
1015.147	-721.98996
1015.513	-680.88714
1015.88	-603.70887
1016.246	-696.93571
1016.612	-840.26497
1016.978	-671.87975
1017.344	-630.77598
1017.71	-713.97221
1018.076	-748.04421
1018.442	-589.67721
1018.808	-603.70117
1019.174	-597.69238
1019.539	-848.27914
1019.905	-749.06021
1020.27	-634.78726
1020.636	-716.98204
1021.001	-722.99303
1021.366	-695.93024
1021.731	-598.70055
1022.096	-589.67421
1022.461	-754.07819
1022.826	-730.00761
1023.191	-538.55398
1023.556	-745.04792
1023.92	-691.93041
1024.285	-696.94944
1024.649	-655.83271
1025.014	-639.79725
1025.378	-603.70939
1025.742	-642.81582
1026.107	-831.22876
1026.471	-787.12792
1026.835	-608.71346
1027.199	-645.81082
1027.562	-786.14806
1027.926	-679.89342
1028.29	-581.65935
1028.654	-785.13138
1029.017	-695.93979
1029.381	-709.9636
1029.744	-635.81301
1030.107	-742.0323
1030.471	-760.09603
1030.834	-817.19764
1031.197	-754.08078
1031.56	-761.08599
1031.923	-565.62176
1032.286	-772.11248
1032.648	-694.92597
1033.011	-834.26402
1033.374	-794.16786
1033.736	-518.50487
1034.099	-652.82516
1034.461	-632.794
1034.823	-645.81633
1035.185	-600.69654
1035.548	-678.9008
1035.91	-726.01224
1036.272	-848.28136
1036.634	-701.9481
1036.995	-734.02178
1037.357	-709.98976
1037.719	-732.03013
1038.08	-762.0963
1038.442	-761.09846
1038.803	-710.95994
1039.165	-568.61716
1039.526	-711.97831
1039.887	-713.97835
1040.248	-674.89478
1040.609	-686.91322
1040.97	-668.87507
1041.331	-601.70627
1041.692	-710.96239
1042.053	-798.15662
1042.413	-777.12448
1042.774	-686.90556
1043.134	-704.94035
1043.495	-624.75748
1043.855	-708.97513
1044.215	-634.79104
1044.576	-666.85347
1044.936	-807.1848
1045.296	-644.81763
1045.656	-705.9707
1046.016	-719.98817
1046.375	-706.95803
1046.735	-788.12617
1047.095	-752.05188
1047.454	-928.41418
1047.814	-737.04938
1048.173	-786.14126
1048.533	-796.15053
1048.892	-690.92792
1049.251	-618.74848
1049.61	-664.86157
1049.969	-700.93477
1050.328	-905.39145
1050.687	-693.93064
1051.046	-711.9728
1051.405	-616.74388
1051.763	-789.14977
1052.122	-620.7478
1052.48	-701.9487
1052.839	-747.04826
1053.197	-717.96902
1053.555	-890.3694
1053.914	-708.96662
1054.272	-748.06487
1054.63	-654.83859
1054.988	-731.02264
1055.345	-906.38733
1055.703	-719.99065
1056.061	-579.65608
1056.419	-544.55894
1056.776	-751.08122
1057.134	-786.14602
1057.491	-642.81035
1057.848	-664.85987
1058.206	-745.04406
1058.563	-864.29342
1058.92	-826.22796
1059.277	-671.87803
1059.634	-731.99158
1059.991	-707.95441
1060.348	-812.19657
1060.704	-716.98574
1061.061	-795.15646
1061.418	-686.90142
1061.774	-644.80773
1062.131	-499.45485
1062.487	-756.06869
1062.843	-637.78455
1063.199	-626.77111
1063.555	-755.06628
1063.911	-637.79761
1064.267	-990.5604
1064.623	-689.92542
1064.979	-750.05486
1065.335	-739.02823
1065.691	-736.03047
1066.046	-945.48375
1066.402	-778.11069
1066.757	-630.78189
1067.112	-674.87282
1067.468	-666.85576
1067.823	-704.95915
1068.178	-718.98757
1068.533	-678.8851
1068.888	-742.04319
1069.243	-639.78577
1069.598	-668.85903
1069.952	-809.1874
1070.307	-603.70528
1070.662	-755.07736
1071.016	-844.26987
1071.371	-821.21055
1071.725	-722.98929
1072.079	-715.97033
1072.434	-669.86899
1072.788	-710.96239
1073.142	-638.78653
1073.496	-741.03756
1073.85	-801.16717
1074.203	-635.77731
1074.557	-483.40494
1074.911	-743.03086
1075.265	-797.1764
1075.618	-690.91131
1075.971	-730.00761
1076.325	-589.6797
1076.678	-783.13682
1077.031	-799.15689
1077.385	-844.25292
1077.738	-815.19794
1078.091	-796.15883
1078.444	-775.10894
1078.796	-670.8646
1079.149	-660.85432
1079.502	-695.92844
1079.855	-743.03407
1080.207	-655.83215
1080.56	-560.60481
1080.912	-705.9592
1081.264	-684.89176
1081.617	-631.7672
1081.969	-586.67189
1082.321	-698.94426
1082.673	-770.093
1083.025	-717.97831
1083.377	-917.42152
1083.728	-786.13444
1084.08	-630.77168
1084.432	-680.88831
1084.783	-769.09728
1085.135	-622.76086
1085.486	-741.01512
1085.838	-653.83438
1086.189	-713.98141
1086.54	-736.02539
1086.891	-582.65752
1087.242	-722.00486
1087.593	-679.88408
1087.944	-846.26713
1088.295	-805.16467
1088.646	-666.85805
1088.996	-717.99067
1089.347	-681.91008
1089.698	-728.00525
1090.048	-588.6776
1090.398	-794.14927
1090.749	-711.96729
1091.099	-559.60029
1091.449	-663.87377
1091.799	-613.73251
1092.149	-617.74013
1092.499	-694.93611
1092.849	-578.65102
1093.199	-637.78564
1093.548	-665.84182
1093.898	-627.77367
1094.248	-573.63116
1094.597	-540.55476
1094.947	-489.41954
1095.296	-662.852
1095.645	-551.58296
1095.994	-724.9973
1096.343	-625.76908
1096.692	-443.29807
1097.041	-485.42046
1097.39	-570.61511
1097.739	-548.57457
1098.088	-470.37043
1098.437	-514.49195
1098.785	-487.41617
1099.134	-508.47027
1099.482	-402.18726
1099.83	-542.55824
1100.179	-490.41731
1100.527	-514.49066
1100.875	-517.50175
1101.223	-518.5053
1101.571	-392.16059
1101.919	-489.41995
1102.267	-372.11257
1102.615	4.01291
1102.962	-7.02257
1103.31	2.00645
1103.658	9.02904
