Data from N2 R0 105C sample3_Subt2__4__11-55-39-759.txt Node

Date: Tue Aug 19 11:55:39 PDT 2025
User: uwsun
Spectrometer: HDX01956
Trigger mode: 0
Integration Time (sec): 1.000000E-1
Scans to average: 1
Nonlinearity correction enabled: true
Boxcar width: 0
Storing dark spectrum: false
XAxis mode: Wavelengths
Number of Pixels in Spectrum: 2068
>>>>>Begin Spectral Data<<<<<
194.03	9.0264
194.578	2.00653
195.127	-7.02258
195.676	13.04199
196.225	-426.25931
196.773	-318.95957
197.321	-280.84565
197.87	-393.14448
198.418	-421.21946
198.966	-366.07227
199.513	-496.42257
200.061	-437.26587
200.609	-358.04967
201.156	-737.99316
201.704	-441.27377
202.251	-329.97423
202.798	-388.13329
203.345	-502.43257
203.892	-461.32618
204.438	-555.55815
204.985	-539.51782
205.532	-359.05336
206.078	-514.46466
206.624	-500.42686
207.17	-597.653
207.716	-511.44547
208.262	-913.3546
208.808	-459.315
209.354	-517.46861
209.899	-461.31839
210.445	-449.28669
210.99	-503.4211
211.535	-567.58456
212.08	-580.61816
212.625	-440.26031
213.17	-440.26588
213.715	-613.68406
214.259	-598.65964
214.804	-499.4132
215.348	-649.78182
215.892	-559.56938
216.436	-610.68663
216.98	-690.88266
217.524	-586.63842
218.068	-428.23528
218.612	-455.30583
219.155	-591.64656
219.698	-591.66328
220.242	-468.33308
220.785	-609.6857
221.328	-516.47343
221.871	-492.41233
222.414	-492.4036
222.956	-530.50353
223.499	-694.90079
224.041	-622.72463
224.583	-773.04953
225.126	-749.03102
225.668	-567.60298
226.21	-484.38935
226.751	-715.93745
227.293	-611.68121
227.835	-495.40144
228.376	-631.7335
228.918	-462.32692
229.459	-488.39589
230	-591.65113
230.541	-594.64853
231.082	-562.57034
231.622	-668.84234
232.163	-548.54808
232.704	-525.49402
233.244	-495.40733
233.784	-526.48591
234.324	-695.8972
234.864	-664.81809
235.404	-587.63794
235.944	-577.60209
236.484	-516.46467
237.023	-574.60486
237.563	-625.72189
238.102	-607.67859
238.641	-470.35269
239.18	-588.63644
239.719	-471.34543
240.258	-676.84389
240.797	-550.54528
241.335	-537.52317
241.874	-899.30736
242.412	-540.52409
242.95	-580.63257
243.488	-636.75026
244.026	-625.7154
244.564	-827.16944
245.102	-713.9531
245.64	-568.58808
246.177	-673.83776
246.715	-536.50042
247.252	-651.79519
247.789	-964.43676
248.326	-518.45754
248.863	-692.87487
249.4	-661.81361
249.936	-840.19873
250.473	-574.58955
251.009	-630.74518
251.546	-708.9151
252.082	-718.93649
252.618	-696.8863
253.154	-536.51143
253.69	-674.82965
254.226	-568.58711
254.761	-635.74119
255.297	-734.97256
255.832	-605.68297
256.367	-576.6065
256.903	-734.9687
257.438	-616.71224
257.972	-649.76208
258.507	-625.72945
259.042	-698.88015
259.576	-716.92985
260.111	-607.6681
260.645	-770.05339
261.179	-614.70034
261.713	-658.79138
262.247	-598.64931
262.781	-786.08573
263.315	-490.38873
263.849	-456.30504
264.382	-640.75573
264.915	-551.53462
265.449	-448.273
265.982	-615.68582
266.515	-536.50776
267.048	-732.95693
267.58	-717.93411
268.113	-737.98287
268.646	-469.33055
269.178	-669.82219
269.71	-717.93787
270.243	-651.78336
270.775	-457.31196
271.307	-561.57356
271.838	-589.62831
272.37	-506.43282
272.902	-646.76714
273.433	-737.97255
273.965	-511.43849
274.496	-514.45549
275.027	-470.33199
275.558	-530.49314
276.089	-487.38746
276.62	-422.20868
277.15	-537.51448
277.681	-721.94363
278.211	-568.5876
278.741	-702.90622
279.272	-641.75653
279.802	-502.42959
280.332	-572.58894
280.861	-552.55137
281.391	-648.77036
281.921	-543.52398
282.45	-456.29809
282.98	-394.14526
283.509	-660.78763
284.038	-624.70643
284.567	-638.75853
285.096	-521.46443
285.625	-639.75658
286.153	-596.64431
286.682	-622.70528
287.21	-523.46602
287.739	-531.47569
288.267	-501.40259
288.795	-395.13972
289.323	-557.55086
289.851	-560.55415
290.378	-648.7636
290.906	-505.42029
291.433	-485.37393
291.961	-656.79335
292.488	-487.38043
293.015	-534.48242
293.542	-398.13815
294.069	-504.41769
294.596	-490.38121
295.122	-542.50978
295.649	-687.84422
296.175	-478.34531
296.702	-529.48149
297.228	-526.47331
297.754	-611.6722
298.28	-638.74803
298.806	-527.47091
299.332	-663.79777
299.857	-626.69828
300.383	-444.26652
300.908	-502.41077
301.433	-524.46501
301.958	-601.63805
302.483	-457.2988
303.008	-481.35889
303.533	-377.08134
304.058	-565.56682
304.582	-528.46211
305.107	-334.96936
305.631	-646.75816
306.155	-579.59966
306.679	-590.6201
307.203	-549.50486
307.727	-543.50297
308.251	-480.35504
308.775	-540.50606
309.298	-487.3642
309.822	-420.19583
310.345	-515.43253
310.868	-525.45765
311.391	-473.32738
311.914	-428.215
312.437	-598.62805
312.96	-528.45161
313.482	-540.49163
314.005	-419.18853
314.527	-332.9644
315.049	-450.27448
315.571	-593.60539
316.093	-444.2533
316.615	-482.34542
317.137	-678.81026
317.659	-466.30591
318.18	-520.43994
318.702	-570.55477
319.223	-720.89001
319.744	-591.59378
320.265	-468.3055
320.786	-412.15933
321.307	-425.19724
321.828	-586.59384
322.348	-478.3132
322.869	-476.318
323.389	-1201.73475
323.909	-564.52956
324.43	-502.38572
324.95	-547.48367
325.47	-439.22167
325.989	-490.34195
326.509	-617.65472
327.029	-576.54398
327.548	-585.57452
328.067	-410.13501
328.587	-415.16263
329.106	-587.56961
329.625	-307.87766
330.144	-494.34088
330.662	-542.46181
331.181	-493.33967
331.7	-476.29778
332.218	-616.63228
332.736	-490.33471
333.255	-505.36923
333.773	-487.32717
334.291	-385.06718
334.808	-514.36865
335.326	-517.38097
335.844	-467.26527
336.361	-324.9103
336.879	-427.15862
337.396	-415.13396
337.913	-486.29915
338.43	-515.36701
338.947	-456.23523
339.464	-597.55632
339.981	-422.14227
340.497	-383.04869
341.014	-373.02255
341.53	-525.37921
342.046	-369.00611
342.562	-305.84072
343.078	-435.17199
343.594	-392.05475
344.11	-413.10611
344.626	-282.7782
345.141	-517.36777
345.657	-542.42942
346.172	-383.03468
346.687	-447.1871
347.202	-481.25882
347.717	-385.03504
348.232	-292.79867
348.747	-432.1413
349.261	-509.32134
349.776	-405.07788
350.29	-309.84609
350.805	-270.73757
351.319	-427.13879
351.833	-475.23804
352.347	-407.07748
352.861	-439.15963
353.374	-452.18022
353.888	-351.94289
354.401	-430.12764
354.915	-470.22353
355.428	-287.77583
355.941	-392.03371
356.454	-458.1792
356.967	-382.00323
357.48	-432.12254
357.993	-309.83147
358.505	-315.84123
359.018	-311.83192
359.53	-328.87723
360.042	-500.28437
360.554	-318.8415
361.066	-289.7708
361.578	-493.2432
362.09	-348.9119
362.602	-478.21625
363.113	-356.92873
363.625	-422.08035
364.136	-466.17941
364.647	-317.8283
365.158	-377.97458
365.669	-311.81235
366.18	-344.89222
366.691	-445.12279
367.201	-318.83445
367.712	-394.01064
368.222	-361.92257
368.733	-433.09402
369.243	-368.92273
369.753	-279.71507
370.263	-300.78536
370.773	-265.69341
371.282	-289.74484
371.792	-281.72121
372.301	-241.62568
372.811	-112.29792
373.32	-426.03615
373.829	-253.64482
374.338	-329.80487
374.847	-249.62093
375.356	-211.53114
375.865	-399.94989
376.373	-265.64761
376.882	-45.11401
377.39	-115.2844
377.898	-84.21036
378.407	-246.58538
378.915	-290.67066
379.423	-77.18342
379.93	-160.37048
380.438	-7.01681
380.946	16.03708
381.453	24.05588
381.96	53.12075
382.468	122.2734
382.975	164.36449
383.482	18.03802
383.989	282.63582
384.495	158.33068
385.002	81.15905
385.509	288.59742
386.015	56.1021
386.521	425.79791
387.028	287.54093
387.534	336.59958
388.04	440.81896
388.546	405.7162
389.051	470.78042
389.557	623.0245
390.063	745.1708
390.568	863.34755
391.073	796.16817
391.578	995.48993
392.084	815.11129
392.589	788.98308
393.093	1168.42482
393.598	1230.3273
394.103	1426.42346
394.607	1690.3492
395.112	1903.42312
395.616	1976.28653
396.12	2170.89583
396.624	2435.66967
397.128	2799.43794
397.632	3137.88354
398.136	3247.49762
398.639	3571.2033
399.143	4124.80537
399.646	4627.59139
400.15	5066.93762
400.653	5892.54115
401.156	6522.32977
401.659	7666.00869
402.162	9458.30618
402.664	11508.61642
403.167	16537.54152
403.67	19890.77727
404.172	2696.20453
404.674	0
405.176	0
405.678	0
406.18	0
406.682	0
407.184	0
407.686	25783.58453
408.187	43316.52985
408.688	33158.52364
409.19	22017.66
409.691	17987.77069
410.192	15228.38773
410.693	13103.03831
411.194	12022.95086
411.694	11810.12403
412.195	10994.27248
412.696	9922.52172
413.196	9136.21706
413.696	9234.59737
414.196	9532.16755
414.696	9596.3022
415.196	8815.55527
415.696	8165.92284
416.196	6290.86102
416.695	4724.79103
417.195	3932.22898
417.694	3528.21025
418.194	3278.5494
418.693	3202.96765
419.192	3195.1729
419.691	3136.24839
420.19	3074.35375
420.688	2860.53422
421.187	2504.36103
421.685	2433.84256
422.184	2228.19455
422.682	1654.25534
423.18	1350.42386
423.678	1175.42887
424.176	1090.41825
424.674	878.18092
425.172	919.37476
425.669	823.36648
426.167	703.159
426.664	475.8396
427.161	380.6904
427.659	428.84497
428.156	122.22694
428.652	367.78897
429.149	271.57182
429.646	79.1604
430.143	162.34956
430.639	120.26116
431.135	173.39716
431.632	7.01543
432.128	33.0761
432.624	81.19701
433.12	-99.224
433.616	-220.49645
434.111	-143.34062
434.607	-90.21574
435.103	-325.73081
435.598	-329.74132
436.093	-177.42742
436.588	-326.77093
437.083	-319.7656
437.578	-271.66375
438.073	-132.33912
438.568	-214.54341
439.062	-414.9922
439.557	-275.68948
440.051	-382.94505
440.546	-384.95972
441.04	-278.71563
441.534	-142.37355
442.028	-306.78384
442.522	-274.70214
443.015	-466.1509
443.509	-273.71215
444.002	-274.7161
444.496	-455.13292
444.989	-327.85471
445.482	-259.68301
445.975	-410.0481
446.468	-522.2927
446.961	-473.17099
447.454	-485.23126
447.947	-318.82567
448.439	-392.02191
448.931	-424.08017
449.424	-273.72524
449.916	-307.80764
450.408	-477.22032
450.9	-338.8968
451.392	-313.84416
451.884	-461.18632
452.375	-286.77049
452.867	-507.29943
453.358	-466.20191
453.849	-566.41197
454.341	-475.21774
454.832	-570.44039
455.323	-356.94988
455.814	-482.2578
456.304	-472.22581
456.795	-489.27414
457.285	-564.44037
457.776	-500.28749
458.266	-415.09429
458.756	-439.16118
459.247	-419.11299
459.737	-407.08465
460.226	-525.36478
460.716	-409.0925
461.206	-377.00023
461.695	-394.06875
462.185	-495.30688
462.674	-505.33777
463.163	-604.55659
463.653	-626.59151
464.142	-425.14203
464.63	-393.06346
465.119	-518.36561
465.608	-496.31412
466.096	-625.61379
466.585	-534.41254
467.073	-482.29056
467.561	-481.29442
468.05	-531.41186
468.538	-415.12456
469.026	-468.25878
469.513	-540.427
470.001	-599.58062
470.489	-511.38373
470.976	-523.38919
471.463	-411.12479
471.951	-417.14233
472.438	-520.39196
472.925	-557.49425
473.412	-478.30282
473.899	-565.49036
474.385	-443.2048
474.872	-533.44428
475.359	-448.22836
475.845	-724.85423
476.331	-733.89196
476.817	-501.36928
477.303	-575.54457
477.789	-507.38261
478.275	-470.29934
478.761	-495.35459
479.247	-625.66795
479.732	-459.28056
480.218	-377.06791
480.703	-459.27543
481.188	-743.94411
481.673	-629.69461
482.158	-714.87742
482.643	-460.28553
483.128	-610.63728
483.612	-599.62477
484.097	-542.49153
484.581	-591.58653
485.066	-519.43919
485.55	-694.84565
486.034	-771.02184
486.518	-574.57416
487.002	-455.26821
487.486	-515.4272
487.969	-494.37598
488.453	-486.36077
488.936	-644.73756
489.42	-715.8955
489.903	-498.39909
490.386	-1144.69588
490.869	-735.93942
491.352	-560.55849
491.835	-814.10693
492.318	-623.69747
492.8	-786.0421
493.283	-420.19405
493.765	-527.48085
494.247	-614.67214
494.73	-709.89579
495.212	-545.50522
495.694	-628.72336
496.175	-558.54716
496.657	-608.67585
497.139	-1076.62222
497.62	-559.54197
498.102	-508.43025
498.583	-497.39947
499.064	-651.76297
499.545	-651.77091
500.026	-682.84422
500.507	-615.68315
500.988	-492.39021
501.469	-462.30969
501.949	-505.42158
502.43	-582.62024
502.91	-793.07815
503.39	-506.42245
503.87	-569.57399
504.35	-617.69504
504.83	-704.88706
505.31	-576.60699
505.79	-544.51628
506.269	-589.62118
506.749	-658.79367
507.228	-595.64798
507.707	-692.85794
508.187	-623.72176
508.666	-482.35369
509.145	-577.59313
509.623	-640.76348
510.102	-556.55738
510.581	-580.60667
511.059	-469.33095
511.538	-440.26143
512.016	-531.48026
512.494	-554.55463
512.972	-599.6637
513.45	-605.67045
513.928	-496.39347
514.406	-507.42375
514.884	-414.18853
515.361	-551.53888
515.839	-630.7201
516.316	-561.57259
516.793	-467.33043
517.27	-571.5869
517.747	-426.22303
518.224	-616.69843
518.701	-648.76135
519.178	-528.49066
519.654	-582.61021
520.131	-541.52945
520.607	-533.50683
521.083	-668.83309
521.56	-568.58272
522.036	-707.90221
522.512	-553.54827
522.987	-584.63082
523.463	-560.56282
523.939	-527.48221
524.414	-664.82615
524.89	-591.64148
525.365	-640.74684
525.84	-539.50951
526.315	-539.51136
526.79	-673.83367
527.265	-613.68459
527.74	-550.54622
528.215	-583.62277
528.689	-689.86344
529.164	-752.00669
529.638	-407.17029
530.112	-573.59493
530.587	-734.9539
531.061	-532.48922
531.534	-596.66843
532.008	-545.52726
532.482	-691.88208
532.956	-461.3219
533.429	-541.51373
533.903	-740.99449
534.376	-739.99728
534.849	-636.75741
535.322	-603.67585
535.795	-533.49818
536.268	-586.63339
536.741	-604.69186
537.213	-645.77419
537.686	-526.48456
538.158	-695.8845
538.631	-575.60988
539.103	-672.83591
539.575	-841.20246
540.047	-732.96975
540.519	-561.56538
540.991	-547.53849
541.463	-540.51301
541.934	-646.77162
542.406	-569.59015
542.877	-661.81418
543.348	-534.49253
543.82	-572.61053
544.291	-636.75246
544.762	-608.69105
545.233	-458.30067
545.703	-705.90853
546.174	-619.70857
546.645	-543.51932
547.115	-512.43451
547.585	-632.72885
548.056	-502.41421
548.526	-529.46739
548.996	-564.57108
549.466	-535.49693
549.935	-548.51989
550.405	-673.79958
550.875	-556.53633
551.344	-520.45069
551.814	-583.59556
552.283	-740.9627
552.752	-566.55957
553.221	-621.6698
553.69	-698.87954
554.159	-442.24501
554.628	-640.73626
555.096	-374.06781
555.565	-573.53769
556.033	-540.48182
556.502	-463.28456
556.97	-650.74521
557.438	-529.45642
557.906	-534.47228
558.374	-570.54932
558.842	-495.36146
559.31	-581.55611
559.777	-477.3218
560.245	-518.4232
560.712	-519.41671
561.18	-567.52506
561.647	-581.55662
562.114	-530.42943
562.581	-406.12777
563.048	-497.34144
563.514	-377.04366
563.981	-508.3607
564.448	-504.33934
564.914	-451.21872
565.381	-461.22352
565.847	-390.04936
566.313	-379.01389
566.779	-457.19268
567.245	-361.96942
567.711	-288.77941
568.176	-385.00652
568.642	-172.47216
569.108	-226.61701
569.573	-225.59895
570.038	-344.86196
570.504	-350.90309
570.969	-57.15466
571.434	-231.58917
571.899	-112.29414
572.363	-198.50759
572.828	-149.37817
573.293	-103.26143
573.757	-94.23642
574.222	-99.24913
574.686	-37.09278
575.15	62.15734
575.614	2.00498
576.078	100.25115
576.542	26.06408
577.006	58.14104
577.469	228.5767
577.933	121.29429
578.396	145.35859
578.86	145.35951
579.323	214.53512
579.786	19.04502
580.249	127.31223
580.712	214.53821
581.175	273.6857
581.637	95.22967
582.1	59.14102
582.563	13.03047
583.025	253.62999
583.487	-48.11013
583.95	55.13096
584.412	17.03958
584.874	191.47597
585.336	176.43453
585.797	-2.00475
586.259	194.47544
586.721	148.36446
587.182	101.24767
587.643	53.12929
588.105	157.39082
588.566	-90.2108
589.027	233.58125
589.488	79.19286
589.949	213.53117
590.41	-163.37001
590.87	82.19731
591.331	15.03504
591.791	173.42359
592.252	181.4379
592.712	245.59986
593.172	170.40703
593.632	132.3105
594.092	194.45579
594.552	148.34093
595.011	322.75528
595.471	313.70873
595.931	317.72129
596.39	504.18954
596.849	439.01684
597.308	393.86411
597.768	757.79788
598.227	658.47698
598.685	623.34418
599.144	712.55903
599.603	843.83248
600.062	766.52696
600.52	894.81047
600.978	1050.14925
601.437	1069.09145
601.895	1008.87274
602.353	1186.19853
602.811	1340.4568
603.269	1616.9752
603.727	1742.12353
604.184	1732.92192
604.642	2013.4331
605.099	2046.20647
605.557	2306.60716
606.014	2260.13261
606.471	2610.91632
606.928	2602.26217
607.385	2980.95886
607.842	2981.42696
608.299	3172.63307
608.755	3421.78608
609.212	3457.25074
609.668	3551.31268
610.125	3937.63595
610.581	3986.44136
611.037	4206.12804
611.493	4377.2599
611.949	4660.51525
612.405	4364.32364
612.861	4891.95564
613.316	5075.02021
613.772	5141.74917
614.227	5259.88395
614.683	5269.15879
615.138	5505.62385
615.593	5578.54834
616.048	5682.30618
616.503	5898.69939
616.958	5918.94989
617.412	5941.45377
617.867	5880.08294
618.321	5850.72016
618.776	5864.10426
619.23	5979.3623
619.684	5830.20619
620.138	5900.30307
620.592	5941.66953
621.046	5792.41294
621.5	5993.7068
621.954	5702.24045
622.407	5585.22535
622.861	5626.78822
623.314	5584.33784
623.768	5542.56737
624.221	5166.8187
624.674	5191.65055
625.127	5237.70419
625.58	5223.52956
626.033	5101.33915
626.485	5299.88019
626.938	5165.87161
627.39	5028.85025
627.843	4935.82929
628.295	4891.77494
628.747	4946.99587
629.199	4896.72362
629.651	4826.79348
630.103	4875.8388
630.555	4660.37379
631.006	4807.95359
631.458	4890.99952
631.909	4883.67973
632.361	5068.78137
632.812	5069.76546
633.263	5038.24335
633.714	5017.18307
634.165	5298.00418
634.616	5339.80469
635.067	5255.23027
635.518	5580.60528
635.968	5476.56596
636.419	5826.89457
636.869	6000.34429
637.319	6135.14761
637.769	6316.94509
638.219	6670.06878
638.669	6857.17143
639.119	7119.33781
639.569	7370.22782
640.019	7576.05407
640.468	7805.05076
640.918	8241.63716
641.367	8471.68854
641.816	8785.13153
642.265	9110.70807
642.714	9609.74437
643.163	9990.71766
643.612	10321.62755
644.061	10503.46683
644.51	11120.62903
644.958	11316.75768
645.406	11920.23609
645.855	12324.26531
646.303	12511.80987
646.751	13008.06271
647.199	13420.18136
647.647	13734.40862
648.095	14022.56011
648.543	14289.5141
648.99	14649.72519
649.438	15106.03994
649.885	15363.61956
650.333	15435.26889
650.78	16023.49895
651.227	16142.55963
651.674	16118.00377
652.121	16455.41127
652.568	16459.23261
653.015	16763.18218
653.461	16562.95413
653.908	16624.01188
654.354	16558.04746
654.801	16490.35015
655.247	16295.45228
655.693	16583.14897
656.139	16325.07984
656.585	16153.4596
657.031	16121.27859
657.477	15933.70513
657.922	15996.24487
658.368	16005.21925
658.813	15660.9975
659.259	15760.04857
659.704	15545.60108
660.149	15446.27811
660.594	15161.32122
661.039	15147.93003
661.484	15074.65677
661.929	14901.22704
662.373	14993.55491
662.818	14662.95977
663.262	14617.12924
663.707	14757.64051
664.151	14500.92116
664.595	14492.15161
665.039	14649.93794
665.483	14613.24085
665.927	14556.04537
666.371	14648.90582
666.814	14686.96197
667.258	14787.59
667.701	14644.16004
668.145	14998.13457
668.588	14964.12021
669.031	14960.36866
669.474	15109.68917
669.917	15233.39661
670.36	15623.0317
670.803	15650.2182
671.245	15582.57083
671.688	15890.45317
672.13	15864.36916
672.573	16190.95473
673.015	16249.22079
673.457	16330.09408
673.899	16544.67974
674.341	16592.02797
674.783	16630.65481
675.225	16846.73298
675.666	16990.25401
676.108	16737.95896
676.549	16786.79837
676.991	17048.86062
677.432	16768.30674
677.873	16871.29575
678.314	16969.54029
678.755	16809.33137
679.196	16496.99357
679.637	16607.19833
680.078	16244.06448
680.518	16033.7944
680.959	16264.38528
681.399	15963.58679
681.839	15794.38637
682.28	15679.86476
682.72	15392.20439
683.16	15225.47835
683.6	14782.74403
684.039	14455.94742
684.479	14611.81987
684.919	14394.62689
685.358	14346.1816
685.798	14272.06475
686.237	13839.70419
686.676	13747.69678
687.115	13488.43907
687.554	13508.47384
687.993	13033.8135
688.432	12965.93328
688.871	12926.63721
689.309	12737.07047
689.748	12276.4679
690.186	12682.80746
690.625	12478.66981
691.063	12280.22425
691.501	12243.92938
691.939	12121.14739
692.377	12081.07264
692.815	11922.30555
693.253	11790.62843
693.69	11552.91433
694.128	11763.38749
694.565	11459.09959
695.003	11438.69551
695.44	11271.27903
695.877	11187.89601
696.314	10716.3783
696.751	10739.27558
697.188	10702.06229
697.625	10523.45328
698.061	10445.05665
698.498	10300.60955
698.934	10194.27641
699.371	10121.08035
699.807	9963.64288
700.243	9848.33225
700.679	9594.70611
701.115	9317.10343
701.551	9470.43384
701.987	9182.80871
702.422	9075.69943
702.858	8956.47199
703.294	8702.98371
703.729	8872.43323
704.164	8499.91458
704.599	8266.412
705.035	8213.43162
705.47	8294.82033
705.904	8034.41976
706.339	7820.07273
706.774	7810.21962
707.209	7756.14538
707.643	7609.26229
708.078	7653.42584
708.512	7518.50491
708.946	7260.04635
709.38	7106.02238
709.814	6968.80637
710.248	6984.15338
710.682	6852.10644
711.116	6849.20397
711.549	6761.56916
711.983	6348.00705
712.416	6366.11217
712.85	6320.53955
713.283	6205.23614
713.716	6127.56168
714.149	5855.28829
714.582	5737.11911
715.015	5801.62985
715.448	5651.8565
715.881	5240.0227
716.313	5411.50728
716.746	5322.63524
717.178	5258.74163
717.61	5170.08941
718.043	5177.00003
718.475	5032.86032
718.907	5023.21096
719.339	4743.71082
719.77	4680.02763
720.202	4793.35823
720.634	4545.35865
721.065	4520.08949
721.497	4417.34965
721.928	4371.44578
722.359	4261.47009
722.79	4269.41485
723.221	4191.58021
723.652	4146.71461
724.083	3837.15787
724.514	3802.1991
724.945	3808.36058
725.375	3749.42577
725.806	3777.63938
726.236	3760.86692
726.666	3511.45592
727.096	3546.7069
727.526	3491.94196
727.956	3398.23273
728.386	3404.6879
728.816	3433.89691
729.246	3339.74986
729.675	3334.79328
730.105	3183.6171
730.534	3052.43435
730.964	3167.81943
731.393	3132.67005
731.822	3187.96072
732.251	3077.87562
732.68	2985.38799
733.109	2987.69295
733.537	2959.62906
733.966	3024.86369
734.395	2769.3358
734.823	2778.13703
735.251	2846.64001
735.68	2872.79105
736.108	2832.81462
736.536	2678.39391
736.964	2660.3722
737.392	2721.75929
737.82	2694.52903
738.247	2692.47844
738.675	2630.44364
739.102	2680.78648
739.53	2774.9078
739.957	2699.94311
740.384	2624.56061
740.811	2672.76788
741.238	2566.5845
741.665	2470.26142
742.092	2479.42578
742.519	2510.6402
742.945	2460.46335
743.372	2568.68475
743.798	2573.86932
744.225	2408.3858
744.651	2509.69201
745.077	2503.66121
745.503	2409.48853
745.929	2419.42162
746.355	2458.59247
746.781	2385.57129
747.207	2396.42238
747.632	2434.61785
748.058	2425.63479
748.483	2325.21232
748.908	2468.60964
749.334	2484.60138
749.759	2336.25729
750.184	2431.44543
750.609	2439.57983
751.033	2380.31024
751.458	2323.0574
751.883	2403.56327
752.307	2456.39398
752.732	2437.73199
753.156	2544.69101
753.58	2431.40549
754.005	2455.67662
754.429	2329.32502
754.853	2432.5915
755.277	2378.28683
755.7	2503.64818
756.124	2484.64233
756.548	2407.41873
756.971	2427.43328
757.394	2555.8882
757.818	2614.85454
758.241	2551.77773
758.664	2571.79706
759.087	2405.14049
759.51	2485.60395
759.933	2527.52923
760.356	2606.81534
760.778	2540.67843
761.201	2586.55351
761.623	2462.43014
762.046	2410.35121
762.468	2390.30601
762.89	2518.55638
763.312	2501.60185
763.734	2529.47558
764.156	2587.63601
764.578	2395.25225
765	2478.55164
765.421	2525.79741
765.843	2603.94281
766.264	2405.43039
766.686	2561.64013
767.107	2362.41965
767.528	2486.75999
767.949	2538.77887
768.37	2356.42098
768.791	2361.43768
769.212	2356.66207
769.632	2199.21538
770.053	2409.91247
770.473	2319.43162
770.894	2283.49919
771.314	2120.15598
771.734	2203.20402
772.154	2267.61202
772.575	2120.06854
772.994	2081.00995
773.414	2163.2584
773.834	2216.52254
774.254	2175.44764
774.673	2120.2962
775.093	2080.37326
775.512	2023.2859
775.931	2038.4388
776.351	2067.36937
776.77	2012.27946
777.189	1858.01891
777.607	2021.46498
778.026	1968.34062
778.445	1984.38405
778.864	1933.39086
779.282	1771.00887
779.701	1831.20566
780.119	1895.41929
780.537	1784.17673
780.955	1699.0806
781.373	1739.05603
781.791	1529.53493
782.209	1513.5602
782.627	1749.39364
783.045	1526.63279
783.462	1656.12773
783.88	1617.11482
784.297	1552.9417
784.715	1552.02813
785.132	1377.61984
785.549	1455.81513
785.966	1405.7413
786.383	1351.60608
786.8	1278.34625
787.217	1210.31632
787.633	1281.5658
788.05	1126.15617
788.466	1036.9801
788.883	1238.54479
789.299	1135.23648
789.715	1070.18337
790.131	1178.41486
790.547	1067.19831
790.963	1114.30293
791.379	1106.32595
791.795	837.65671
792.21	875.75945
792.626	857.7564
793.041	965.05171
793.457	907.9508
793.872	764.58994
794.287	769.64394
794.702	815.75585
795.117	881.91996
795.532	812.81242
795.947	675.46397
796.362	710.52393
796.776	592.2491
797.191	694.54255
797.605	637.4014
798.02	629.39882
798.434	361.76639
798.848	559.29016
799.262	635.45994
799.676	492.11571
800.09	535.24938
800.504	423.97174
800.918	362.82083
801.331	545.30851
801.745	243.55338
802.158	430.02324
802.572	275.64695
802.985	271.63953
803.398	238.56133
803.811	373.90468
804.224	244.59086
804.637	223.53198
805.05	83.19467
805.462	183.44707
805.875	320.80934
806.288	145.35609
806.7	184.46194
807.112	-8.01903
807.525	105.26129
807.937	111.27702
808.349	125.3149
808.761	72.18038
809.173	-10.02502
809.584	11.02774
809.996	3.00762
810.408	95.2492
810.819	-75.18711
811.231	122.32419
811.642	-32.08184
812.053	-35.08931
812.464	-101.2568
812.875	4.01051
813.286	-10.02656
813.697	-242.6108
814.108	-156.40287
814.519	-392.97226
814.929	-117.31137
815.34	-152.39675
815.75	-100.26697
816.16	-190.5015
816.571	-142.38322
816.981	-297.76039
817.391	-254.66655
817.801	-181.48455
818.211	-370.95897
818.62	-281.7425
819.03	-283.74753
819.44	-168.45868
819.849	-286.77049
820.259	-277.7522
820.668	-303.81453
821.077	-274.74154
821.486	-378.99852
821.895	-348.92855
822.304	-171.47617
822.713	-447.18631
823.122	-362.98814
823.531	-426.13181
823.939	-373.00107
824.348	-410.10579
824.756	-341.93337
825.164	-379.03245
825.573	-322.89078
825.981	-425.15726
826.389	-393.08362
826.797	-423.15328
827.205	-555.46887
827.612	-429.17339
828.02	-549.47422
828.428	-371.03149
828.835	-304.8604
829.243	-523.41853
829.65	-459.26591
830.057	-478.30074
830.464	-508.38556
830.871	-564.52857
831.278	-555.50973
831.685	-661.73197
832.092	-508.40054
832.499	-713.84669
832.905	-451.25472
833.312	-658.75168
833.718	-471.30231
834.124	-675.79069
834.531	-472.31057
834.937	-500.40001
835.343	-559.53034
835.749	-672.79366
836.155	-427.21633
836.561	-517.4323
836.966	-552.52098
837.372	-470.32076
837.777	-510.42759
838.183	-779.04832
838.588	-566.56544
838.993	-579.59114
839.399	-567.56698
839.804	-583.61172
840.209	-472.34088
840.613	-761.01704
841.018	-541.52021
841.423	-496.40406
841.828	-492.38853
842.232	-566.56886
842.637	-636.73482
843.041	-464.3197
843.445	-534.49848
843.849	-582.62124
844.253	-645.76525
844.657	-515.45327
845.061	-727.9528
845.465	-619.71071
845.869	-698.8978
846.272	-609.69724
846.676	-652.79259
847.079	-482.36932
847.483	-581.6192
847.886	-659.80698
848.289	-440.28139
848.692	-532.5015
849.095	-637.76265
849.498	-581.63215
849.901	-755.02889
850.304	-648.78776
850.707	-556.57306
851.109	-583.63877
851.512	-580.62363
851.914	-499.42041
852.316	-585.64489
852.718	-479.37073
853.121	-621.73441
853.523	-687.88847
853.925	-461.3289
854.326	-595.67098
854.728	-493.40875
855.13	-484.38976
855.531	-629.74377
855.933	-711.95194
856.334	-575.61972
856.736	-783.10141
857.137	-734.99624
857.538	-545.54634
857.939	-590.66525
858.34	-656.82678
858.741	-497.42859
859.142	-652.80217
859.542	-448.29684
859.943	-618.73794
860.343	-596.67251
860.744	-637.76704
861.144	-680.8848
861.544	-638.77722
861.945	-521.49014
862.345	-642.7856
862.745	-585.65786
863.145	-710.95564
863.544	-555.56621
863.944	-733.00034
864.344	-630.77168
864.743	-627.75063
865.143	-538.53856
865.542	-736.0063
865.941	-593.67093
866.34	-689.89993
866.74	-454.32107
867.139	-654.8184
867.537	-574.6323
867.936	-676.88128
868.335	-558.58916
868.734	-508.45658
869.132	-732.00426
869.531	-722.99677
869.929	-752.04537
870.327	-660.83053
870.726	-635.77677
871.124	-719.97077
871.522	-565.61221
871.92	-609.70925
872.318	-648.80785
872.715	-671.87458
873.113	-638.78707
873.511	-553.56292
873.908	-523.49099
874.306	-593.68104
874.703	-625.76323
875.1	-571.6274
875.497	-636.76344
875.894	-613.72624
876.291	-656.83354
876.688	-481.38296
877.085	-710.95871
877.482	-604.70219
877.878	-666.85061
878.275	-535.5225
878.671	-833.22539
879.068	-676.87489
879.464	-668.85214
879.86	-738.0309
880.256	-656.84252
880.652	-582.66245
881.048	-642.79828
881.444	-735.01089
881.84	-578.64367
882.236	-609.72173
882.631	-603.69396
883.027	-682.88329
883.422	-559.59177
883.817	-549.57072
884.213	-541.55194
884.608	-629.76967
885.003	-672.87881
885.398	-570.62189
885.793	-616.74335
886.188	-588.66962
886.582	-594.68564
886.977	-723.99797
887.371	-630.77867
887.766	-611.73102
888.16	-618.74164
888.554	-675.8898
888.949	-632.78647
889.343	-668.85616
889.737	-440.29238
890.131	-608.70826
890.525	-585.67325
890.918	-622.75503
891.312	-738.02261
891.706	-566.62583
892.099	-625.77387
892.492	-890.35536
892.886	-676.88709
893.279	-565.61699
893.672	-624.76599
894.065	-628.77356
894.458	-580.65182
894.851	-642.78781
895.244	-581.65738
895.637	-675.87821
896.029	-675.88748
896.422	-679.89575
896.814	-635.78709
897.206	-727.01157
897.599	-657.83436
897.991	-709.97031
898.383	-687.90094
898.775	-815.19084
899.167	-729.00266
899.559	-592.67644
899.951	-753.06861
900.342	-603.70785
900.734	-599.70365
901.125	-497.43235
901.517	-637.79054
901.908	-716.97648
902.299	-623.75918
902.69	-731.01761
903.082	-682.89563
903.473	-667.85539
903.863	-564.60721
904.254	-720.97133
904.645	-619.74155
905.036	-650.81287
905.426	-805.16888
905.817	-653.83717
906.207	-694.92955
906.597	-773.10752
906.987	-537.54363
907.378	-612.73099
907.768	-494.43551
908.158	-653.81927
908.547	-540.55613
908.937	-588.67311
909.327	-657.83661
909.717	-605.713
910.106	-717.99067
910.495	-612.7263
910.885	-581.65738
911.274	-624.76386
911.663	-625.77121
912.052	-661.84439
912.441	-601.70627
912.83	-766.08412
913.219	-534.53838
913.608	-641.78199
913.997	-589.67221
914.385	-720.98254
914.774	-678.89092
915.162	-697.93639
915.55	-710.97705
915.939	-596.69334
916.327	-667.87312
916.715	-592.69151
917.103	-660.84018
917.491	-670.87437
917.878	-708.97453
918.266	-576.6458
918.654	-557.59785
919.041	-516.49473
919.429	-722.99054
919.816	-601.70167
920.203	-673.87958
920.591	-659.85235
920.978	-704.9537
921.365	-499.44064
921.752	-690.90953
922.139	-858.27675
922.525	-670.87092
922.912	-667.8531
923.299	-623.76024
923.685	-520.50284
924.072	-812.1888
924.458	-637.79218
924.844	-632.7827
925.231	-745.03439
925.617	-564.6115
926.003	-566.61002
926.389	-597.69644
926.774	-589.67471
927.16	-631.77746
927.546	-538.54174
927.931	-623.75918
928.317	-797.15357
928.702	-756.06934
929.088	-703.94214
929.473	-587.66952
929.858	-674.88729
930.243	-676.8743
930.628	-653.83773
931.013	-629.77397
931.398	-827.24324
931.783	-530.52819
932.167	-640.80089
932.552	-654.84305
932.937	-642.80267
933.321	-599.69958
933.705	-581.64949
934.09	-638.80234
934.474	-740.03576
934.858	-535.53653
935.242	-773.11755
935.626	-561.61264
936.009	-524.51572
936.393	-595.69379
936.777	-576.65067
937.16	-555.59399
937.544	-772.11448
937.927	-568.6239
938.311	-688.91643
938.694	-521.50682
939.077	-698.93165
939.46	-744.05894
939.843	-897.33162
940.226	-574.64493
940.609	-726.98711
940.991	-598.71119
941.374	-642.79387
941.757	-686.92321
942.139	-794.15409
942.522	-751.05013
942.904	-702.94936
943.286	-607.71969
943.668	-546.5725
944.05	-634.77859
944.432	-621.75512
944.814	-697.94895
945.196	-642.80706
945.578	-659.83768
945.959	-706.92751
946.341	-724.00296
946.722	-774.1233
947.104	-697.92919
947.485	-747.03533
947.866	-551.57412
948.247	-623.76024
948.628	-694.92597
949.009	-561.61122
949.39	-643.8096
949.771	-765.091
950.152	-632.77568
950.532	-607.71142
950.913	-722.01106
951.293	-436.28134
951.674	-621.74239
952.054	-602.70527
952.434	-652.83519
952.814	-729.01397
953.194	-543.56089
953.574	-678.88801
953.954	-730.01579
954.334	-609.71861
954.714	-651.8232
955.093	-677.89017
955.473	-630.77706
955.853	-555.5893
956.232	-459.35034
956.611	-713.97221
956.99	-585.66383
957.37	-588.68307
957.749	-701.94327
958.128	-566.61002
958.506	-507.46801
958.885	-576.63701
959.264	-619.75052
959.643	-828.23479
960.021	-613.72886
960.4	-791.13874
960.778	-642.79497
961.156	-593.68356
961.535	-756.0569
961.913	-740.02298
962.291	-523.51041
962.669	-612.73568
963.047	-597.69948
963.424	-575.63587
963.802	-632.77568
964.18	-601.70218
964.557	-785.13343
964.935	-734.02115
965.312	-537.54227
965.69	-633.77822
966.067	-659.84164
966.444	-647.80089
966.821	-568.62342
967.198	-689.9124
967.575	-677.87737
967.952	-759.08248
968.329	-664.85304
968.705	-942.47215
969.082	-560.61
969.458	-666.86204
969.835	-667.8531
970.211	-528.51441
970.587	-633.78093
970.963	-570.62382
971.339	-524.51308
971.715	-631.78015
972.091	-656.84196
972.467	-614.72984
972.843	-639.80271
973.219	-744.04485
973.594	-494.43593
973.97	-736.02285
974.345	-722.00858
974.721	-738.0398
975.096	-682.89445
975.471	-738.03599
975.846	-707.95562
976.221	-543.55217
976.596	-669.85519
976.971	-651.82543
977.346	-792.15554
977.72	-580.65821
978.095	-543.56134
978.469	-716.9703
978.844	-635.78709
979.218	-725.00853
979.593	-705.94401
979.967	-671.86939
980.341	-815.21706
980.715	-592.68148
981.089	-653.83661
981.463	-751.05663
981.837	-649.81982
982.21	-786.13921
982.584	-682.89797
982.957	-611.73362
983.331	-725.99598
983.704	-730.0346
984.078	-624.75268
984.451	-680.90757
984.824	-664.8593
985.197	-691.92211
985.57	-612.72891
985.943	-680.89941
986.316	-652.81845
986.688	-705.9507
987.061	-730.00761
987.434	-531.52996
987.806	-681.89899
988.179	-728.0109
988.551	-575.63587
988.923	-657.8428
989.295	-681.90483
989.667	-683.90105
990.039	-627.77154
990.411	-785.13138
990.783	-790.1405
991.155	-665.86751
991.527	-671.86651
991.898	-623.76501
992.27	-659.85179
992.641	-633.78579
993.012	-746.0439
993.384	-726.99654
993.755	-553.58077
994.126	-719.99374
994.497	-649.8226
994.868	-784.13581
995.239	-692.91923
995.61	-594.68968
995.98	-648.81452
996.351	-640.80143
996.722	-736.02349
997.092	-705.94523
997.462	-740.03704
997.833	-731.00247
998.203	-702.94634
998.573	-650.83345
998.943	-724.99104
999.313	-706.96774
999.683	-663.84769
1000.053	-780.12559
1000.423	-726.01909
1000.792	-525.51399
1001.162	-667.8657
1001.531	-653.83606
1001.901	-586.66194
1002.27	-822.1971
1002.639	-571.63706
1003.009	-728.99951
1003.378	-602.71295
1003.747	-715.97897
1004.116	-711.97647
1004.485	-732.01375
1004.853	-596.69284
1005.222	-639.80815
1005.591	-739.03269
1005.959	-790.14187
1006.328	-833.24864
1006.696	-654.82402
1007.064	-631.7866
1007.433	-628.7682
1007.801	-705.96768
1008.169	-637.79978
1008.537	-837.23095
1008.905	-755.07411
1009.273	-683.90925
1009.64	-692.92935
1010.008	-695.92246
1010.375	-747.04244
1010.743	-781.1083
1011.11	-702.93605
1011.478	-649.81815
1011.845	-747.0418
1012.212	-793.14484
1012.579	-707.98173
1012.946	-705.93426
1013.313	-739.02567
1013.68	-862.3175
1014.047	-715.99065
1014.414	-736.03427
1014.78	-643.80355
1015.147	-727.00532
1015.513	-702.95479
1015.88	-604.71197
1016.246	-707.96962
1016.612	-821.20697
1016.978	-653.82432
1017.344	-628.76981
1017.71	-710.963
1018.076	-748.04421
1018.442	-604.72375
1018.808	-615.73817
1019.174	-618.75741
1019.539	-838.24863
1019.905	-753.07251
1020.27	-630.77491
1020.636	-714.97589
1021.001	-731.01761
1021.366	-705.96102
1021.731	-600.70675
1022.096	-603.71758
1022.461	-734.01672
1022.826	-736.02603
1023.191	-527.51976
1023.556	-748.05713
1023.92	-693.93659
1024.285	-664.85076
1024.649	-660.84811
1025.014	-640.80034
1025.378	-615.74654
1025.742	-635.79413
1026.107	-847.27757
1026.471	-799.16453
1026.835	-609.71654
1027.199	-628.75853
1027.562	-769.09595
1027.926	-675.88111
1028.29	-594.69974
1028.654	-775.10087
1029.017	-673.87207
1029.381	-704.94824
1029.744	-601.70729
1030.107	-755.07215
1030.471	-744.04677
1030.834	-811.17939
1031.197	-721.98249
1031.56	-746.04003
1031.923	-551.57831
1032.286	-743.02378
1032.648	-681.88611
1033.011	-798.15384
1033.374	-770.09433
1033.736	-516.49862
1034.099	-658.84364
1034.461	-624.76917
1034.823	-630.77006
1035.185	-621.76146
1035.548	-649.81148
1035.91	-701.93844
1036.272	-827.21732
1036.634	-698.93886
1036.995	-728.00337
1037.357	-669.86612
1037.719	-707.95623
1038.08	-750.0594
1038.442	-736.02158
1038.803	-711.963
1039.165	-571.62643
1039.526	-697.93519
1039.887	-698.93225
1040.248	-664.86385
1040.609	-686.91322
1040.97	-659.84728
1041.331	-597.6939
1041.692	-709.95932
1042.053	-804.17493
1042.413	-785.14906
1042.774	-690.91785
1043.134	-704.94035
1043.495	-630.77598
1043.855	-680.8889
1044.215	-622.75397
1044.576	-682.90266
1044.936	-802.16952
1045.296	-609.70977
1045.656	-684.90588
1046.016	-704.94217
1046.375	-719.99807
1046.735	-798.15662
1047.095	-761.07941
1047.454	-953.48965
1047.814	-705.95374
1048.173	-783.13207
1048.533	-809.19021
1048.892	-678.89092
1049.251	-624.76705
1049.61	-661.85232
1049.969	-699.93171
1050.328	-900.37628
1050.687	-695.93681
1051.046	-722.00363
1051.405	-610.72534
1051.763	-769.08861
1052.122	-623.75705
1052.48	-723.01353
1052.839	-740.02682
1053.197	-715.96291
1053.555	-877.32983
1053.914	-705.95738
1054.272	-739.03715
1054.63	-637.78618
1054.988	-708.95503
1055.345	-905.3843
1055.703	-716.98142
1056.061	-559.59414
1056.419	-553.58684
1056.776	-715.97342
1057.134	-761.06952
1057.491	-648.82892
1057.848	-658.84138
1058.206	-749.05633
1058.563	-890.37251
1058.92	-805.16397
1059.277	-663.85338
1059.634	-760.07701
1059.991	-699.9299
1060.348	-813.19963
1060.704	-706.95499
1061.061	-805.18708
1061.418	-699.94134
1061.774	-643.80465
1062.131	-508.48301
1062.487	-775.12705
1062.843	-658.84926
1063.199	-624.76493
1063.555	-755.06628
1063.911	-638.8007
1064.267	-975.51519
1064.623	-696.94705
1064.979	-726.98459
1065.335	-754.07429
1065.691	-739.0397
1066.046	-931.44127
1066.402	-791.15042
1066.757	-621.75406
1067.112	-700.95283
1067.468	-656.82509
1067.823	-705.96223
1068.178	-724.00296
1068.533	-684.90353
1068.888	-730.00635
1069.243	-659.84728
1069.598	-667.85596
1069.952	-795.14471
1070.307	-605.71145
1070.662	-737.0221
1071.016	-838.25155
1071.371	-833.24719
1071.725	-729.00769
1072.079	-736.03173
1072.434	-684.91527
1072.788	-699.92869
1073.142	-646.81113
1073.496	-721.97937
1073.85	-795.14886
1074.203	-644.80498
1074.557	-495.44235
1074.911	-749.04921
1075.265	-779.12118
1075.618	-698.93586
1075.971	-747.05986
1076.325	-569.61784
1076.678	-772.10312
1077.031	-816.2088
1077.385	-846.259
1077.738	-818.2071
1078.091	-793.14966
1078.444	-766.08146
1078.796	-701.96013
1079.149	-660.85432
1079.502	-680.88246
1079.855	-756.07392
1080.207	-657.8383
1080.56	-562.61102
1080.912	-709.97153
1081.264	-708.9654
1081.617	-661.85967
1081.969	-573.63164
1082.321	-700.95043
1082.673	-781.12662
1083.025	-718.98138
1083.377	-891.34275
1083.728	-784.12833
1084.08	-640.80253
1084.432	-695.93442
1084.783	-775.11566
1085.135	-624.76705
1085.486	-767.09448
1085.838	-659.85292
1086.189	-698.93526
1086.54	-734.01925
1086.891	-586.66991
1087.242	-723.00795
1087.593	-692.924
1087.944	-844.26104
1088.295	-818.20425
1088.646	-691.93515
1088.996	-710.96911
1089.347	-650.81454
1089.698	-741.04522
1090.048	-601.71799
1090.398	-809.19513
1090.749	-708.95808
1091.099	-556.59099
1091.449	-648.82726
1091.799	-606.71092
1092.149	-616.73705
1092.499	-671.86536
1092.849	-575.64172
1093.199	-668.88135
1093.548	-685.90307
1093.898	-620.75203
1094.248	-590.6838
1094.597	-535.53923
1094.947	-506.47252
1095.296	-677.89829
1095.645	-565.62652
1095.994	-718.9789
1096.343	-632.79077
1096.692	-435.27315
1097.041	-487.42673
1097.39	-598.70156
1097.739	-538.54356
1098.088	-481.40473
1098.437	-527.53257
1098.785	-517.50995
1099.134	-514.48894
1099.482	-411.21541
1099.83	-555.59866
1100.179	-518.50443
1100.527	-505.46264
1100.875	-506.46744
1101.223	-523.52093
1101.571	-414.22958
1101.919	-494.43551
1102.267	-368.09998
1102.615	-1.00323
1102.962	-1.00322
1103.31	4.01289
1103.658	8.02582
