Data from N2 R0 105C sample2_Subt2__1__11-49-12-668.txt Node

Date: Tue Aug 19 11:49:12 PDT 2025
User: uwsun
Spectrometer: HDX01956
Trigger mode: 0
Integration Time (sec): 5.000000E-1
Scans to average: 1
Nonlinearity correction enabled: true
Boxcar width: 0
Storing dark spectrum: false
XAxis mode: Wavelengths
Number of Pixels in Spectrum: 2068
>>>>>Begin Spectral Data<<<<<
194.03	609.62578
194.578	594.79747
195.127	597.77913
195.676	598.78919
196.225	619.55067
196.773	700.80276
197.321	978.4135
197.87	1287.78856
198.418	1321.8019
198.966	1380.97547
199.513	1278.65165
200.061	1285.73728
200.609	1355.94569
201.156	1265.27201
201.704	1314.76724
202.251	1327.94892
202.798	1288.80542
203.345	1307.6706
203.892	1346.78543
204.438	1382.67423
204.985	1394.71279
205.532	1422.04892
206.078	1415.8074
206.624	1360.74727
207.17	1364.56824
207.716	1364.70919
208.262	1360.10629
208.808	1417.86964
209.354	1420.79852
209.899	1415.85783
210.445	1496.98404
210.99	1430.79736
211.535	1434.71352
212.08	1424.68545
212.625	1419.88407
213.17	1455.9533
213.715	1429.6056
214.259	1389.60847
214.804	1385.75033
215.348	1368.50707
215.892	1351.6308
216.436	1415.6174
216.98	1395.48869
217.524	1327.56576
218.068	1416.92129
218.612	1375.82097
219.155	1323.54348
219.698	1339.60494
220.242	1317.69828
220.785	1245.40345
221.328	1235.55842
221.871	1190.52236
222.414	1238.57314
222.956	1264.56818
223.499	1211.27219
224.041	1227.37762
224.583	1206.11663
225.126	1243.25279
225.668	1191.42679
226.21	1211.55968
226.751	1232.25025
227.293	1246.38198
227.835	1170.43921
228.376	1246.36486
228.918	1234.61001
229.459	1259.61739
230	1188.36673
230.541	1284.4748
231.082	1186.38015
231.622	1260.3765
232.163	1190.43294
232.704	1223.52233
233.244	1221.53275
233.784	1191.44645
234.324	1225.27834
234.864	1216.29441
235.404	1231.42602
235.944	1257.4497
236.484	1240.54323
237.023	1230.43926
237.563	1235.36373
238.102	1235.3875
238.641	1303.71845
239.18	1296.5051
239.719	1259.622
240.258	1292.37204
240.797	1263.51813
241.335	1260.55774
241.874	1330.06902
242.412	1273.55559
242.95	1235.46788
243.488	1288.42357
244.026	1283.41355
244.564	1357.21724
245.102	1343.4286
245.64	1250.47097
246.177	1306.39544
246.715	1304.56955
247.252	1284.4172
247.789	1274.92725
248.326	1359.67625
248.863	1346.40274
249.4	1303.41672
249.936	1317.1598
250.473	1377.59971
251.009	1398.59159
251.546	1354.39611
252.082	1303.31913
252.618	1343.39798
253.154	1340.64797
253.69	1279.33932
254.226	1300.53784
254.761	1393.54098
255.297	1267.25364
255.832	1273.46229
256.367	1368.61581
256.903	1327.31729
257.438	1339.54001
257.972	1380.47754
258.507	1354.53574
259.042	1366.40003
259.576	1357.38105
260.111	1381.55304
260.645	1345.29994
261.179	1306.48382
261.713	1355.45286
262.247	1427.62926
262.781	1392.32205
263.315	1442.83537
263.849	1396.83792
264.382	1433.5868
264.915	1442.71949
265.449	1481.92637
265.982	1426.59166
266.515	1364.67051
267.048	1351.33359
267.58	1410.4431
268.113	1395.40366
268.646	1454.86962
269.178	1412.51465
269.71	1472.51773
270.243	1444.58636
270.775	1389.84082
271.307	1404.69508
271.838	1413.62788
272.37	1472.85951
272.902	1494.63965
273.433	1395.38339
273.965	1504.86967
274.496	1416.78157
275.027	1436.8406
275.558	1430.76731
276.089	1527.97005
276.62	1444.9303
277.15	1457.80172
277.681	1529.56256
278.211	1423.6998
278.741	1462.53634
279.272	1445.5954
279.802	1501.92486
280.332	1495.75774
280.861	1466.78762
281.391	1478.61528
281.921	1470.79257
282.45	1557.02444
282.98	1516.11522
283.509	1465.55688
284.038	1464.61968
284.567	1540.72834
285.096	1578.94373
285.625	1555.73177
286.153	1522.74194
286.682	1579.75699
287.21	1524.86626
287.739	1566.86997
288.267	1516.86637
288.795	1564.14275
289.323	1612.9107
289.851	1586.86498
290.378	1615.74131
290.906	1632.01849
291.433	1643.08144
291.961	1583.72386
292.488	1619.05539
293.015	1626.92872
293.542	1603.14612
294.069	1605.99062
294.596	1700.11554
295.122	1689.00425
295.649	1590.62752
296.175	1668.08234
296.702	1700.0524
297.228	1744.10033
297.754	1785.9535
298.28	1734.89253
298.806	1740.07745
299.332	1750.83614
299.857	1734.85355
300.383	1737.25373
300.908	1714.10562
301.433	1699.04675
301.958	1773.93028
302.483	1765.25364
303.008	1799.23693
303.533	1786.39199
304.058	1826.09411
304.582	1782.07667
305.107	1830.52553
305.631	1875.96976
306.155	1948.16343
306.679	1796.99688
307.203	1923.12664
307.727	1856.12874
308.251	1831.26511
308.775	1903.21301
309.298	1922.29973
309.822	1938.46683
310.345	2029.32109
310.868	2006.28387
311.391	1985.37599
311.914	2007.50372
312.437	1981.08988
312.96	2055.26
313.482	1981.22211
314.005	2082.56968
314.527	2110.80895
315.049	2082.5306
315.571	2131.15865
316.093	2209.60809
316.615	2213.50106
317.137	2204.03563
317.659	2294.59207
318.18	2254.437
318.702	2238.28451
319.223	2261.92103
319.744	2275.21224
320.265	2269.54519
320.786	2368.71856
321.307	2393.72603
321.828	2403.3256
322.348	2486.5398
322.869	2513.60661
323.389	2120.7649
323.909	2517.37004
324.43	2551.5705
324.95	2529.39322
325.47	2629.72654
325.989	2662.5621
326.509	2661.27169
327.029	2681.31786
327.548	2696.33856
328.067	2762.76064
328.587	2815.85876
329.106	2724.2954
329.625	2721.09571
330.144	2806.52251
330.662	2839.4231
331.181	2957.5481
331.7	2926.59202
332.218	3085.20505
332.736	3083.57398
333.255	3092.51848
333.773	3112.5812
334.291	3125.85235
334.808	3200.35922
335.326	3222.37716
335.844	3331.543
336.361	3398.01883
336.879	3420.59617
337.396	3430.67037
337.913	3488.37727
338.43	3493.27922
338.947	3641.49183
339.464	3635.98101
339.981	3528.56147
340.497	3662.68582
341.014	3692.7036
341.53	3644.13801
342.046	3745.64604
342.562	3872.77272
343.078	3872.40051
343.594	3866.45446
344.11	3934.35697
344.626	4012.76943
345.141	4049.0495
345.657	4076.97372
346.172	4098.41314
346.687	4208.11239
347.202	4213.93141
347.717	4272.28685
348.232	4297.55121
348.747	4257.06517
349.261	4336.75889
349.776	4426.08726
350.29	4583.39497
350.805	4621.41266
351.319	4636.95984
351.833	4497.75783
352.347	4577.95567
352.861	4693.82272
353.374	4553.77754
353.888	4708.07979
354.401	4728.75215
354.915	4896.53195
355.428	4960.09792
355.941	4972.72291
356.454	5016.38707
356.967	4845.77367
357.48	4990.52018
357.993	5055.96524
358.505	5076.87245
359.018	5205.821
359.53	5300.73968
360.042	5258.17055
360.554	5292.66112
361.066	5313.76643
361.578	5195.06421
362.09	5251.55013
362.602	5380.05919
363.113	5552.33653
363.625	5528.11481
364.136	5682.88357
364.647	5674.34571
365.158	5793.11038
365.669	5880.25343
366.18	5783.19014
366.691	5748.85925
367.201	5855.29418
367.712	6045.93945
368.222	6023.94225
368.733	6143.73445
369.243	6330.69233
369.753	6425.94825
370.263	6512.06532
370.773	6393.14047
371.282	6593.94173
371.792	6743.90047
372.301	7004.02248
372.811	7073.36937
373.32	7030.4216
373.829	7327.92841
374.338	7729.82436
374.847	7845.05515
375.356	7957.21128
375.865	8219.1369
376.373	8671.87138
376.882	9058.65991
377.39	9149.75442
377.898	9325.12228
378.407	9790.25992
378.915	10110.32499
379.423	10510.49214
379.93	10789.75007
380.438	11374.9669
380.946	12026.55943
381.453	12351.41292
381.96	12861.88477
382.468	14042.97151
382.975	14917.87161
383.482	15097.09963
383.989	15233.24447
384.495	16028.53456
385.002	16805.22302
385.509	17828.63037
386.015	18682.27014
386.521	19627.45518
387.028	20489.43144
387.534	21255.54407
388.04	22014.8855
388.546	22418.23119
389.051	23746.41996
389.557	25420.96954
390.063	27249.94342
390.568	28068.3932
391.073	28976.14094
391.578	30368.84496
392.084	30896.03982
392.589	32130.64574
393.093	34585.30734
393.598	38198.3238
394.103	41084.02064
394.607	45135.04863
395.112	47908.11557
395.616	51141.6584
396.12	54967.23871
396.624	60194.00533
397.128	61565.6372
397.632	61963.32687
398.136	61948.4768
398.639	61850.40973
399.143	61679.31033
399.646	61269.15804
400.15	60904.11498
400.653	60560.14334
401.156	60136.25446
401.659	59550.50961
402.162	58431.12733
402.664	54480.21957
403.167	49329.08451
403.67	22278.45323
404.172	2696.20453
404.674	0
405.176	0
405.678	0
406.18	0
406.682	0
407.184	0
407.686	25783.58453
408.187	43316.52985
408.688	51225.60928
409.19	54389.01922
409.691	56215.4214
410.192	57270.57019
410.693	57845.40442
411.194	58219.2365
411.694	58633.01717
412.195	59215.68848
412.696	59364.60701
413.196	59341.61941
413.696	59632.46864
414.196	59367.6054
414.696	59763.40624
415.196	59913.34014
415.696	60584.13941
416.196	61381.18813
416.695	61808.38326
417.195	62018.52935
417.694	61837.40139
418.194	62001.51623
418.693	62262.74355
419.192	62388.8736
419.691	62414.90212
420.19	62457.95056
420.688	62499.99943
421.187	62046.05758
421.685	58852.81414
422.184	53494.36027
422.682	45606.56484
423.18	38972.79629
423.678	34793.99458
424.176	32360.17258
424.674	30405.10674
425.172	29282.67962
425.669	26999.36599
426.167	25261.28793
426.664	23027.63209
427.161	21191.90469
427.659	19944.64579
428.156	18656.05492
428.652	17494.17261
429.149	16894.79459
429.646	16270.23908
430.143	15203.2108
430.639	14232.05907
431.135	13541.4326
431.632	12744.55598
432.128	11981.3176
432.624	11438.08649
433.12	11045.90927
433.616	10699.55996
434.111	10425.2287
434.607	10083.05873
435.103	9885.69294
435.598	9547.69324
436.093	9009.44429
436.588	8659.76992
437.083	8174.15098
437.578	7798.9237
438.073	7485.15451
438.568	7290.93924
439.062	7081.35333
439.557	6876.73983
440.051	6603.53663
440.546	6294.65737
441.04	6372.99729
441.534	6310.38681
442.028	6127.99816
442.522	5808.17854
443.015	5925.59787
443.509	5843.31447
444.002	5656.42042
444.496	5586.81749
444.989	5449.4506
445.482	5319.7044
445.975	5481.14466
446.468	5526.71167
446.961	5323.87956
447.454	5116.1737
447.947	5117.58917
448.439	4991.60938
448.931	4990.36364
449.424	4884.9967
449.916	4853.8726
450.408	4850.39925
450.9	4740.96644
451.392	4555.25756
451.884	4466.68681
452.375	4538.29728
452.867	4386.6286
453.358	4348.76131
453.849	4231.41183
454.341	4322.71137
454.832	4202.52154
455.323	4229.25633
455.814	4236.89394
456.304	4068.94884
456.795	3982.99046
457.285	4005.71094
457.776	3952.89112
458.266	3897.23365
458.756	3879.23212
459.247	3792.32937
459.737	3687.40868
460.226	3674.0435
460.716	3587.45364
461.206	3496.46476
461.695	3371.64675
462.185	3446.27464
462.674	3424.29295
463.163	3359.96668
463.653	3356.84007
464.142	3259.54119
464.63	3271.63957
465.119	3166.28186
465.608	3184.34569
466.096	3185.99142
466.585	3090.29369
467.073	2986.4515
467.561	2970.49012
468.05	2904.33772
468.538	2923.62091
469.026	2876.49568
469.513	2893.28261
470.001	2814.19913
470.489	2842.4896
470.976	2744.3256
471.463	2611.63282
471.951	2527.60332
472.438	2458.31232
472.925	2518.30585
473.412	2317.4124
473.899	2422.16044
474.385	2368.45949
474.872	2389.35103
475.359	2324.48492
475.845	2235.76981
476.331	2181.78434
476.817	2088.27335
477.303	2096.11032
477.789	2103.26467
478.275	2085.36757
478.761	2012.23285
479.247	2014.97985
479.732	1982.3522
480.218	1912.45101
480.703	1939.29352
481.188	1884.6962
481.673	1879.93431
482.158	1801.68762
482.643	1768.16564
483.128	1758.83505
483.612	1733.87292
484.097	1644.90019
484.581	1657.7608
485.066	1666.97696
485.55	1652.63726
486.034	1537.42647
486.518	1578.79172
487.002	1573.94654
487.486	1571.87417
487.969	1529.86386
488.453	1457.80438
488.936	1483.57096
489.42	1411.3776
489.903	1442.7919
490.386	1382.68488
490.869	1342.27345
491.352	1331.56864
491.835	1333.15245
492.318	1351.47272
492.8	1351.20126
493.283	1336.74762
493.765	1306.59263
494.247	1212.29794
494.73	1286.27291
495.212	1218.39421
495.694	1244.35992
496.175	1240.43185
496.657	1173.2889
497.139	1172.66076
497.62	1112.22835
498.102	1139.3646
498.583	1116.33472
499.064	1088.08823
499.545	1116.1421
500.026	1065.03566
500.507	1056.09168
500.988	1088.30403
501.469	1111.36754
501.949	1073.26092
502.43	1025.11166
502.91	1031.84979
503.39	984.10887
503.87	1079.18243
504.35	1007.0273
504.83	1061.99432
505.31	1045.15292
505.79	1021.12686
506.269	1053.11718
506.749	1014.99771
507.228	1003.0552
507.707	1047.98528
508.187	1048.10566
508.666	1061.24534
509.145	1003.05428
509.623	989.99893
510.102	1083.23529
510.581	994.04815
511.059	1003.18687
511.538	1075.35674
512.016	1103.26346
512.494	1087.24855
512.972	1086.19112
513.45	1123.22413
513.928	1173.41589
514.406	1187.42952
514.884	1218.6107
515.361	1175.36828
515.839	1246.34318
516.316	1212.43018
516.793	1185.50036
517.27	1199.37493
517.747	1256.66345
518.224	1232.36757
518.701	1238.30656
519.178	1197.4522
519.654	1215.37549
520.131	1133.35213
520.607	1239.51676
521.083	1138.19279
521.56	1246.45278
522.036	1147.12023
522.512	1158.35044
522.987	1187.36746
523.463	1145.31613
523.939	1114.31213
524.414	1077.11406
524.89	1029.10667
525.365	1087.11675
525.84	1051.19232
526.315	1020.14585
526.79	1025.00424
527.265	1056.10526
527.74	958.04517
528.215	1017.09796
528.689	971.89635
529.164	915.75313
529.638	935.13257
530.112	929.95969
530.587	918.75508
531.061	897.93753
531.534	845.82051
532.008	876.8982
532.482	839.70555
532.956	807.8622
533.429	860.86747
533.903	843.66782
534.376	828.65071
534.849	888.84495
535.322	869.84106
535.795	835.83733
536.268	835.79589
536.741	822.77812
537.213	879.81449
537.686	814.81166
538.158	733.51488
538.631	794.73724
539.103	802.658
539.575	817.52592
540.047	821.63182
540.519	787.72155
540.991	787.74541
541.463	826.81032
541.934	822.71075
542.406	852.83913
542.877	894.82695
543.348	896.93084
543.82	858.86786
544.291	915.88212
544.762	873.84793
545.233	964.12606
545.703	907.79377
546.174	1005.03713
546.645	995.09639
547.115	1035.18077
547.585	1021.02925
548.056	1133.36044
548.526	1098.24058
548.996	1173.34918
549.466	1246.48704
549.935	1265.47344
550.405	1231.22647
550.875	1280.47527
551.344	1296.55494
551.814	1305.45625
552.283	1318.26252
552.752	1453.67734
553.221	1474.56263
553.69	1496.54005
554.159	1545.97134
554.628	1526.64248
555.096	1616.17242
555.565	1585.70294
556.033	1541.77843
556.502	1532.87159
556.97	1479.54252
557.438	1478.72829
557.906	1510.76832
558.374	1499.66965
558.842	1547.82728
559.31	1565.66861
559.777	1626.96267
560.245	1667.93421
560.712	1716.95043
561.18	1801.91562
561.647	1764.85431
562.114	1823.97774
562.581	1949.34739
563.048	1949.10859
563.514	2019.41272
563.981	2017.10579
564.448	2115.12701
564.914	2192.31937
565.381	2264.2406
565.847	2363.44479
566.313	2500.47625
566.779	2498.2317
567.245	2541.51668
567.711	2558.65448
568.176	2722.3748
568.642	2791.96492
569.108	2848.8734
569.573	2976.70442
570.038	3084.12649
570.504	3141.31959
570.969	3262.08381
571.434	3334.36085
571.899	3384.73661
572.363	3414.4281
572.828	3562.38331
573.293	3567.44504
573.757	3602.37798
574.222	3647.36229
574.686	3688.40838
575.15	3759.62185
575.614	3761.38512
576.078	3758.59352
576.542	3798.32726
577.006	3770.28072
577.469	3850.809
577.933	3807.3581
578.396	3714.54974
578.86	3765.55422
579.323	3671.74601
579.786	3655.07721
580.249	3683.48831
580.712	3526.82209
581.175	3454.90532
581.637	3413.3883
582.1	3519.23486
582.563	3366.07844
583.025	3277.82957
583.487	3185.90487
583.95	3220.26501
584.412	3179.07712
584.874	3080.75606
585.336	3048.67151
585.797	2870.20168
586.259	2925.63572
586.721	2857.60338
587.182	2760.50562
587.643	2683.40396
588.105	2704.65298
588.566	2547.98799
589.027	2526.69255
589.488	2526.3966
589.949	2444.6331
590.41	2330.70835
590.87	2342.25172
591.331	2209.97908
591.791	2229.37949
592.252	2223.3214
592.712	2178.41877
593.172	2170.22816
593.632	2171.10517
594.092	2063.09583
594.552	2082.9746
595.011	2008.16741
595.471	1903.93168
595.931	1906.95754
596.39	1959.32783
596.849	1903.14309
597.308	1881.86389
597.768	1816.43273
598.227	1776.08064
598.685	1785.91025
599.144	1853.09619
599.603	1845.1689
600.062	1848.78586
600.52	1830.93278
600.978	1752.02922
601.437	1832.95733
601.895	1812.71633
602.353	1768.81809
602.811	1879.99462
603.269	1819.18286
603.727	1843.22185
604.184	1856.0289
604.642	1869.30637
605.099	1899.09734
605.557	1936.33963
606.014	1967.97076
606.471	1965.49513
606.928	2084.05736
607.385	2156.60564
607.842	2269.25486
608.299	2295.43342
608.755	2250.53976
609.212	2120.08712
609.668	2236.20925
610.125	2255.52888
610.581	2256.41038
611.037	2239.25568
611.493	2188.36714
611.949	2180.61137
612.405	2166.74322
612.861	2120.30745
613.316	2159.43525
613.772	2163.29458
614.227	2230.46053
614.683	2156.96258
615.138	2211.37109
615.593	2166.32119
616.048	2147.1904
616.503	2150.50559
616.958	2166.67659
617.412	2105.33494
617.867	2103.0812
618.321	2125.84424
618.776	2112.09559
619.23	2068.2635
619.684	2032.1014
620.138	2040.18607
620.592	2012.39626
621.046	1992.18787
621.5	2009.42981
621.954	1943.02456
622.407	1900.95148
622.861	1865.24717
623.314	1797.93323
623.768	1792.03921
624.221	1787.51489
624.674	1708.90575
625.127	1673.91153
625.58	1723.86705
626.033	1660.67847
626.485	1682.02295
626.938	1632.9307
627.39	1590.83903
627.843	1575.78853
628.295	1440.60277
628.747	1493.77444
629.199	1485.63245
629.651	1430.58332
630.103	1465.65549
630.555	1332.254
631.006	1355.55434
631.458	1325.55218
631.909	1282.37003
632.361	1292.46304
632.812	1286.44922
633.263	1230.17016
633.714	1146.03918
634.165	1181.43347
634.616	1145.31929
635.067	1093.03314
635.518	1043.14017
635.968	1121.87042
636.419	1061.97287
636.869	1012.07321
637.319	1015.03224
637.769	1009.97716
638.219	924.91128
638.669	960.01064
639.119	996.13187
639.569	936.9835
640.019	898.82933
640.468	911.79497
640.918	909.91664
641.367	904.79574
641.816	908.81374
642.265	837.73544
642.714	863.77667
643.163	880.83156
643.612	882.94199
644.061	893.72572
644.51	866.81357
644.958	855.69002
645.406	867.86554
645.855	850.87932
646.303	837.75395
646.751	863.7878
647.199	871.76906
647.647	846.75295
648.095	935.92243
648.543	863.58658
648.99	850.80665
649.438	906.89071
649.885	848.89123
650.333	866.51773
650.78	846.86737
651.227	898.98134
651.674	864.75523
652.121	836.8261
652.568	880.92546
653.015	850.91205
653.461	834.79182
653.908	844.77679
654.354	808.73295
654.801	819.74713
655.247	850.68679
655.693	843.99211
656.139	785.72439
656.585	797.72511
657.031	773.66745
657.477	778.55235
657.922	804.69549
658.368	786.76447
658.813	770.61238
659.259	751.66485
659.704	770.63225
660.149	767.65732
660.594	777.69252
661.039	737.54899
661.484	754.63441
661.929	772.64645
662.373	763.7906
662.818	759.74241
663.262	691.54952
663.707	707.65593
664.151	740.66388
664.595	673.50295
665.039	728.67156
665.483	715.68641
665.927	710.53897
666.371	718.55037
666.814	671.49047
667.258	705.58288
667.701	731.44394
668.145	696.60251
668.588	719.61829
669.031	665.48751
669.474	676.51617
669.917	673.38142
670.36	717.65514
670.803	659.46561
671.245	660.30989
671.688	671.50772
672.13	707.48065
672.573	639.49426
673.015	709.58471
673.457	690.40138
673.899	696.54444
674.341	731.62451
674.783	620.39673
675.225	676.53229
675.666	746.67738
676.108	657.33033
676.549	689.50451
676.991	719.48857
677.432	725.37519
677.873	649.39496
678.314	699.5495
678.755	711.59831
679.196	672.43857
679.637	658.48422
680.078	605.32146
680.518	697.49247
680.959	705.57705
681.399	726.6663
681.839	687.54433
682.28	690.57922
682.72	679.45576
683.16	672.53615
683.6	662.39028
684.039	672.29961
684.479	702.5977
684.919	678.48015
685.358	709.65092
685.798	695.68027
686.237	725.60851
686.676	687.45203
687.115	724.55267
687.554	714.54961
687.993	701.42214
688.432	732.53611
688.871	732.54083
689.309	775.67319
689.748	689.30615
690.186	730.57698
690.625	731.55591
691.063	770.68328
691.501	727.62296
691.939	769.72805
692.377	726.61239
692.815	744.62778
693.253	743.62662
693.69	783.56631
694.128	785.73449
694.565	803.71298
695.003	801.82786
695.44	806.70862
695.877	810.72457
696.314	766.47394
696.751	762.55343
697.188	828.7034
697.625	837.69377
698.061	830.79009
698.498	825.76754
698.934	921.95382
699.371	877.84268
699.807	842.76793
700.243	864.8563
700.679	854.72072
701.115	887.81876
701.551	888.83922
701.987	850.70795
702.422	901.90059
702.858	819.7313
703.294	886.75586
703.729	918.9732
704.164	888.89155
704.599	916.78585
705.035	920.83689
705.47	914.99315
705.904	922.91393
706.339	910.79929
706.774	900.85331
707.209	861.77016
707.643	939.9756
708.078	991.1207
708.512	916.03436
708.946	900.86492
709.38	901.86492
709.814	877.75458
710.248	956.0005
710.682	936.95077
711.116	915.94698
711.549	912.04633
711.983	872.78436
712.416	950.94498
712.85	910.99946
713.283	942.95374
713.716	867.90776
714.149	909.87228
714.582	936.8499
715.015	893.93217
715.448	896.97692
715.881	893.68212
716.313	935.91295
716.746	873.83185
717.178	890.87943
717.61	880.9392
718.043	907.96497
718.475	861.82727
718.907	916.01171
719.339	909.82286
719.77	943.95712
720.202	851.90066
720.634	937.01792
721.065	881.84703
721.497	888.91441
721.928	858.88047
722.359	921.9843
722.79	874.88824
723.221	821.82611
723.652	883.9697
724.083	852.73083
724.514	885.79263
724.945	902.86824
725.375	868.82415
725.806	843.84178
726.236	871.95331
726.666	898.86408
727.096	859.8728
727.526	873.96259
727.956	830.67767
728.386	881.89891
728.816	775.76355
729.246	847.85441
729.675	846.86504
730.105	777.6868
730.534	800.67378
730.964	841.86135
731.393	805.75206
731.822	855.92917
732.251	833.86427
732.68	845.73568
733.109	824.79457
733.537	849.81976
733.966	855.90253
734.395	817.67661
734.823	820.61583
735.251	808.75451
735.68	860.89512
736.108	812.81689
736.536	807.6836
736.964	821.70148
737.392	832.84486
737.82	831.76892
738.247	839.76587
738.675	880.82831
739.102	798.79434
739.53	814.85417
739.957	809.86312
740.384	815.75735
740.811	837.86171
741.238	849.83226
741.665	808.65849
742.092	843.77585
742.519	749.67485
742.945	878.85246
743.372	801.77941
743.798	822.87991
744.225	804.70364
744.651	772.73515
745.077	803.78386
745.503	793.7201
745.929	811.72707
746.355	844.84125
746.781	783.73438
747.207	818.74312
747.632	766.71042
748.058	789.76071
748.483	823.68514
748.908	773.71577
749.334	806.77165
749.759	780.62686
750.184	822.75316
750.609	849.84865
751.033	836.73529
751.458	805.59775
751.883	802.76359
752.307	753.60971
752.732	736.68926
753.156	821.82159
753.58	836.76302
754.005	746.68832
754.429	806.69748
754.853	758.68698
755.277	752.58228
755.7	807.78682
756.124	703.59063
756.548	797.70311
756.971	760.63903
757.394	759.76599
757.818	731.69282
758.241	779.77052
758.664	734.68668
759.087	725.48361
759.51	739.64773
759.933	683.51401
760.356	675.57048
760.778	771.72477
761.201	754.64829
761.623	737.59177
762.046	748.59247
762.468	674.44658
762.89	737.62499
763.312	738.64313
763.734	733.59122
764.156	738.64381
764.578	717.50691
765	712.58128
765.421	673.57074
765.843	688.63241
766.264	713.55499
766.686	670.51684
767.107	644.42718
767.528	660.53888
767.949	645.50712
768.37	597.33691
768.791	692.52411
769.212	614.43603
769.632	619.34353
770.053	619.50543
770.473	648.44439
770.894	601.3762
771.314	572.24956
771.734	662.41958
772.154	610.42834
772.575	608.29188
772.994	579.22724
773.414	609.3431
773.834	536.25881
774.254	636.4503
774.673	585.31484
775.093	579.33266
775.512	574.30931
775.931	550.29976
776.351	580.33629
776.77	517.1931
777.189	575.26909
777.607	526.25926
778.026	588.36711
778.445	506.20303
778.864	522.25109
779.282	500.13893
779.701	495.16804
780.119	568.36869
780.537	474.12727
780.955	469.11386
781.373	482.12346
781.791	501.0649
782.209	500.07684
782.627	482.21391
783.045	465.02724
783.462	453.10461
783.88	424.04777
784.297	448.07512
784.715	397.98627
785.132	491.13346
785.549	411.99344
785.966	373.90569
786.383	372.88614
786.8	431.96037
787.217	424.96644
787.633	378.91525
788.05	364.82603
788.466	287.64828
788.883	344.84951
789.299	357.83262
789.715	372.88002
790.131	371.89949
790.547	336.80654
790.963	338.82058
791.379	351.86122
791.795	287.64167
792.21	311.70707
792.626	288.66657
793.041	351.84686
793.457	315.76404
793.872	266.61541
794.287	275.65123
794.702	260.62723
795.117	264.6508
795.532	299.73855
795.947	284.66799
796.362	281.65952
796.776	264.59792
797.191	275.66504
797.605	292.68974
798.02	198.4802
798.434	198.43529
798.848	255.62503
799.262	231.57459
799.676	227.54338
800.09	277.6807
800.504	178.42894
800.918	260.60177
801.331	157.40524
801.745	181.41736
802.158	188.46909
802.572	178.42667
802.985	241.57205
803.398	171.40856
803.811	169.42558
804.224	132.32638
804.637	210.50222
805.05	112.26119
805.462	172.42106
805.875	155.40354
806.288	149.36564
806.7	191.47891
807.112	96.22379
807.525	203.49611
807.937	146.36205
808.349	158.39567
808.761	158.38966
809.173	145.35253
809.584	128.31603
809.996	121.30077
810.408	155.40243
810.819	203.48074
811.231	284.73412
811.642	360.85658
812.053	434.01258
812.464	414.95545
812.875	245.61715
813.286	170.43795
813.697	200.46457
814.108	127.31177
814.519	123.27615
814.929	103.26402
815.34	156.38558
815.75	112.28844
816.16	118.29519
816.571	112.28964
816.981	128.30308
817.391	163.39718
817.801	153.38681
818.211	95.22629
818.62	158.38636
819.03	120.2953
819.44	75.19674
819.849	89.22493
820.259	86.21971
820.668	124.30975
821.077	116.29385
821.486	92.22364
821.895	92.2274
822.304	99.264
822.713	107.2581
823.122	118.297
823.531	147.35377
823.939	126.31109
824.348	127.31304
824.756	135.34106
825.164	88.22221
825.573	155.39619
825.981	105.26195
826.389	127.32199
826.797	68.17109
827.205	142.33206
827.612	138.34372
828.02	104.24949
828.428	139.35641
828.835	96.25502
829.243	141.34152
829.65	96.24189
830.057	125.30743
830.464	103.2536
830.871	85.20627
831.278	60.14716
831.685	105.23932
832.092	101.25188
832.499	71.15901
832.905	50.12846
833.312	85.19834
833.718	94.2371
834.124	81.18775
834.531	99.25065
834.937	31.0798
835.343	104.2547
835.749	49.11519
836.155	17.04529
836.561	80.20107
836.966	61.15191
837.372	67.173
837.777	65.16597
838.183	47.10647
838.588	55.13736
838.993	85.20905
839.399	90.22311
839.804	24.06006
840.209	97.2522
840.613	61.13965
841.018	47.12026
841.423	63.16341
841.828	92.23677
842.232	85.21167
842.637	89.21452
843.041	61.16001
843.445	99.25092
843.849	39.09821
844.253	63.15294
844.657	84.21558
845.061	65.15185
845.465	62.15302
845.869	73.17375
846.272	82.20402
846.676	27.06626
847.079	97.25176
847.483	31.07824
847.886	26.06353
848.289	40.10859
848.692	55.14148
849.095	68.16734
849.498	78.19703
849.901	23.05401
850.304	105.25519
850.707	56.14382
851.109	34.08659
851.512	89.22349
851.914	82.21324
852.316	24.06123
852.718	39.10314
853.121	61.15241
853.523	74.1788
853.925	73.19415
854.326	30.07621
854.728	90.235
855.13	68.17949
855.531	73.18014
855.933	45.10867
856.334	65.16527
856.736	54.12514
857.137	39.09283
857.538	56.14457
857.939	86.21778
858.34	59.14602
858.741	25.0664
859.142	87.21247
859.542	56.1504
859.943	59.14874
860.343	14.03563
860.744	58.14341
861.144	1.00248
861.544	-1.00251
861.945	127.32826
862.345	64.15842
862.745	80.20395
863.145	58.1403
863.544	57.14596
863.944	41.09815
864.344	8.02031
864.743	36.09022
865.143	70.18216
865.542	47.11217
865.941	81.20479
866.34	31.07577
866.74	31.084
867.139	46.11395
867.537	44.11355
867.936	32.07924
868.335	74.19084
868.734	82.2147
869.132	89.212
869.531	51.12386
869.929	103.24176
870.327	77.18889
870.726	39.09779
871.124	96.2288
871.522	105.26961
871.92	96.24024
872.318	46.11453
872.715	60.14863
873.113	71.17713
873.511	104.26467
873.908	37.09673
874.306	96.24379
874.703	72.18155
875.1	63.16256
875.497	105.25729
875.894	47.11904
876.291	33.08242
876.688	97.25531
877.085	27.06582
877.482	37.09411
877.878	32.07924
878.275	64.16586
878.671	80.18156
879.068	38.09362
879.464	33.08146
879.86	41.09905
880.256	37.09288
880.652	66.17033
881.048	71.177
881.444	-4.00968
881.84	43.11092
882.236	19.04862
882.631	112.28008
883.027	54.13181
883.422	39.10116
883.817	94.24326
884.213	52.13615
884.608	34.08598
885.003	90.22188
885.398	73.18771
885.793	33.08423
886.188	56.14362
886.582	19.04896
886.977	76.1835
887.371	26.0661
887.766	26.06659
888.16	45.11401
888.554	67.16606
888.949	78.19667
889.343	48.11847
889.737	66.18015
890.131	14.0356
890.525	45.11668
890.918	12.0306
891.312	52.12474
891.706	-8.0211
892.099	45.11482
892.492	61.13577
892.886	13.03242
893.279	75.19426
893.672	2.00513
894.065	33.08385
894.458	96.24569
894.851	61.1513
895.244	13.03381
895.637	95.23253
896.029	34.08466
896.422	33.08197
896.814	28.07083
897.206	17.04161
897.599	44.10951
897.991	33.08107
898.383	90.21853
898.775	31.07185
899.167	24.05814
899.559	43.11011
899.951	10.02418
900.342	31.07941
900.734	36.09265
901.125	78.20596
901.517	58.14567
901.908	65.15726
902.299	62.15683
902.69	65.15709
903.082	31.07658
903.473	86.21108
903.863	84.21618
904.254	108.25642
904.645	111.27732
905.036	7.01754
905.426	60.13893
905.817	66.16523
906.207	69.16895
906.597	-5.01197
906.987	39.10265
907.378	19.04862
907.768	39.10469
908.158	35.0871
908.547	23.06084
908.937	37.09544
909.327	98.24187
909.717	59.15028
910.106	3.00739
910.495	54.13689
910.885	92.23603
911.274	47.11934
911.663	57.14488
912.052	57.14133
912.441	25.06431
912.83	94.22051
913.219	75.1968
913.608	30.0747
913.997	28.07214
914.385	50.12086
914.774	58.14326
915.162	81.1976
915.55	48.11786
915.939	44.113
916.327	44.11007
916.715	5.01302
917.103	58.14368
917.491	14.03504
917.878	12.02973
918.266	24.06248
918.654	103.2666
919.041	32.08538
919.429	59.14253
919.816	61.15543
920.203	59.14607
920.591	86.21405
920.978	33.08101
921.365	48.1276
921.752	102.24701
922.139	86.19233
922.525	64.15836
922.912	41.10132
923.299	34.0865
923.685	53.14044
924.072	11.0257
924.458	17.04306
924.844	59.1489
925.231	36.08613
925.617	18.047
926.003	44.11375
926.389	72.18401
926.774	27.06969
927.16	62.15616
927.546	108.27988
927.931	53.13428
928.317	35.08186
928.702	49.11703
929.088	36.08787
929.473	69.17693
929.858	50.12436
930.243	60.14716
930.628	99.24645
931.013	45.11389
931.398	23.05386
931.783	47.12413
932.167	80.20027
932.552	16.04049
932.937	86.21444
933.321	34.08729
933.705	38.09787
934.09	69.17395
934.474	66.15857
934.858	5.01323
935.242	15.03598
935.626	87.2262
936.009	-5.01338
936.393	41.10561
936.777	68.17628
937.16	18.04735
937.544	71.16847
937.927	52.13499
938.311	72.17679
938.694	62.16415
939.077	66.16068
939.46	4.00979
939.843	133.28458
940.226	29.07571
940.609	141.33212
940.991	37.0959
941.374	15.03767
941.757	40.09959
942.139	74.17271
942.522	33.07888
942.904	50.1225
943.286	18.0462
943.668	50.13145
944.05	95.23658
944.432	93.23429
944.814	48.11873
945.196	56.1408
945.578	83.20474
945.959	53.12707
946.341	15.03674
946.722	54.12875
947.104	82.1991
947.485	70.16588
947.866	50.13011
948.247	-5.01281
948.628	7.0173
949.009	76.19777
949.39	49.12331
949.771	87.20556
950.152	60.15069
950.532	48.12185
950.913	46.11299
951.293	28.07699
951.674	96.23963
952.054	83.21074
952.434	42.10567
952.814	68.16449
953.194	51.13383
953.574	58.14299
953.954	42.10202
954.334	47.11942
954.714	41.10258
955.093	32.07953
955.473	34.08622
955.853	27.07068
956.232	11.03025
956.611	64.15534
956.99	89.22749
957.37	67.17312
957.749	74.18015
958.128	57.14703
958.506	39.10403
958.885	54.13898
959.264	102.25682
959.643	66.15228
960.021	37.09404
960.4	59.13762
960.778	44.10999
961.156	43.11042
961.535	20.04769
961.913	84.19959
962.291	87.22891
962.669	-3.00773
963.047	37.09534
963.424	14.03633
963.802	46.11582
964.18	62.15801
964.557	72.16877
964.935	54.13033
965.312	31.08162
965.69	53.13323
966.067	85.21013
966.444	12.02999
966.821	40.10402
967.198	65.1591
967.575	37.09114
967.952	60.14333
968.329	50.12409
968.705	10.02202
969.082	89.2314
969.458	37.09221
969.835	46.11357
970.211	71.18568
970.587	25.06327
970.963	39.10102
971.339	45.1192
971.715	41.10384
972.091	67.16721
972.467	66.16666
972.843	29.0735
973.219	46.11073
973.594	79.21073
973.97	73.17509
974.345	60.14678
974.721	20.04876
975.096	54.13274
975.471	41.09935
975.846	23.05632
976.221	77.19986
976.596	44.1084
976.971	44.11019
977.346	21.04973
977.72	75.19352
978.095	64.16763
978.469	78.18754
978.844	42.10598
979.218	11.027
979.593	28.06827
979.967	57.14081
980.341	30.07057
980.715	77.19668
981.089	11.0278
981.463	70.16677
981.837	67.16715
982.21	45.1062
982.584	40.0988
982.957	27.06926
983.331	65.15649
983.704	-31.07717
984.078	58.14588
984.451	25.06253
984.824	60.14923
985.197	18.04454
985.57	51.12958
985.943	59.14591
986.316	97.23901
986.688	13.03191
987.061	106.25312
987.434	31.08201
987.806	35.08675
988.179	33.08035
988.551	80.20524
988.923	31.07776
989.295	-7.01755
989.667	38.09389
990.039	49.12424
990.411	73.17088
990.783	59.138
991.155	62.15465
991.527	35.08665
991.898	40.10198
992.27	-24.0609
992.641	36.09123
993.012	117.27666
993.384	26.06297
993.755	38.09912
994.126	-5.01232
994.497	50.12535
994.868	40.09464
995.239	28.0689
995.61	45.11575
995.98	92.22815
996.351	23.05819
996.722	88.21054
997.092	29.07075
997.462	4.00973
997.833	2.00485
998.203	29.07119
998.573	34.08591
998.943	44.10624
999.313	70.1715
999.683	43.10669
1000.053	96.22494
1000.423	42.10297
1000.792	54.14259
1001.162	-20.05038
1001.531	61.15274
1001.901	110.27914
1002.27	35.08039
1002.639	54.14052
1003.009	7.01698
1003.378	9.02327
1003.747	83.20081
1004.116	66.16116
1004.485	16.03886
1004.853	63.16121
1005.222	50.1267
1005.591	74.17752
1005.959	42.09864
1006.328	33.07658
1006.696	65.16105
1007.064	29.07392
1007.433	50.12621
1007.801	59.14511
1008.169	-19.04867
1008.537	104.23402
1008.905	32.07703
1009.273	49.12145
1009.64	66.1623
1010.008	50.12209
1010.375	7.01686
1010.743	87.20181
1011.11	66.15989
1011.478	64.15958
1011.845	62.14771
1012.212	42.0983
1012.579	30.07453
1012.946	41.09912
1013.313	59.14135
1013.68	56.12797
1014.047	59.14441
1014.414	39.09479
1014.78	23.05792
1015.147	19.04632
1015.513	52.12778
1015.88	36.0922
1016.246	49.12043
1016.612	19.04409
1016.978	92.22731
1017.344	44.1113
1017.71	13.03186
1018.076	57.13588
1018.442	49.12622
1018.808	47.1195
1019.174	34.08723
1019.539	64.14637
1019.905	14.0339
1020.27	8.02035
1020.636	45.10965
1021.001	57.13796
1021.366	36.08856
1021.731	22.05676
1022.096	22.05682
1022.461	95.2269
1022.826	24.05821
1023.191	-1.00266
1023.556	72.17246
1023.92	66.16272
1024.285	74.18257
1024.649	50.12467
1025.014	78.19527
1025.378	45.11511
1025.742	62.15661
1026.107	56.12838
1026.471	-5.01182
1026.835	55.13935
1027.199	82.20446
1027.562	55.13021
1027.926	50.12363
1028.29	60.15501
1028.654	54.12687
1029.017	-4.00997
1029.381	35.08561
1029.744	6.0155
1030.107	39.09365
1030.471	44.10608
1030.834	25.05804
1031.197	44.10628
1031.56	42.10053
1031.923	1.00263
1032.286	94.2218
1032.648	92.2238
1033.011	6.01409
1033.374	27.06409
1033.736	19.05095
1034.099	58.14457
1034.461	-19.04898
1034.823	-22.05609
1035.185	57.14514
1035.548	37.09231
1035.91	66.16044
1036.272	-35.08174
1036.634	37.09097
1036.995	48.11602
1037.357	51.12636
1037.719	23.05634
1038.08	15.03624
1038.442	63.15128
1038.803	34.08283
1039.165	54.13946
1039.526	-4.00991
1039.887	61.1487
1040.248	9.02266
1040.609	23.05709
1040.97	55.13722
1041.331	13.03351
1041.692	66.16007
1042.053	38.08883
1042.413	47.1117
1042.774	60.14721
1043.134	78.18833
1043.495	44.1113
1043.855	47.11572
1044.215	69.17407
1044.576	70.17245
1044.936	58.1351
1045.296	24.06086
1045.656	21.05211
1046.016	31.0756
1046.375	-5.01235
1046.735	22.05159
1047.095	27.06456
1047.454	60.12969
1047.814	32.07843
1048.173	-18.04305
1048.533	5.01176
1048.892	21.05222
1049.251	42.10696
1049.61	-2.00504
1049.969	74.17954
1050.328	40.08897
1050.687	24.05941
1051.046	20.04914
1051.405	72.18258
1051.763	22.05219
1052.122	31.07874
1052.48	-2.00495
1052.839	-6.01454
1053.197	32.07741
1053.555	30.0677
1053.914	7.01727
1054.272	15.03648
1054.63	56.14029
1054.988	59.14318
1055.345	42.09304
1055.703	37.09026
1056.061	-11.02883
1056.419	40.10477
1056.776	11.02688
1057.134	33.07837
1057.491	37.09355
1057.848	11.02761
1058.206	34.08184
1058.563	6.01363
1058.92	22.05119
1059.277	74.18324
1059.634	57.13557
1059.991	24.05871
1060.348	40.09332
1060.704	6.01476
1061.061	55.1288
1061.418	-5.01238
1061.774	54.13533
1062.131	42.11302
1062.487	79.18753
1062.843	10.02523
1063.199	3.00768
1063.555	59.14065
1063.911	-23.05887
1064.267	22.04696
1064.623	60.1482
1064.979	69.16455
1065.335	65.15578
1065.691	44.1066
1066.046	-10.02214
1066.402	40.09427
1066.757	-21.05394
1067.112	42.10366
1067.468	63.15563
1067.823	66.16158
1068.178	10.02452
1068.533	72.17672
1068.888	14.03399
1069.243	14.03519
1069.598	47.11624
1069.952	36.08405
1070.307	73.18528
1070.662	43.10349
1071.016	10.02316
1071.371	34.07882
1071.725	23.0559
1072.079	37.08982
1072.434	35.08713
1072.788	72.17443
1073.142	41.10281
1073.496	8.01942
1073.85	14.03291
1074.203	90.22368
1074.557	34.09161
1074.911	57.13604
1075.265	23.05462
1075.618	25.06149
1075.971	41.09912
1076.325	50.12899
1076.678	25.05946
1077.031	54.12564
1077.385	87.19653
1077.738	77.17756
1078.091	32.07524
1078.444	39.09233
1078.796	26.06452
1079.149	35.08786
1079.502	76.18537
1079.855	12.02894
1080.207	81.20076
1080.56	13.03411
1080.912	16.03946
1081.264	67.16338
1081.617	43.10794
1081.969	50.12913
1082.321	34.08392
1082.673	22.05223
1083.025	76.18336
1083.377	-199.46307
1083.728	34.0802
1084.08	13.03297
1084.432	51.12543
1084.783	33.07852
1085.135	16.04093
1085.486	60.14229
1085.838	22.05541
1086.189	21.05167
1086.54	37.08949
1086.891	45.11616
1087.242	-1.00247
1087.593	31.07647
1087.944	22.05058
1088.295	26.06047
1088.646	58.14362
1088.996	-7.01728
1089.347	70.17359
1089.698	36.08731
1090.048	19.04932
1090.398	6.01415
1090.749	44.10728
1091.099	60.15603
1091.449	25.06327
1091.799	57.14473
1092.149	52.13173
1092.499	-4.00997
1092.849	42.10892
1093.199	22.05543
1093.548	46.1132
1093.898	31.07896
1094.248	42.10858
1094.597	24.06342
1094.947	38.10199
1095.296	53.13189
1095.645	9.02374
1095.994	15.03655
1096.343	38.09677
1096.692	80.21717
1097.041	-30.08228
1097.39	55.14118
1097.739	24.06318
1098.088	48.12967
1098.437	13.03488
1098.785	14.03781
1099.134	53.14096
1099.482	32.08891
1099.83	27.07116
1100.179	76.20182
1100.527	26.06955
1100.875	-3.00807
1101.223	50.13344
1101.571	20.05591
1101.919	40.10736
1102.267	4.01137
1102.615	11.03546
1102.962	1.00322
1103.31	6.01933
1103.658	7.02259
