Data from N2 R0 105C sample11_Subt2__1__12-53-50-166.txt Node

Date: Tue Aug 19 12:53:50 PDT 2025
User: uwsun
Spectrometer: HDX01956
Trigger mode: 0
Integration Time (sec): 5.000000E-1
Scans to average: 1
Nonlinearity correction enabled: true
Boxcar width: 0
Storing dark spectrum: false
XAxis mode: Wavelengths
Number of Pixels in Spectrum: 2068
>>>>>Begin Spectral Data<<<<<
194.03	44.12844
194.578	40.12999
195.127	47.15067
195.676	34.10955
196.225	74.20366
196.773	48.13756
197.321	86.24668
197.87	145.38998
198.418	123.32843
198.966	156.4236
199.513	73.19188
200.061	133.3536
200.609	126.34457
201.156	94.21973
201.704	143.37803
202.251	174.4781
202.798	131.35463
203.345	176.45136
203.892	155.40561
204.438	145.36331
204.985	144.36321
205.532	137.37423
206.078	137.35239
206.624	162.41662
207.17	142.3475
207.716	115.29457
208.262	112.23752
208.808	156.40635
209.354	166.42303
209.899	115.30094
210.445	156.40719
210.99	154.39176
211.535	180.44473
212.08	176.43325
212.625	180.46838
213.17	177.46318
213.715	151.36437
214.259	151.36986
214.804	136.3483
215.348	116.27965
215.892	132.33128
216.436	157.38156
216.98	201.46938
217.524	134.33291
218.068	180.47351
218.612	188.48835
219.155	153.37685
219.698	159.39595
220.242	156.40301
220.785	129.31563
221.328	145.37323
221.871	101.26467
222.414	140.3618
222.956	153.38929
223.499	116.27647
224.041	174.422
224.583	130.29288
225.126	127.29576
225.668	95.24163
226.21	117.30618
226.751	120.28095
227.293	154.37224
227.835	139.35592
228.376	145.34909
228.918	160.41748
229.459	112.29195
230	137.33955
230.541	182.44356
231.082	91.22867
231.622	127.30611
232.163	134.33932
232.704	156.39853
233.244	142.36519
233.784	120.30581
234.324	151.35595
234.864	147.35015
235.404	117.29083
235.944	118.29209
236.484	154.39301
237.023	159.39407
237.563	97.23672
238.102	147.35819
238.641	165.4306
239.18	161.39567
239.719	154.39908
240.258	144.34083
240.797	151.37862
241.335	136.34659
241.874	191.39683
242.412	197.49341
242.95	123.30897
243.488	158.37989
244.026	139.33503
244.564	174.37899
245.102	156.36766
245.64	110.27537
246.177	144.34149
246.715	180.44815
247.252	122.29522
247.789	162.32734
248.326	165.4158
248.863	164.3823
249.4	167.39748
249.936	122.2672
250.473	126.31063
251.009	189.45588
251.546	110.25784
252.082	141.32668
252.618	105.24752
253.154	148.37383
253.69	112.2653
254.226	135.33618
254.761	223.52729
255.297	128.2951
255.832	148.36325
256.367	194.47615
256.903	111.25616
257.438	156.38119
257.972	161.37967
258.507	121.2955
259.042	168.38808
259.576	169.38923
260.111	107.26073
260.645	129.29295
261.179	165.40085
261.713	192.45074
262.247	180.43524
262.781	150.336
263.315	205.51992
263.849	169.43893
264.382	139.33389
264.915	195.47993
265.449	172.44341
265.982	193.46059
266.515	127.32108
267.048	183.41473
267.58	202.46253
268.113	171.39116
268.646	165.42352
269.178	182.42743
269.71	153.35463
270.243	105.25289
270.775	187.48584
271.307	165.41104
271.838	142.34737
272.37	178.45185
272.902	161.38335
273.433	139.31796
273.965	174.43856
274.496	135.34483
275.027	157.40299
275.558	166.41795
276.089	186.4765
276.62	129.33964
277.15	97.24724
277.681	177.40667
278.211	93.23345
278.741	135.31675
279.272	108.26056
279.802	136.35037
280.332	157.38641
280.861	187.46583
281.391	133.31778
281.921	186.46343
282.45	188.48365
282.98	177.47244
283.509	145.34127
284.038	174.41486
284.567	169.4061
285.096	185.4637
285.625	193.46007
286.153	123.30084
286.682	172.41166
287.21	191.47649
287.739	204.5018
288.267	161.40485
288.795	119.31796
289.323	172.4245
289.851	170.41787
290.378	163.38543
290.906	187.47023
291.433	177.4513
291.961	203.47814
292.488	180.45887
293.015	189.46534
293.542	199.51897
294.069	183.46067
294.596	183.46297
295.122	187.46177
295.649	183.42063
296.175	228.57238
296.702	196.48745
297.228	197.49021
297.754	215.51034
298.28	225.53099
298.806	152.37968
299.332	181.42334
299.857	199.46745
300.383	226.58017
300.908	167.4213
301.433	176.43883
301.958	178.42423
302.483	193.49504
303.008	206.52125
303.533	160.42303
304.058	164.40282
304.582	204.49995
305.107	179.47999
305.631	190.44709
306.155	213.51473
306.679	145.35161
307.203	225.54045
307.727	205.50063
308.251	199.50381
308.775	217.53387
309.298	247.61349
309.822	177.45923
310.345	252.61688
310.868	216.53014
311.391	209.52516
311.914	211.54158
312.437	208.49249
312.96	203.49334
313.482	209.50906
314.005	240.61331
314.527	240.63791
315.049	202.51585
315.571	240.56143
316.093	221.56089
316.615	256.63271
317.137	263.5919
317.659	270.67072
318.18	174.42943
318.702	226.53738
319.223	264.57648
319.744	286.6601
320.265	242.60074
320.786	288.72376
321.307	236.598
321.828	236.5564
322.348	275.66504
322.869	273.66691
323.389	190.31193
323.909	276.64614
324.43	250.60812
324.95	303.70809
325.47	225.5617
325.989	240.58074
326.509	295.67151
327.029	254.58742
327.548	241.56057
328.067	294.7242
328.587	290.72433
329.106	247.56908
329.625	286.74363
330.144	312.73612
330.662	310.71918
331.181	344.80782
331.7	355.83803
332.218	341.75766
332.736	343.80846
333.255	340.795
333.773	330.78069
334.291	324.79867
334.808	376.85222
335.326	399.90305
335.844	379.8853
336.361	333.83906
336.879	384.90489
337.396	331.79651
337.913	338.78009
338.43	432.96399
338.947	378.88487
339.464	319.70054
339.981	418.97656
340.497	385.925
341.014	367.88779
341.53	326.73261
342.046	374.89841
342.562	389.95195
343.078	374.87414
343.594	369.86938
344.11	433.99749
344.626	400.98231
345.141	411.91695
345.657	454.99464
346.172	415.97544
346.687	444.00097
347.202	428.94599
347.717	406.95002
348.232	434.04383
348.747	468.04658
349.261	497.06326
349.776	480.08669
350.29	430.03302
350.805	554.30619
351.319	504.13325
351.833	429.94443
352.347	417.95145
352.861	477.06302
353.374	483.05685
353.888	481.10946
354.401	459.01946
354.915	466.01551
355.428	474.1169
355.941	510.13786
356.454	555.17373
356.967	453.01943
357.48	511.10975
357.993	533.22959
358.505	455.05481
359.018	539.23259
359.53	565.28073
360.042	530.11319
360.554	566.26871
361.066	547.24991
361.578	520.07102
362.09	521.15741
362.602	547.13658
363.113	555.21569
363.625	579.21922
364.136	507.05848
364.647	615.3439
365.158	593.26844
365.669	581.27967
366.18	590.27697
366.691	624.27062
367.201	599.31992
367.712	631.32539
368.222	596.2603
368.733	655.33051
369.243	661.34332
369.753	715.50534
370.263	683.48008
370.773	644.41652
371.282	617.33293
371.792	763.59172
372.301	710.53308
372.811	701.60409
373.32	719.37241
373.829	779.61508
374.338	779.50654
374.847	826.64977
375.356	848.72035
375.865	813.47952
376.373	918.74155
376.882	886.86445
377.39	909.81784
377.898	943.91457
378.407	940.7211
378.915	981.69245
379.423	1071.98266
379.93	1072.87201
380.438	1117.10046
380.946	1206.13094
381.453	1261.21531
381.96	1250.1566
382.468	1448.36242
382.975	1435.35078
383.482	1482.14216
383.989	1546.58776
384.495	1568.2764
385.002	1683.09881
385.509	1741.46745
386.015	1848.92435
386.521	2000.36942
387.028	2026.27466
387.534	2110.15203
388.04	2234.42008
388.546	2225.20214
389.051	2335.05563
389.557	2508.17129
390.063	2724.10978
390.568	2814.19361
391.073	2924.87621
391.578	3199.0792
392.084	3118.58247
392.589	3276.20593
393.093	3502.43021
393.598	3864.93982
394.103	4112.79502
394.607	4546.30162
395.112	4974.16966
395.616	5225.90507
396.12	5767.48556
396.624	6314.57287
397.128	6851.97762
397.632	7664.36745
398.136	8230.2281
398.639	8561.58198
399.143	9594.74596
399.646	10993.21144
400.15	12001.9604
400.653	13374.01573
401.156	14942.85134
401.659	17428.16383
402.162	21437.96937
402.664	27861.92236
403.167	38696.32919
403.67	20717.04281
404.172	2696.20453
404.674	0
405.176	0
405.678	0
406.18	0
406.682	0
407.184	0
407.686	25783.58453
408.187	43316.52985
408.688	51225.60928
409.19	47573.16295
409.691	37924.30873
410.192	32362.21071
410.693	28069.59514
411.194	25245.84625
411.694	24155.46149
412.195	22334.98893
412.696	20266.87015
413.196	18907.79507
413.696	18563.43465
414.196	18929.72239
414.696	18695.38699
415.196	17712.86125
415.696	16149.97254
416.196	12966.8045
416.695	10087.79454
417.195	8584.19415
417.694	8258.58879
418.194	7764.85279
418.693	7306.6264
419.192	6992.13445
419.691	6910.03909
420.19	6731.86743
420.688	6509.70933
421.187	6368.52624
421.685	5885.51856
422.184	5304.81136
422.682	4633.12589
423.18	3957.95107
423.678	3551.40351
424.176	3321.63743
424.674	3049.63
425.172	3048.03957
425.669	2826.38383
426.167	2618.25372
426.664	2390.28265
427.161	2186.26788
427.659	2024.56135
428.156	1919.06086
428.652	1784.68643
429.149	1756.52391
429.646	1618.16177
430.143	1619.41831
430.639	1494.31172
431.135	1431.45564
431.632	1331.12396
432.128	1272.20516
432.624	1176.26402
433.12	1108.88954
433.616	1079.78828
434.111	1048.9193
434.607	1021.92275
435.103	1000.63729
435.598	1017.66015
436.093	1011.88622
436.588	809.48786
437.083	835.55807
437.578	829.60874
438.073	781.67824
438.568	743.55887
439.062	750.39331
439.557	746.51871
440.051	605.22041
440.546	628.27587
441.04	623.34533
441.534	682.53652
442.028	647.37336
442.522	612.31845
443.015	609.20486
443.509	594.31299
444.002	572.27271
444.496	578.16666
444.989	550.21611
445.482	507.15885
445.975	582.22582
446.468	499.00255
446.961	528.06557
447.454	459.96974
447.947	515.1398
448.439	433.96961
448.931	545.14853
449.424	457.06112
449.916	497.1241
450.408	467.99614
450.9	478.08961
451.392	442.03976
451.884	477.02436
452.375	449.05892
452.867	422.90505
453.358	411.89837
453.849	412.84508
454.341	458.98182
454.832	453.93483
455.323	399.92871
455.814	434.95444
456.304	399.88061
456.795	435.95322
457.285	406.85909
457.776	401.87021
458.266	385.87846
458.756	395.89836
459.247	375.86426
459.737	362.84178
460.226	405.88376
460.716	403.93173
461.206	397.9175
461.695	307.73877
462.185	328.74586
462.674	399.89607
463.163	370.79114
463.653	385.80272
464.142	367.85795
464.63	372.88172
465.119	321.72625
465.608	322.73607
466.096	261.57005
466.585	294.66937
467.073	299.69737
467.561	312.7304
468.05	326.74251
468.538	308.7371
469.026	277.65419
469.513	440.96966
470.001	297.66484
470.489	298.70064
470.976	266.61346
471.463	289.70283
471.951	303.73494
472.438	254.59301
472.925	176.41528
473.412	235.56725
473.899	256.58169
474.385	239.57886
474.872	250.59124
475.359	228.55814
475.845	222.47388
476.331	162.35301
476.817	236.56891
477.303	212.49574
477.789	233.55987
478.275	229.5636
478.761	251.60495
479.247	207.47598
479.732	172.43321
480.218	193.50022
480.703	200.49885
481.188	142.31533
481.673	181.42284
482.158	214.47383
482.643	166.4193
483.128	171.39995
483.612	192.45391
484.097	163.39851
484.581	161.37878
485.066	199.48977
485.55	201.45441
486.034	127.28255
486.518	207.49684
487.002	217.54193
487.486	160.39662
487.969	204.50661
488.453	119.30236
488.936	168.39302
489.42	157.35523
489.903	138.35007
490.386	135.23945
490.869	124.27971
491.352	141.34959
491.835	133.28815
492.318	197.46564
492.8	161.35046
493.283	206.53087
493.765	133.33601
494.247	142.3396
494.73	120.27676
495.212	167.40951
495.694	123.29714
496.175	143.353
496.657	168.40607
497.139	176.32886
497.62	120.29562
498.102	121.30809
498.583	128.3262
499.064	138.32575
499.545	165.38955
500.026	131.30724
500.507	111.26856
500.988	157.40003
501.469	133.34341
501.949	137.34796
502.43	130.32179
502.91	121.26809
503.39	90.23009
503.87	170.41555
504.35	81.19789
504.83	144.33185
505.31	73.18324
505.79	126.31474
506.269	134.32658
506.749	111.26511
507.228	126.30949
507.707	106.2472
508.187	96.23528
508.666	149.37817
509.145	129.31656
509.623	80.19534
510.102	115.28888
510.581	112.27663
511.059	122.31561
511.538	73.19363
512.016	159.3958
512.494	85.21521
512.972	138.33909
513.45	96.2358
513.928	113.28803
514.406	123.31219
514.884	127.33584
515.361	143.35649
515.839	124.29758
516.316	112.28149
516.793	85.22236
517.27	79.19738
517.747	116.30671
518.224	99.24214
518.701	170.40081
519.178	89.22781
519.654	94.23251
520.131	59.15171
520.607	69.17736
521.083	113.27144
521.56	142.35201
522.036	112.26078
522.512	90.22709
522.987	81.20296
523.463	141.35074
523.939	72.18407
524.414	104.2511
524.89	93.23075
525.365	126.30157
525.84	111.27983
526.315	96.24301
526.79	131.3106
527.265	130.31506
527.74	98.24825
528.215	128.31684
528.689	107.25184
529.164	130.29648
529.638	112.29782
530.112	106.26392
530.587	90.20666
531.061	100.25278
531.534	113.28171
532.008	87.22019
532.482	83.19786
532.956	101.26575
533.429	117.29422
533.903	108.25058
534.376	73.17115
534.849	96.23467
535.322	107.26442
535.795	50.1281
536.268	61.15301
536.741	73.18318
537.213	114.27576
537.686	99.25296
538.158	85.2013
538.631	73.18403
539.103	93.22289
539.575	56.12441
540.047	114.26408
540.519	112.27997
540.991	114.28827
541.463	74.18786
541.934	118.28415
542.406	92.23089
542.877	137.32808
543.348	114.28683
543.82	118.29721
544.291	144.34767
544.762	74.18398
545.233	76.19872
545.703	88.20748
546.174	119.29019
546.645	71.17995
547.115	147.37018
547.585	115.27698
548.056	131.33355
548.526	153.3792
548.996	86.21545
549.466	128.32159
549.935	148.36581
550.405	107.24919
550.875	114.28188
551.344	132.33116
551.814	143.34597
552.283	108.24571
552.752	141.34511
553.221	194.4517
553.69	78.18333
554.159	139.35716
554.628	168.39594
555.096	190.49745
555.565	182.42777
556.033	150.36653
556.502	136.3423
556.97	167.38799
557.438	133.32795
557.906	147.3618
558.374	153.36738
558.842	110.27378
559.31	152.35796
559.777	88.22252
560.245	186.45398
560.712	158.38464
561.18	162.38373
561.647	142.33519
562.114	152.36449
562.581	144.3662
563.048	156.3765
563.514	158.40137
563.981	162.38625
564.448	175.41268
564.914	177.42984
565.381	157.37411
565.847	233.5637
566.313	184.44726
566.779	121.28501
567.245	141.34703
567.711	251.61887
568.176	169.40085
568.642	196.50615
569.108	179.45656
569.573	226.55591
570.038	292.64678
570.504	197.4595
570.969	248.6393
571.434	267.62054
571.899	239.58994
572.363	264.62144
572.828	285.66708
573.293	291.68645
573.757	213.50598
574.222	300.70039
574.686	294.69285
575.15	270.6597
575.614	251.59647
576.078	316.76258
576.542	275.64645
577.006	328.75702
577.469	299.74667
577.933	344.80152
578.396	273.65921
578.86	319.7656
579.323	361.87854
579.786	368.81272
580.249	340.80279
580.712	342.84023
581.175	262.65938
581.637	266.62225
582.1	352.79394
582.563	339.74352
583.025	327.80324
583.487	389.81394
583.95	423.93552
584.412	404.86832
584.874	333.8083
585.336	410.96839
585.797	365.80559
586.259	368.87258
586.721	399.93675
587.182	430.9896
587.643	437.98903
588.105	455.06853
588.566	457.95494
589.027	525.23749
589.488	493.1078
589.949	548.28052
590.41	540.0484
590.87	565.2319
591.331	598.23417
591.791	649.44513
592.252	650.43033
592.712	744.64898
593.172	754.60039
593.632	785.60798
594.092	891.8048
594.552	868.70894
595.011	837.76243
595.471	953.87432
595.931	1005.96561
596.39	1078.26009
596.849	1094.20528
597.308	1186.17138
597.768	1255.69288
598.227	1304.5397
598.685	1377.49536
599.144	1440.67235
599.603	1632.95883
600.062	1672.64852
600.52	1763.87719
600.978	1893.15523
601.437	1916.02198
601.895	2033.85594
602.353	2165.08126
602.811	2365.27953
603.269	2507.64332
603.727	2597.69974
604.184	2782.46506
604.642	2936.87013
605.099	3064.53389
605.557	3208.84788
606.014	3415.22626
606.471	3625.00763
606.928	3786.13517
607.385	3920.8579
607.842	4160.12621
608.299	4372.27146
608.755	4453.43328
609.212	4709.70007
609.668	4892.69269
610.125	5176.01636
610.581	5368.72033
611.037	5438.45652
611.493	5607.58495
611.949	5998.78827
612.405	5885.5367
612.861	6210.28333
613.316	6289.41183
613.772	6542.1238
614.227	6676.27377
614.683	6754.64873
615.138	6861.13957
615.593	6962.10291
616.048	7076.95066
616.503	7017.36614
616.958	7178.58336
617.412	7239.18534
617.867	7254.87381
618.321	7366.63072
618.776	7152.86618
619.23	7201.12054
619.684	7257.95235
620.138	7177.0413
620.592	7154.35656
621.046	7200.09166
621.5	7070.40911
621.954	6962.89938
622.407	6929.83844
622.861	6943.32841
623.314	6793.93662
623.768	6729.12345
624.221	6648.32826
624.674	6517.06688
625.127	6626.1142
625.58	6642.95191
626.033	6548.743
626.485	6494.33436
626.938	6532.24795
627.39	6590.14595
627.843	6488.10384
628.295	6449.04256
628.747	6553.24273
629.199	6521.98229
629.651	6672.9813
630.103	6633.05118
630.555	6723.54593
631.006	6786.09477
631.458	6904.16232
631.909	7045.89846
632.361	7133.06801
632.812	7296.07831
633.263	7400.72288
633.714	7558.74796
634.165	7933.57142
634.616	8063.54537
635.067	8123.25789
635.518	8351.75107
635.968	8700.82025
636.419	8917.28958
636.869	9291.0832
637.319	9493.48154
637.769	9866.39698
638.219	10275.55043
638.669	10743.08391
639.119	11033.09649
639.569	11447.94297
640.019	12152.8142
640.468	12440.7409
640.918	13004.77122
641.367	13606.75979
641.816	14124.85745
642.265	14598.67677
642.714	15114.49158
643.163	15770.80926
643.612	16297.32809
644.061	16751.9634
644.51	17501.35692
644.958	18176.18832
645.406	18654.33606
645.855	19251.68317
646.303	19532.97987
646.751	20216.64303
647.199	20776.05483
647.647	21379.34484
648.095	21810.25838
648.543	22135.3011
648.99	22627.74275
649.438	22994.23926
649.885	23293.05389
650.333	23665.58953
650.78	23875.78876
651.227	24158.55758
651.674	24281.76214
652.121	24218.05711
652.568	24548.4653
653.015	24604.659
653.461	24532.00241
653.908	24319.472
654.354	24361.78046
654.801	23918.5192
655.247	23855.35685
655.693	23764.18429
656.139	23682.50082
656.585	23362.21619
657.031	23350.28329
657.477	22960.72858
657.922	23022.98238
658.368	22660.03438
658.813	22722.0086
659.259	22225.28727
659.704	22098.60287
660.149	21996.60179
660.594	21850.18797
661.039	21402.95052
661.484	21253.8404
661.929	20885.90167
662.373	20927.81452
662.818	20795.60509
663.262	20730.75554
663.707	20646.19436
664.151	20681.69544
664.595	20545.34323
665.039	20746.075
665.483	20628.69315
665.927	20696.10813
666.371	20747.90579
666.814	20893.46558
667.258	20821.93782
667.701	21005.91437
668.145	20985.59527
668.588	21001.34913
669.031	21136.78793
669.474	21430.88047
669.917	21401.96383
670.36	21635.74607
670.803	21864.50375
671.245	21832.17973
671.688	21957.48082
672.13	21859.84892
672.573	22199.99771
673.015	22332.86344
673.457	22464.57996
673.899	22443.76519
674.341	22602.82628
674.783	22659.92152
675.225	22856.25988
675.666	22825.63468
676.108	22897.14753
676.549	22909.03769
676.991	22841.36244
677.432	22855.83548
677.873	22811.30666
678.314	22555.40116
678.755	22372.25615
679.196	22326.22781
679.637	22005.13668
680.078	21744.60774
680.518	21473.69636
680.959	21247.13731
681.399	20969.28008
681.839	20983.31476
682.28	20361.95241
682.72	20420.67679
683.16	20169.38689
683.6	19697.18072
684.039	19401.10354
684.479	19313.5519
684.919	18990.43882
685.358	18871.99253
685.798	18568.08201
686.237	18195.3753
686.676	18093.4448
687.115	17955.15298
687.554	17811.11235
687.993	17595.03003
688.432	17146.67286
688.871	16815.71447
689.309	16815.98979
689.748	16765.45525
690.186	16691.75519
690.625	16582.8204
691.063	16293.89888
691.501	16223.89704
691.939	16136.6582
692.377	15893.49279
692.815	15754.26085
693.253	15716.86861
693.69	15531.41564
694.128	15379.15903
694.565	15365.56714
695.003	15088.77587
695.44	15129.3625
695.877	14930.39618
696.314	14558.63652
696.751	14557.80299
697.188	14463.61847
697.625	14403.29237
698.061	14286.41885
698.498	14116.10412
698.934	14150.24225
699.371	13996.23304
699.807	13913.67398
700.243	13683.53564
700.679	13596.6499
701.115	13468.3947
701.551	13321.20305
701.987	13205.78277
702.422	13232.34761
702.858	13118.71646
703.294	13059.80505
703.729	12910.95107
704.164	12774.21056
704.599	12545.46978
705.035	12487.90694
705.47	12532.47641
705.904	12551.97904
706.339	12335.07487
706.774	12439.40023
707.209	12148.78505
707.643	12150.51284
708.078	12069.88433
708.512	12221.55921
708.946	12094.36608
709.38	11941.545
709.814	11955.87819
710.248	11824.79348
710.682	11905.26265
711.116	11850.88523
711.549	11582.30795
711.983	11742.62048
712.416	11583.73307
712.85	11589.447
713.283	11577.646
713.716	11459.89154
714.149	11435.04625
714.582	11371.92325
715.015	11329.36475
715.448	11227.8536
715.881	11230.54756
716.313	11288.38558
716.746	11198.9468
717.178	11180.82937
717.61	11182.68395
718.043	11185.73813
718.475	11234.06168
718.907	11221.82708
719.339	11212.16138
719.77	11096.49856
720.202	11084.26185
720.634	11229.91763
721.065	11060.36279
721.497	11249.03837
721.928	11092.35249
722.359	11163.65623
722.79	11201.84227
723.221	11262.02513
723.652	11037.06034
724.083	11207.13925
724.514	11203.10176
724.945	11170.85358
725.375	11233.09197
725.806	11095.38663
726.236	11239.86224
726.666	11053.35666
727.096	11319.31937
727.526	11439.70167
727.956	11333.7556
728.386	11467.00561
728.816	11266.99336
729.246	11460.93858
729.675	11362.47151
730.105	11374.65809
730.534	11394.90192
730.964	11562.35617
731.393	11546.40313
731.822	11538.13981
732.251	11618.57017
732.68	11592.8857
733.109	11662.9323
733.537	11637.86865
733.966	11677.85561
734.395	11780.87355
734.823	11742.92193
735.251	11733.31077
735.68	11727.13831
736.108	11568.3596
736.536	11544.61298
736.964	11655.1729
737.392	11701.00995
737.82	11673.09868
738.247	11604.81845
738.675	11530.48282
739.102	11538.21127
739.53	11483.89134
739.957	11295.03844
740.384	11361.59393
740.811	11273.05868
741.238	11380.64221
741.665	11159.9309
742.092	11224.06578
742.519	11028.10524
742.945	10993.07057
743.372	11037.12714
743.798	11026.98412
744.225	10870.62823
744.651	10756.05706
745.077	10687.82878
745.503	10633.69794
745.929	10533.38329
746.355	10530.31172
746.781	10387.84807
747.207	10165.20823
747.632	10154.14616
748.058	10120.04814
748.483	10034.8677
748.908	9995.71291
749.334	9987.69223
749.759	9810.24275
750.184	9697.96019
750.609	9671.91112
751.033	9534.57109
751.458	9471.41372
751.883	9294.12521
752.307	9107.7218
752.732	9068.80199
753.156	9022.687
753.58	8899.3848
754.005	8738.29959
754.429	8709.08886
754.853	8611.09662
755.277	8441.71778
755.7	8438.92677
756.124	8214.72532
756.548	8210.56894
756.971	7933.36261
757.394	8136.85371
757.818	7922.67415
758.241	7758.54857
758.664	7631.51422
759.087	7619.9259
759.51	7355.2772
759.933	7418.19211
760.356	7298.45228
760.778	7263.32305
761.201	7094.15163
761.623	6957.05747
762.046	6808.99397
762.468	6700.9592
762.89	6540.24594
763.312	6654.28657
763.734	6468.15585
764.156	6252.40775
764.578	6236.99421
765	6187.37361
765.421	6024.75745
765.843	5909.9703
766.264	5826.40262
766.686	5784.63218
767.107	5546.55611
767.528	5558.96682
767.949	5519.98185
768.37	5318.6865
768.791	5403.66096
769.212	5193.12408
769.632	5082.62409
770.053	5100.5164
770.473	4946.94002
770.894	4863.12109
771.314	4775.77385
771.734	4632.85646
772.154	4597.4566
772.575	4474.79966
772.994	4567.6902
773.414	4499.04917
773.834	4371.47958
774.254	4329.42309
774.673	4147.32359
775.093	4123.50083
775.512	4034.46337
775.931	3986.7131
776.351	3928.58628
776.77	3839.53881
777.189	3812.31664
777.607	3724.85888
778.026	3612.75715
778.445	3620.80341
778.864	3552.89871
779.282	3499.51853
779.701	3429.76859
780.119	3405.02101
780.537	3267.81153
780.955	3275.79515
781.373	3133.69052
781.791	3127.15135
782.209	3028.23346
782.627	3081.22078
783.045	3022.3388
783.462	2945.93841
783.88	2867.97711
784.297	2841.80928
784.715	2785.94415
785.132	2735.60035
785.549	2655.74874
785.966	2577.70587
786.383	2567.58926
786.8	2531.2773
787.217	2525.38765
787.633	2395.61593
788.05	2423.2666
788.466	2307.12095
788.883	2293.63393
789.299	2320.35724
789.715	2243.40509
790.131	2191.49863
790.547	2158.39257
790.963	2143.4417
791.379	2134.50191
791.795	2050.94945
792.21	2025.02883
792.626	1930.02204
793.041	1987.3083
793.457	1979.29483
793.872	1884.96823
794.287	1871.06454
794.702	1780.05234
795.117	1790.1584
795.532	1750.15537
795.947	1686.88022
796.362	1722.90336
796.776	1635.67525
797.191	1578.8691
797.605	1626.84322
798.02	1525.76609
798.434	1537.43614
798.848	1602.93331
799.262	1515.87207
799.676	1449.65145
800.09	1503.84378
800.504	1417.60431
800.918	1436.54452
801.331	1294.66237
801.745	1312.33941
802.158	1256.51393
802.572	1223.33959
802.985	1298.446
803.398	1202.29766
803.811	1172.40792
804.224	1167.32643
804.637	1184.29684
805.05	1132.10435
805.462	1082.19199
805.875	1015.24
806.288	1089.19769
806.7	1054.22133
807.112	979.88135
807.525	973.02941
807.937	902.92138
808.349	972.06706
808.761	900.91049
809.173	923.91134
809.584	817.7564
809.996	817.76768
810.408	812.86298
810.819	832.72698
811.231	840.95635
811.642	802.74295
812.053	796.72624
812.464	819.73507
812.875	715.6453
813.286	751.73365
813.697	758.56345
814.108	684.50207
814.519	690.36634
814.929	688.57779
815.34	719.58924
815.75	652.51664
816.16	595.35645
816.571	586.38706
816.981	571.23343
817.391	571.28229
817.801	607.40662
818.211	495.08589
818.62	562.26799
819.03	546.23485
819.44	543.30716
819.849	478.12111
820.259	491.16172
820.668	534.23166
821.077	474.12122
821.486	442.00132
821.895	424.98358
822.304	431.08276
822.713	442.9981
823.122	438.03632
823.531	410.93718
823.939	408.9547
824.348	387.90788
824.756	378.91319
825.164	384.91787
825.573	379.93024
825.981	338.80733
826.389	405.97562
826.797	298.71861
827.205	336.7557
827.612	313.75463
828.02	314.72298
828.428	336.83159
828.835	268.69133
829.243	346.80554
829.65	256.62643
830.057	268.64164
830.464	260.62154
830.871	226.53386
831.278	209.49839
831.685	291.63825
832.092	268.64799
832.499	195.42554
832.905	269.66446
833.312	270.60703
833.718	252.61756
834.124	228.51303
834.531	243.59937
834.937	149.37562
835.343	242.57741
835.749	177.4057
836.155	195.50401
836.561	214.52484
836.966	215.52035
837.372	210.52872
837.777	188.4696
838.183	172.37973
838.588	131.32266
838.993	154.37392
839.399	132.32471
839.804	132.32387
840.209	177.45384
840.613	172.38497
841.018	135.34009
841.423	157.40059
841.828	184.46592
842.232	145.35714
842.637	175.41492
843.041	151.39002
843.445	130.32767
843.849	89.22212
844.253	175.41588
844.657	110.28102
845.061	113.2615
845.465	143.34767
845.869	159.37218
846.272	134.33023
846.676	118.28468
847.079	152.39077
847.483	144.35605
847.886	67.16247
848.289	122.32678
848.692	117.29769
849.095	143.34702
849.498	93.23429
849.901	88.20401
850.304	145.34976
850.707	72.1844
851.109	49.12446
851.512	126.31429
851.914	144.37046
852.316	87.21948
852.718	66.17375
853.121	133.32795
853.523	162.38491
853.925	85.22561
854.326	40.10144
854.728	87.22729
855.13	118.30885
855.531	167.40495
855.933	64.154
856.334	66.16778
856.736	95.21836
857.137	97.2283
857.538	121.30885
857.939	105.26499
858.34	72.17777
858.741	71.18713
859.142	52.12782
859.542	106.28233
859.943	46.11624
860.343	62.15644
860.744	68.16783
861.144	59.14457
861.544	73.18087
861.945	130.33584
862.345	40.09945
862.745	121.30624
863.145	81.19509
863.544	20.05154
863.944	41.09815
864.344	60.15091
864.743	72.17927
865.143	65.16929
865.542	70.16633
865.941	146.36483
866.34	59.14345
866.74	55.14846
867.139	101.24767
867.537	86.22033
867.936	57.1405
868.335	55.14231
868.734	91.2379
869.132	95.22603
869.531	54.13107
869.929	57.13499
870.327	95.23227
870.726	57.14246
871.124	123.29164
871.522	57.14759
871.92	65.16357
872.318	61.15147
872.715	75.18528
873.113	66.16481
873.511	104.26467
873.908	64.16654
874.306	58.14828
874.703	42.10647
875.1	82.21089
875.497	75.1848
875.894	62.15661
876.291	42.10473
876.688	98.2579
877.085	41.09968
877.482	64.16201
877.878	47.11607
878.275	65.16842
878.671	69.15695
879.068	67.16418
879.464	61.14981
879.86	11.02672
880.256	51.1277
880.652	41.10627
881.048	77.19175
881.444	18.04339
881.84	24.06211
882.236	37.09438
882.631	64.16143
883.027	53.12939
883.422	30.07793
883.817	38.09929
884.213	65.16981
884.608	72.18083
885.003	57.14138
885.398	67.17246
885.793	56.14236
886.188	76.19423
886.582	38.09759
886.977	82.19776
887.371	-12.03071
887.766	12.03081
888.16	20.0509
888.554	24.05995
888.949	52.13173
889.343	33.08167
889.737	35.09601
890.131	4.01019
890.525	51.1321
890.918	33.08385
891.312	42.10095
891.706	-36.09541
892.099	16.04103
892.492	67.14894
892.886	-11.02755
893.279	33.0861
893.672	-8.02054
894.065	70.17669
894.458	107.27331
894.851	70.17334
895.244	13.03381
895.637	81.19878
896.029	21.05241
896.422	13.03241
896.814	41.10347
897.206	-20.04929
897.599	4.01003
897.991	4.00988
898.383	68.16579
898.775	50.11546
899.167	52.12531
899.559	60.15318
899.951	20.04827
900.342	-1.00258
900.734	49.12582
901.125	35.09309
901.517	35.08827
901.908	39.09482
902.299	67.16933
902.69	16.03902
903.082	50.12309
903.473	55.13577
903.863	61.15762
904.254	82.19566
904.645	49.1238
905.036	28.06989
905.426	63.14579
905.817	60.15037
906.207	21.05188
906.597	8.0191
906.987	58.15217
907.378	14.03586
907.768	32.086
908.158	24.05984
908.547	65.17074
908.937	13.03367
909.327	65.1614
909.717	34.08698
910.106	66.16074
910.495	60.15194
910.885	67.17264
911.274	32.08147
911.663	14.03586
912.052	6.01502
912.441	11.02836
912.83	87.20437
913.219	51.13437
913.608	49.12158
913.997	7.0181
914.385	56.13521
914.774	41.10158
915.162	53.12997
915.55	61.14942
915.939	22.05672
916.327	-8.0202
916.715	12.03122
917.103	45.11174
917.491	32.07982
917.878	-4.00994
918.266	-7.01832
918.654	71.18479
919.041	18.04814
919.429	22.05352
919.816	8.02057
920.203	36.0895
920.591	14.0353
920.978	1.00247
921.365	41.10912
921.752	74.18015
922.139	104.23172
922.525	64.15836
922.912	27.0669
923.299	29.07384
923.685	30.0798
924.072	12.02803
924.458	7.01776
924.844	67.16885
925.231	34.08138
925.617	43.1118
926.003	18.04674
926.389	29.07467
926.774	53.13619
927.16	62.15616
927.546	57.14901
927.931	68.17183
928.317	6.01411
928.702	6.01445
929.088	22.05384
929.473	13.03366
929.858	7.01755
930.243	18.04449
930.628	79.19738
931.013	19.04831
931.398	47.10954
931.783	28.07418
932.167	78.19534
932.552	-31.0791
932.937	46.11553
933.321	51.13055
933.705	23.05939
934.09	18.04579
934.474	56.1348
934.858	-15.03981
935.242	40.09548
935.626	35.09181
936.009	-33.08873
936.393	19.04913
936.777	19.04967
937.16	15.03948
937.544	11.0264
937.927	30.07817
938.311	51.12571
938.694	20.05332
939.077	41.10028
939.46	-9.02207
939.843	88.19013
940.226	20.05229
940.609	68.16244
940.991	24.06235
941.374	39.09751
941.757	-25.06298
942.139	91.21168
942.522	11.0264
942.904	37.09087
943.286	18.0462
943.668	43.11318
944.05	46.11557
944.432	33.08403
944.814	-17.04255
945.196	56.1408
945.578	86.21202
945.959	41.09852
946.341	18.04407
946.722	32.07662
947.104	52.12697
947.485	21.05023
947.866	63.16358
948.247	6.01534
948.628	40.09825
949.009	27.07085
949.39	29.07324
949.771	38.09064
950.152	101.25179
950.532	24.06119
950.913	52.12759
951.293	33.09067
951.674	120.29823
952.054	78.19822
952.434	5.01266
952.814	81.19546
953.194	30.079
953.574	2.00498
953.954	37.08996
954.334	48.12194
954.714	61.15207
955.093	1.0025
955.473	-5.01277
955.853	15.03935
956.232	8.02201
956.611	51.12409
956.99	48.12358
957.37	58.1501
957.749	54.13195
958.128	62.15979
958.506	82.21718
958.885	65.16696
959.264	52.1321
959.643	46.10656
960.021	72.18187
960.4	35.08203
960.778	39.09758
961.156	18.04642
961.535	69.16297
961.913	66.15736
962.291	42.11135
962.669	-26.06726
963.047	14.03622
963.424	-6.01562
963.802	54.13577
964.18	74.18819
964.557	81.18953
964.935	64.15417
965.312	20.05276
965.69	34.08576
966.067	25.06248
966.444	-32.0806
966.821	13.03396
967.198	31.07636
967.575	24.05926
967.952	33.07924
968.329	77.19015
968.705	63.13719
969.082	72.18775
969.458	14.03504
969.835	37.0915
970.211	56.14682
970.587	21.05319
970.963	11.02863
971.339	8.02132
971.715	59.14895
972.091	37.09284
972.467	44.11154
972.843	8.02035
973.219	46.11073
973.594	57.1526
973.97	87.20811
974.345	43.10552
974.721	40.09716
975.096	9.02231
975.471	72.17345
975.846	66.16032
976.221	9.02363
976.596	43.10595
976.971	71.17694
977.346	4.0095
977.72	50.12958
978.095	62.16244
978.469	54.13043
978.844	16.04056
979.218	-13.03206
979.593	40.09731
979.967	65.16034
980.341	-2.00473
980.715	67.17144
981.089	6.01518
981.463	36.08633
981.837	23.05784
982.21	53.12489
982.584	8.01988
982.957	64.1631
983.331	63.15174
983.704	-16.03972
984.078	56.1409
984.451	33.08242
984.824	50.12458
985.197	7.01736
985.57	69.17476
985.943	47.11649
986.316	66.16355
986.688	54.13156
987.061	59.14216
987.434	63.16576
987.806	93.22805
988.179	62.15015
988.551	78.20018
988.923	43.10763
989.295	39.09695
989.667	35.08653
990.039	44.11166
990.411	25.05907
990.783	55.12874
991.155	44.11011
991.527	46.11366
991.898	67.17
992.27	35.08789
992.641	51.12889
993.012	72.17174
993.384	17.04124
993.755	34.08875
994.126	11.02701
994.497	-2.00506
994.868	49.11573
995.239	11.02715
995.61	10.02588
995.98	79.19638
996.351	38.09588
996.722	36.08699
997.092	29.07075
997.462	27.0654
997.833	0
998.203	31.07608
998.573	5.0127
998.943	53.12775
999.313	48.11808
999.683	74.18257
1000.053	46.10884
1000.423	-6.01484
1000.792	40.10587
1001.162	23.05749
1001.531	23.05798
1001.901	34.08744
1002.27	15.03459
1002.639	22.05756
1003.009	13.0315
1003.378	-20.05197
1003.747	84.20319
1004.116	10.02467
1004.485	23.05579
1004.853	32.08233
1005.222	25.06363
1005.591	26.06294
1005.959	31.07296
1006.328	-1.00234
1006.696	61.15125
1007.064	32.08152
1007.433	65.16363
1007.801	12.02977
1008.169	20.05088
1008.537	60.13623
1008.905	34.08181
1009.273	-10.02505
1009.64	56.13796
1010.008	58.14141
1010.375	-46.1119
1010.743	70.16293
1011.11	15.03669
1011.478	40.10017
1011.845	58.13829
1012.212	27.06338
1012.579	18.04482
1012.946	44.10632
1013.313	15.03624
1013.68	32.07348
1014.047	79.19265
1014.414	11.02687
1014.78	4.01011
1015.147	32.07782
1015.513	46.11316
1015.88	4.0103
1016.246	31.07644
1016.612	59.13583
1016.978	75.18589
1017.344	99.24797
1017.71	31.07571
1018.076	25.05996
1018.442	19.0492
1018.808	52.1321
1019.174	63.16081
1019.539	20.04615
1019.905	22.0532
1020.27	22.05583
1020.636	57.13858
1021.001	51.12358
1021.366	-3.00743
1021.731	-3.00777
1022.096	28.07224
1022.461	-1.00243
1022.826	4.00974
1023.191	20.05309
1023.556	21.05079
1023.92	-15.03753
1024.285	84.20686
1024.649	44.10983
1025.014	31.07826
1025.378	35.08968
1025.742	62.15661
1026.107	-23.05356
1026.471	27.06343
1026.835	55.13935
1027.199	64.1601
1027.562	48.11379
1027.926	78.19187
1028.29	61.15756
1028.654	61.14313
1029.017	24.05952
1029.381	17.04172
1029.744	-28.07274
1030.107	32.07694
1030.471	-2.00486
1030.834	28.06496
1031.197	30.07265
1031.56	43.1029
1031.923	35.09159
1032.286	28.06691
1032.648	87.21184
1033.011	28.06548
1033.374	-4.00955
1033.736	6.01612
1034.099	68.16919
1034.461	-28.07229
1034.823	-13.03309
1035.185	66.16778
1035.548	62.15398
1035.91	18.04415
1036.272	6.0139
1036.634	11.02717
1036.995	44.10644
1037.357	34.0845
1037.719	18.04413
1038.08	42.10095
1038.442	46.11081
1038.803	64.15505
1039.165	4.01042
1039.526	43.10556
1039.887	43.10517
1040.248	29.07274
1040.609	-23.05757
1040.97	54.13475
1041.331	19.04892
1041.692	97.23389
1042.053	57.13275
1042.413	39.09283
1042.774	32.07892
1043.134	72.17404
1043.495	8.02037
1043.855	44.1084
1044.215	26.0661
1044.576	29.07198
1044.936	51.11896
1045.296	63.15865
1045.656	38.09399
1046.016	29.07075
1046.375	10.02463
1046.735	4.00941
1047.095	16.03834
1047.454	91.19539
1047.814	29.07111
1048.173	-31.07432
1048.533	-21.04966
1048.892	17.0423
1049.251	41.10443
1049.61	1.00252
1049.969	53.1291
1050.328	15.03354
1050.687	-2.00497
1051.046	25.06137
1051.405	78.19759
1051.763	58.13664
1052.122	22.05597
1052.48	-26.06469
1052.839	22.05302
1053.197	53.1277
1053.555	-31.07083
1053.914	7.01727
1054.272	5.01218
1054.63	49.12291
1054.988	18.04402
1055.345	18.04007
1055.703	31.07571
1056.061	-4.01047
1056.419	36.09435
1056.776	-17.04177
1057.134	0
1057.491	4.01017
1057.848	1.00251
1058.206	69.16499
1058.563	-2.00455
1058.92	16.03727
1059.277	26.06495
1059.634	46.10964
1059.991	40.09756
1060.348	8.01878
1060.704	2.00492
1061.061	31.07293
1061.418	-6.01486
1061.774	-20.05079
1062.131	4.01083
1062.487	12.02885
1062.843	13.03279
1063.199	70.17713
1063.555	53.12649
1063.911	-25.06402
1064.267	24.05121
1064.623	3.00749
1064.979	56.13388
1065.335	9.0218
1065.691	24.05836
1066.046	-17.0377
1066.402	80.18708
1066.757	13.03319
1067.112	12.02978
1067.468	46.11399
1067.823	47.11547
1068.178	-5.01229
1068.533	37.0914
1068.888	41.09905
1069.243	23.05771
1069.598	54.13338
1069.952	20.04684
1070.307	25.06399
1070.662	-11.02674
1071.016	17.03931
1071.371	28.06499
1071.725	39.0945
1072.079	-2.00489
1072.434	42.10442
1072.788	42.10232
1073.142	39.09783
1073.496	23.05567
1073.85	16.03759
1074.203	83.20654
1074.557	53.14236
1074.911	13.03129
1075.265	27.06407
1075.618	21.05169
1075.971	43.10392
1076.325	28.07251
1076.678	34.08072
1077.031	34.07942
1077.385	77.1743
1077.738	18.04199
1078.091	17.04009
1078.444	33.07821
1078.796	11.02737
1079.149	24.06036
1079.502	56.1371
1079.855	34.08166
1080.207	30.07505
1080.56	-34.08993
1080.912	-16.03969
1081.264	48.11747
1081.617	70.17486
1081.969	39.10091
1082.321	5.01241
1082.673	49.11573
1083.025	25.0609
1083.377	57.12592
1083.728	-14.03333
1084.08	12.03044
1084.432	42.10347
1084.783	59.13968
1085.135	52.13219
1085.486	30.07156
1085.838	10.02524
1086.189	-19.04709
1086.54	2.00487
1086.891	40.10334
1087.242	-3.00741
1087.593	63.15449
1087.944	-17.03939
1088.295	54.12489
1088.646	18.0449
1088.996	24.05891
1089.347	3.00753
1089.698	16.03895
1090.048	-37.09696
1090.398	7.01651
1090.749	68.16505
1091.099	46.11991
1091.449	19.04814
1091.799	69.17482
1092.149	60.15178
1092.499	34.08413
1092.849	45.11664
1093.199	21.05292
1093.548	51.12539
1093.898	22.05613
1094.248	14.03637
1094.597	33.08706
1094.947	-17.04604
1095.296	13.03259
1095.645	29.07623
1095.994	-11.02693
1096.343	30.07651
1096.692	83.2252
1097.041	-45.12371
1097.39	61.15642
1097.739	38.0998
1098.088	72.19375
1098.437	-12.03233
1098.785	3.00812
1099.134	16.04282
1099.482	33.09167
1099.83	11.02907
1100.179	45.12012
1100.527	36.09614
1100.875	40.1069
1101.223	17.04562
1101.571	9.0252
1101.919	29.07797
1102.267	31.08777
1102.615	2.00645
1102.962	2.00644
1103.31	5.01611
1103.658	18.05802
