Data from N2 R0 105C sample2_Subt2__6__11-49-17-668.txt Node

Date: Tue Aug 19 11:49:17 PDT 2025
User: uwsun
Spectrometer: HDX01956
Trigger mode: 0
Integration Time (sec): 5.000000E-1
Scans to average: 1
Nonlinearity correction enabled: true
Boxcar width: 0
Storing dark spectrum: false
XAxis mode: Wavelengths
Number of Pixels in Spectrum: 2068
>>>>>Begin Spectral Data<<<<<
194.03	585.56786
194.578	561.70509
195.127	578.72701
195.676	599.79194
196.225	615.54175
196.773	691.78236
197.321	1020.49782
197.87	1302.81214
198.418	1336.82456
198.966	1365.95248
199.513	1283.6591
200.061	1310.77558
200.609	1338.91913
201.156	1258.26341
201.704	1316.77025
202.251	1311.92295
202.798	1336.88066
203.345	1327.69936
203.892	1314.73841
204.438	1345.62525
204.985	1375.68769
205.532	1379.98526
206.078	1435.83403
206.624	1393.79298
207.17	1350.55044
207.716	1376.72551
208.262	1289.0367
208.808	1353.77951
209.354	1348.7008
209.899	1366.78938
210.445	1371.81275
210.99	1385.73767
211.535	1346.60073
212.08	1450.71742
212.625	1380.82934
213.17	1401.87818
213.715	1334.48964
214.259	1386.60472
214.804	1350.70234
215.348	1338.47023
215.892	1363.64674
216.436	1382.57698
216.98	1351.43697
217.524	1331.57107
218.068	1382.87259
218.612	1363.80381
219.155	1299.5115
219.698	1282.52729
220.242	1331.71846
220.785	1211.35655
221.328	1202.50817
221.871	1219.56767
222.414	1226.55492
222.956	1256.55651
223.499	1192.24681
224.041	1259.42131
224.583	1179.08358
225.126	1164.15122
225.668	1196.43425
226.21	1168.49175
226.751	1170.16985
227.293	1212.33571
227.835	1205.49291
228.376	1189.28747
228.918	1212.57566
229.459	1181.49732
230	1202.38695
230.541	1303.50017
231.082	1094.24145
231.622	1229.33533
232.163	1202.45089
232.704	1224.52384
233.244	1198.49763
233.784	1198.457
234.324	1204.25074
234.864	1177.24166
235.404	1196.37611
235.944	1187.35112
236.484	1155.41373
237.023	1230.43926
237.563	1205.32275
238.102	1210.35293
238.641	1264.6596
239.18	1258.45339
239.719	1262.62652
240.258	1236.30056
240.797	1277.53789
241.335	1233.51812
241.874	1308.04749
242.412	1277.56129
242.95	1271.51896
243.488	1262.38953
244.026	1263.38738
244.564	1279.13421
245.102	1271.33974
245.64	1283.51693
246.177	1260.33729
246.715	1297.55989
247.252	1260.38573
247.789	1288.9405
248.326	1269.55103
248.863	1313.36336
249.4	1288.39765
249.936	1330.17343
250.473	1298.49709
251.009	1342.52179
251.546	1317.35256
252.082	1308.32509
252.618	1279.32062
253.154	1294.58417
253.69	1291.35427
254.226	1307.54735
254.761	1320.45137
255.297	1242.22317
255.832	1270.45822
256.367	1379.62996
256.903	1385.38256
257.438	1365.57325
257.972	1350.44193
258.507	1319.49112
259.042	1389.4261
259.576	1360.38448
260.111	1365.53334
260.645	1359.31537
261.179	1341.5291
261.713	1396.50129
262.247	1336.51659
262.781	1292.21296
263.315	1404.78491
263.849	1399.84211
264.382	1421.57282
264.915	1428.70214
265.449	1465.90541
265.982	1452.62191
266.515	1318.60804
267.048	1385.37124
267.58	1417.45078
268.113	1377.38374
268.646	1379.76866
269.178	1378.47519
269.71	1446.49006
270.243	1428.56798
270.775	1417.88
271.307	1430.72813
271.838	1402.61439
272.37	1458.84158
272.902	1468.61084
273.433	1369.35489
273.965	1368.69463
274.496	1419.78553
275.027	1477.89419
275.558	1468.81555
276.089	1446.8657
276.62	1494.99776
277.15	1425.76087
277.681	1452.48332
278.211	1378.64254
278.741	1434.50575
279.272	1413.55828
279.802	1460.87215
280.332	1467.72463
280.861	1483.80854
281.391	1405.53221
281.921	1504.83402
282.45	1523.98309
282.98	1560.17447
283.509	1529.62483
284.038	1503.66315
284.567	1545.73374
285.096	1531.88854
285.625	1560.73706
286.153	1457.66747
286.682	1555.73177
287.21	1611.96669
287.739	1597.90453
288.267	1532.88554
288.795	1574.15571
289.323	1617.9161
289.851	1650.93326
290.378	1619.74522
290.906	1667.05704
291.433	1544.96589
291.961	1615.75591
292.488	1615.05075
293.015	1558.85384
293.542	1594.13494
294.069	1631.01885
294.596	1634.04298
295.122	1588.89747
295.649	1582.6199
296.175	1730.14886
296.702	1671.02199
297.228	1695.05028
297.754	1801.96729
298.28	1682.8445
298.806	1714.05132
299.332	1743.83015
299.857	1815.92228
300.383	1754.27219
300.908	1712.10352
301.433	1742.09045
301.958	1718.88109
302.483	1769.25785
303.008	1789.22691
303.533	1799.40618
304.058	1804.07435
304.582	1823.11439
305.107	1821.51556
305.631	1778.89154
306.155	1923.14382
306.679	1787.98896
307.203	1888.09861
307.727	1829.10499
308.251	1861.29379
308.775	1953.25456
309.298	1915.29363
309.822	1970.49612
310.345	2012.30817
310.868	1946.23668
311.391	2043.42268
311.914	1955.45788
312.437	1957.07276
312.96	2019.23437
313.482	1985.22516
314.005	2076.56486
314.527	2064.76798
315.049	2092.5384
315.571	2065.11892
316.093	2224.61817
316.615	2177.47785
317.137	2193.03052
317.659	2206.53762
318.18	2262.4415
318.702	2234.28241
319.223	2272.92504
319.744	2292.21999
320.265	2262.54103
320.786	2331.69731
321.307	2339.69581
321.828	2402.32521
322.348	2430.51664
322.869	2484.59492
323.389	2142.76603
323.909	2468.35382
324.43	2455.53363
324.95	2574.40658
325.47	2547.6966
325.989	2617.54961
326.509	2644.26854
327.029	2692.31979
327.548	2680.33568
328.067	2748.75713
328.587	2763.84565
329.106	2651.28322
329.625	2760.1098
330.144	2865.53033
330.662	2822.42125
331.181	2887.54231
331.7	2932.59256
332.218	3001.2104
332.736	2990.572
333.255	3075.51878
333.773	3107.58129
334.291	3126.85238
334.808	3087.36846
335.326	3190.38068
335.844	3333.54272
336.361	3262.02486
336.879	3347.60722
337.396	3454.66638
337.913	3498.37491
338.43	3484.28148
338.947	3555.514
339.464	3570.00303
339.981	3579.54963
340.497	3578.7057
341.014	3583.7298
341.53	3620.14575
342.046	3699.65902
342.562	3845.78119
343.078	3849.40882
343.594	3840.46362
344.11	3954.34914
344.626	3936.79609
345.141	3996.0729
345.657	4026.99648
346.172	4002.45264
346.687	4047.18591
347.202	4194.94071
347.717	4291.27777
348.232	4271.56307
348.747	4272.05781
349.261	4284.78581
349.776	4366.11787
350.29	4440.46758
350.805	4544.45259
351.319	4623.96694
351.833	4425.79646
352.347	4692.89267
352.861	4664.8388
353.374	4604.74954
353.888	4664.10384
354.401	4667.78617
354.915	4847.55977
355.428	4898.13281
355.941	4930.74675
356.454	4905.45003
356.967	4871.75897
357.48	4894.5747
357.993	4971.01344
358.505	5045.89006
359.018	5171.84024
359.53	5280.75089
360.042	5243.17874
360.554	5304.65443
361.066	5147.86006
361.578	5294.01074
362.09	5252.54957
362.602	5326.08779
363.113	5559.33291
363.625	5553.10218
364.136	5579.93235
364.647	5696.33477
365.158	5773.11959
365.669	5826.2782
366.18	5787.18827
366.691	5812.83139
367.201	5759.33953
367.712	5973.96738
368.222	5980.95901
368.733	6141.73509
369.243	6326.6933
369.753	6263.99386
370.263	6415.08991
370.773	6378.14486
371.282	6491.96215
371.792	6860.89272
372.301	6940.0226
372.811	6918.37929
373.32	6992.41455
373.829	7181.89797
374.338	7574.73001
374.847	7742.98902
375.356	7984.23171
375.865	8278.20924
376.373	8577.73403
376.882	8862.34835
377.39	8924.35467
377.898	9251.97672
378.407	9681.96162
378.915	9999.96504
379.423	10582.75614
379.93	10686.33121
380.438	11273.49992
380.946	11828.46356
381.453	12277.96906
381.96	12916.25954
382.468	14061.12544
382.975	14771.48021
383.482	14942.56029
383.989	14950.50302
384.495	15758.58491
385.002	16675.66873
385.509	17538.9666
386.015	18674.1595
386.521	19671.06663
387.028	20320.00479
387.534	21082.02787
388.04	21879.92228
388.546	22048.86237
389.051	23321.34671
389.557	25170.56556
390.063	26883.35323
390.568	27618.99085
391.073	28918.49903
391.578	29889.86763
392.084	30783.94629
392.589	31755.2604
393.093	34387.70752
393.598	37467.24305
394.103	40800.15006
394.607	44592.63392
395.112	47338.14562
395.616	50525.41741
396.12	54817.06934
396.624	59986.89529
397.128	61478.90515
397.632	61857.86606
398.136	61948.4768
398.639	61850.40973
399.143	61679.31033
399.646	61269.15804
400.15	60904.11498
400.653	60560.14334
401.156	60136.25446
401.659	59550.50961
402.162	58431.12733
402.664	54480.21957
403.167	49329.08451
403.67	22278.45323
404.172	2696.20453
404.674	0
405.176	0
405.678	0
406.18	0
406.682	0
407.184	0
407.686	25783.58453
408.187	43316.52985
408.688	51225.60928
409.19	54389.01922
409.691	56215.4214
410.192	57270.57019
410.693	57845.40442
411.194	58219.2365
411.694	58633.01717
412.195	59215.68848
412.696	59364.60701
413.196	59341.61941
413.696	59632.46864
414.196	59367.6054
414.696	59763.40624
415.196	59913.34014
415.696	60584.13941
416.196	61381.18813
416.695	61808.38326
417.195	62018.52935
417.694	61837.40139
418.194	62001.51623
418.693	62262.74355
419.192	62388.8736
419.691	62414.90212
420.19	62457.95056
420.688	62499.99943
421.187	61888.41824
421.685	58389.78131
422.184	52566.63933
422.682	45324.5469
423.18	38411.93832
423.678	34734.51633
424.176	32217.89974
424.674	30443.49192
425.172	28904.48268
425.669	27029.75024
426.167	25172.0695
426.664	22919.06332
427.161	21280.18499
427.659	19572.42709
428.156	18324.58647
428.652	17304.84533
429.149	16716.69071
429.646	15912.20733
430.143	14956.77458
430.639	14268.37993
431.135	13455.77995
431.632	12780.80466
432.128	12027.57866
432.624	11378.81321
433.12	10940.44274
433.616	10648.35054
434.111	10379.06663
434.607	10003.82031
435.103	9723.19587
435.598	9339.14688
436.093	9049.51909
436.588	8428.42381
437.083	8222.20478
437.578	7802.92651
438.073	7482.15359
438.568	7169.91668
439.062	7064.34903
439.557	6786.74122
440.051	6578.53906
440.546	6366.64042
441.04	6349.00402
441.534	6176.4369
442.028	6033.0338
442.522	5838.16483
443.015	5871.61825
443.509	5725.37099
444.002	5518.4921
444.496	5402.90853
444.989	5385.48523
445.482	5474.61914
445.975	5428.17227
446.468	5298.82597
446.961	5358.86138
447.454	5051.21003
447.947	5057.62315
448.439	4871.67751
448.931	4943.39029
449.424	4815.03596
449.916	4871.86244
450.408	4700.48424
450.9	4595.04641
451.392	4580.2444
451.884	4394.72544
452.375	4491.32152
452.867	4396.62324
453.358	4346.76235
453.849	4227.41394
454.341	4188.77985
454.832	4239.50227
455.323	4222.25961
455.814	4146.93793
456.304	4085.94095
456.795	4011.97761
457.285	3919.75044
457.776	3965.88535
458.266	3829.25953
458.756	3820.25437
459.247	3821.31908
459.737	3724.39716
460.226	3668.04559
460.716	3600.45021
461.206	3562.44905
461.695	3441.63594
462.185	3424.2797
462.674	3489.27755
463.163	3354.96794
463.653	3323.84881
464.142	3226.54434
464.63	3256.64087
465.119	3111.28713
465.608	3108.35224
466.096	3016.01431
466.585	3070.29498
467.073	2931.44942
467.561	3040.49155
468.05	2948.33905
468.538	2979.62561
469.026	2894.49736
469.513	2800.27676
470.001	2796.19792
470.489	2791.48275
470.976	2789.33124
471.463	2598.62857
471.951	2498.59199
472.438	2423.29992
472.925	2501.30076
473.412	2380.44228
473.899	2357.13812
474.385	2362.45666
474.872	2371.3435
475.359	2344.49512
475.845	2216.76333
476.331	2147.77086
476.817	2125.29753
477.303	2126.12774
477.789	2018.20673
478.275	1990.29645
478.761	1997.22177
479.247	2038.99449
479.732	1871.25601
480.218	1872.41216
480.703	1937.29183
481.188	1882.69494
481.673	1805.87693
482.158	1790.6797
482.643	1785.18256
483.128	1794.86482
483.612	1740.87915
484.097	1619.87419
484.581	1616.72186
485.066	1642.95172
485.55	1583.5752
486.034	1525.41558
486.518	1570.78319
487.002	1552.92191
487.486	1541.8401
487.969	1477.80118
488.453	1455.80185
488.936	1454.53956
489.42	1407.37337
489.903	1429.77516
490.386	1332.65191
490.869	1338.26907
491.352	1366.61447
491.835	1317.13597
492.318	1401.53263
492.8	1341.19092
493.283	1357.77781
493.765	1282.559
494.247	1263.36541
494.73	1268.25138
495.212	1168.32253
495.694	1187.28253
496.175	1180.34644
496.657	1189.31146
497.139	1156.64615
497.62	1133.25958
498.102	1165.40474
498.583	1117.3363
499.064	1133.15142
499.545	1077.08635
500.026	1064.03423
500.507	1069.11109
500.988	1083.29592
501.469	1071.30188
501.949	1020.17394
502.43	1030.11961
502.91	1020.83515
503.39	960.06795
503.87	1044.12831
504.35	1009.03041
504.83	1003.91185
505.31	976.04151
505.79	1058.18606
506.269	1046.10644
506.749	999.97502
507.228	996.04404
507.707	1023.95098
508.187	978.99784
508.666	1027.18934
509.145	1013.07014
509.623	993.00363
510.102	968.04877
510.581	1012.07693
511.059	1032.23644
511.538	991.21058
512.016	1064.20238
512.494	1038.17042
512.972	1031.10603
513.45	1047.1099
513.928	1101.30381
514.406	1052.21807
514.884	1086.39328
515.361	1118.28248
515.839	1115.16321
516.316	1157.34894
516.793	1057.2921
517.27	1060.16683
517.747	1102.41444
518.224	1089.16367
518.701	1137.17051
519.178	1067.24924
519.654	1073.16732
520.131	1071.25375
520.607	1048.22021
521.083	1064.08604
521.56	1048.15766
522.036	1102.05954
522.512	1034.1573
522.987	987.05866
523.463	1076.21045
523.939	996.1209
524.414	1012.01645
524.89	971.01363
525.365	1021.01893
525.84	964.04914
526.315	1013.13436
526.79	976.93174
527.265	968.97027
527.74	882.91526
528.215	929.95541
528.689	887.76643
529.164	878.69709
529.638	921.1065
530.112	893.8985
530.587	872.68548
531.061	862.87578
531.534	855.83813
532.008	795.75221
532.482	743.54311
532.956	778.80558
533.429	797.75369
533.903	747.51075
534.376	800.60516
534.849	792.68038
535.322	820.75568
535.795	789.75275
536.268	766.67172
536.741	766.67665
537.213	811.69943
537.686	742.67586
538.158	786.60532
538.631	806.75906
539.103	781.62211
539.575	711.36237
540.047	793.58634
540.519	850.83481
540.991	813.79339
541.463	786.73706
541.934	831.72605
542.406	840.81785
542.877	842.74077
543.348	812.78111
543.82	825.8085
544.291	798.6843
544.762	821.75745
545.233	884.98367
545.703	900.78281
546.174	903.87405
546.645	899.93524
547.115	992.10964
547.585	967.94731
548.056	1032.19764
548.526	1117.26967
548.996	1092.22732
549.466	1111.28602
549.935	1160.32363
550.405	1163.13925
550.875	1259.44669
551.344	1230.46182
551.814	1234.36238
552.283	1213.13949
552.752	1346.54533
553.221	1392.47127
553.69	1393.42932
554.159	1407.79408
554.628	1428.53548
555.096	1484.00206
555.565	1441.55015
556.033	1431.65102
556.502	1403.71175
556.97	1365.41629
557.438	1415.65227
557.906	1428.67085
558.374	1408.56524
558.842	1427.68526
559.31	1408.49981
559.777	1431.73331
560.245	1539.7972
560.712	1574.80604
561.18	1628.75986
561.647	1653.75558
562.114	1693.86248
562.581	1739.1488
563.048	1755.94919
563.514	1804.22072
563.981	1853.9858
564.448	1942.01522
564.914	1981.17973
565.381	2017.09864
565.847	2146.32595
566.313	2191.33035
566.779	2171.10138
567.245	2246.38509
567.711	2267.51605
568.176	2407.28982
568.642	2363.78024
569.108	2523.76799
569.573	2647.64172
570.038	2655.11974
570.504	2636.29361
570.969	2867.03543
571.434	2882.38652
571.899	2914.73682
572.363	2936.4642
572.828	3113.45483
573.293	3093.51343
573.757	3127.45917
574.222	3225.44881
574.686	3212.5042
575.15	3229.7187
575.614	3301.49435
576.078	3314.68566
576.542	3227.46149
577.006	3284.40266
577.469	3290.91164
577.933	3319.48135
578.396	3254.63841
578.86	3252.65692
579.323	3309.80611
579.786	3166.19392
580.249	3184.57839
580.712	3074.84992
581.175	3042.91348
581.637	2987.42951
582.1	2954.31262
582.563	2913.1362
583.025	2841.79967
583.487	2862.9414
583.95	2805.2772
584.412	2790.09891
584.874	2704.69907
585.336	2578.58635
585.797	2553.16226
586.259	2552.55329
586.721	2451.49374
587.182	2407.40205
587.643	2367.30695
588.105	2383.53494
588.566	2255.90915
589.027	2186.51085
589.488	2207.2602
589.949	2136.45588
590.41	2074.62479
590.87	2046.09602
591.331	2001.87313
591.791	2037.25637
592.252	1916.11598
592.712	1922.23076
593.172	1889.03864
593.632	1970.9867
594.092	1815.91903
594.552	1799.78856
595.011	1799.00187
595.471	1764.82428
595.931	1715.80427
596.39	1726.11029
596.849	1709.96996
597.308	1714.73418
597.768	1721.32668
598.227	1661.96722
598.685	1615.75445
599.144	1623.87839
599.603	1678.0066
600.062	1664.64168
600.52	1610.7364
600.978	1614.89089
601.437	1624.77064
601.895	1636.57772
602.353	1606.67445
602.811	1713.85489
603.269	1634.99511
603.727	1636.01106
604.184	1687.87966
604.642	1681.11486
605.099	1658.88151
605.557	1736.14884
606.014	1794.84396
606.471	1742.27182
606.928	1868.91441
607.385	1932.42124
607.842	2032.11937
608.299	2022.26174
608.755	1916.29278
609.212	1963.99069
609.668	1976.05479
610.125	2026.37126
610.581	2054.28302
611.037	2028.13108
611.493	1869.13493
611.949	1988.46046
612.405	1870.59863
612.861	1913.15637
613.316	1881.22112
613.772	1893.10437
614.227	1914.23263
614.683	1933.83829
615.138	1859.11799
615.593	1928.15467
616.048	1849.9859
616.503	1895.30153
616.958	1908.45579
617.412	1889.17051
617.867	1829.89602
618.321	1935.74424
618.776	1866.93286
619.23	1816.06558
619.684	1773.9064
620.138	1788.98984
620.592	1740.14669
621.046	1746.98349
621.5	1746.18446
621.954	1724.84934
622.407	1670.76233
622.861	1660.04189
623.314	1626.77701
623.768	1561.80898
624.221	1552.3413
624.674	1497.68785
625.127	1530.76059
625.58	1524.67079
626.033	1411.43266
626.485	1416.71558
626.938	1400.66052
627.39	1408.62947
627.843	1392.57916
628.295	1353.49864
628.747	1368.61956
629.199	1303.41672
629.651	1256.36779
630.103	1250.38736
630.555	1198.09925
631.006	1189.3311
631.458	1135.28441
631.909	1150.19486
632.361	1104.19911
632.812	1167.28574
633.263	1109.01725
633.714	1072.94467
634.165	1100.30727
634.616	990.07538
635.067	957.84077
635.518	976.03254
635.968	937.64121
636.419	925.77743
636.869	909.9066
637.319	907.86231
637.769	920.84028
638.219	855.79563
638.669	818.76796
639.119	911.98703
639.569	839.8153
640.019	816.69299
640.468	866.72417
640.918	837.79249
641.367	784.6005
641.816	818.66772
642.265	757.59734
642.714	742.56874
643.163	833.7517
643.612	795.78212
644.061	790.56393
644.51	798.69606
644.958	739.50001
645.406	756.66517
645.855	725.64443
646.303	750.60157
646.751	776.63854
647.199	732.53341
647.647	751.58882
648.095	747.60032
648.543	744.40821
648.99	767.65944
649.438	788.68713
649.885	773.75051
650.333	734.3304
650.78	762.71127
651.227	776.75552
651.674	737.54015
652.121	748.66403
652.568	786.75365
653.015	765.75059
653.461	727.59758
653.908	764.63641
654.354	718.56954
654.801	739.60358
655.247	761.54121
655.693	712.72492
656.139	753.66513
656.585	753.64506
657.031	691.51651
657.477	696.41487
657.922	717.54062
658.368	720.63803
658.813	708.50267
659.259	712.59109
659.704	700.50631
660.149	732.59343
660.594	750.64298
661.039	651.39387
661.484	716.5645
661.929	728.56729
662.373	698.65869
662.818	649.52239
663.262	711.58787
663.707	680.60104
664.151	651.4902
664.595	663.48364
665.039	667.55003
665.483	614.47628
665.927	677.47766
666.371	634.39334
666.814	682.51147
667.258	694.56167
667.701	678.35569
668.145	679.56862
668.588	601.385
669.031	663.48364
669.474	674.5123
669.917	653.34634
670.36	649.51825
670.803	654.45598
671.245	673.33169
671.688	639.44514
672.13	647.37276
672.573	633.48195
673.015	688.54437
673.457	622.28262
673.899	676.50624
674.341	656.48031
674.783	676.50562
675.225	657.49492
675.666	689.56715
676.108	672.35609
676.549	696.51756
676.991	729.50593
677.432	725.37519
677.873	724.53132
678.314	728.60413
678.755	703.5829
679.196	695.48049
679.637	712.58847
680.078	702.50221
680.518	761.60719
680.959	753.6679
681.399	733.68003
681.839	785.72944
682.28	728.65357
682.72	712.51576
683.16	706.60293
683.6	706.46846
684.039	719.37507
684.479	720.63275
684.919	788.6806
685.358	765.76178
685.798	769.83336
686.237	801.74925
686.676	779.61364
687.115	782.65627
687.554	766.64423
687.993	754.51136
688.432	819.686
688.871	846.73657
689.309	874.84723
689.748	815.49817
690.186	831.75668
690.625	832.73235
691.063	834.79872
691.501	846.8425
691.939	812.8087
692.377	861.85896
692.815	843.80612
693.253	866.84705
693.69	899.75059
694.128	881.90782
694.565	891.86472
695.003	881.97815
695.44	931.9202
695.877	925.92059
696.314	892.66504
696.751	873.7353
697.188	990.96313
697.625	967.89922
698.061	957.00655
698.498	954.98743
698.934	957.01271
699.371	977.00633
699.807	1014.04748
700.243	994.07465
700.679	974.90894
701.115	981.9692
701.551	984.99471
701.987	1044.00357
702.422	1032.1133
702.858	1009.0434
703.294	979.89847
703.729	1047.18686
704.164	1076.1976
704.599	1045.97571
705.035	1059.04557
705.47	1091.28887
705.904	1120.22178
706.339	1041.9959
706.774	1064.10951
707.209	1024.02723
707.643	1076.19464
708.078	1163.39741
708.512	1049.2661
708.946	1050.10197
709.38	1063.11973
709.814	1047.01175
710.248	1074.18957
710.682	1073.16732
711.116	1099.24414
711.549	1080.34052
711.983	1122.166
712.416	1074.13628
712.85	1132.3703
713.283	1125.2374
713.716	1080.26924
714.149	1065.1159
714.582	1096.0845
715.015	1048.19135
715.448	1089.30465
715.881	1036.88396
716.313	1061.10794
716.746	1042.10412
717.178	1063.15881
717.61	1025.18883
718.043	1004.12874
718.475	1035.11232
718.907	1050.24179
719.339	1021.99507
719.77	1067.15224
720.202	989.14454
720.634	1098.28393
721.065	1003.04506
721.497	1024.14205
721.928	989.10643
722.359	994.1066
722.79	1013.12227
723.221	983.11168
723.652	970.12331
724.083	1037.01727
724.514	981.94391
724.945	994.01525
725.375	998.03622
725.806	963.04923
726.236	972.13303
726.666	949.94774
727.096	984.08719
727.526	961.11988
727.956	931.83872
728.386	949.01417
728.816	915.02167
729.246	966.0605
729.675	965.07298
730.105	932.95701
730.534	929.88869
730.964	941.03777
731.393	936.98092
731.822	917.0412
732.251	922.02405
732.68	901.82756
733.109	939.99547
733.537	904.91483
733.966	975.11416
734.395	917.83977
734.823	868.69134
735.251	892.90253
735.68	981.10558
736.108	918.00769
736.536	914.86196
736.964	917.86005
737.392	912.98879
737.82	908.90074
738.247	891.85406
738.675	921.89617
739.102	869.92572
739.53	878.97423
739.957	873.98496
740.384	892.89186
740.811	898.97227
741.238	899.91954
741.665	882.78045
742.092	901.87405
742.519	883.92027
742.945	931.94163
743.372	905.96729
743.798	868.96684
744.225	899.86575
744.651	885.94331
745.077	853.87538
745.503	893.89604
745.929	872.83256
746.355	853.85736
746.781	842.8423
747.207	846.79191
747.632	868.89761
748.058	830.83662
748.483	845.72166
748.908	835.82966
749.334	877.89916
749.759	824.70201
750.184	819.74789
750.609	801.76176
751.033	818.70468
751.458	862.68837
751.883	792.74523
752.307	851.78096
752.732	834.87683
753.156	805.79199
753.58	845.77851
754.005	782.75692
754.429	806.69748
754.853	781.72995
755.277	738.55756
755.7	801.77574
756.124	757.69414
756.548	776.66571
756.971	739.60086
757.394	806.85805
757.818	717.66497
758.241	743.70092
758.664	761.73935
759.087	760.54304
759.51	744.65718
759.933	753.64506
760.356	706.63264
760.778	749.68309
761.201	717.57955
761.623	692.50883
762.046	692.49099
762.468	726.54091
762.89	693.54192
763.312	764.69193
763.734	672.47755
764.156	710.59053
764.578	685.44969
765	701.56038
765.421	595.40973
765.843	615.47953
766.264	677.48762
766.686	610.39767
767.107	620.38078
767.528	623.46307
767.949	619.45367
768.37	583.30927
768.791	672.4862
769.212	606.41952
769.632	584.27688
770.053	577.41418
770.473	583.31676
770.894	566.30504
771.314	556.21865
771.734	561.22885
772.154	557.31759
772.575	586.25102
772.994	550.17304
773.414	524.17588
773.834	560.30911
774.254	583.34348
774.673	556.25699
775.093	514.19816
775.512	480.11528
775.931	509.21225
776.351	489.14672
776.77	497.15143
777.189	510.14067
777.607	494.18973
778.026	440.05228
778.445	472.12938
778.864	462.11968
779.282	492.12248
779.701	453.07745
780.119	511.2444
780.537	423.01559
780.955	445.06163
781.373	396.9404
781.791	437.94347
782.209	432.94565
782.627	441.11861
783.045	392.88089
783.462	433.05968
783.88	351.88092
784.297	426.02649
784.715	381.9493
785.132	373.8829
785.549	376.91486
785.966	351.8558
786.383	351.8395
786.8	338.76766
787.217	385.88447
787.633	351.85421
788.05	362.82183
788.466	326.7305
788.883	276.69012
789.299	289.68306
789.715	308.73766
790.131	323.7902
790.547	272.66088
790.963	316.77035
791.379	322.79432
791.795	321.71264
792.21	293.66858
792.626	268.62275
793.041	266.65211
793.457	272.66508
793.872	240.55813
794.287	231.55169
794.702	210.5114
795.117	266.65549
795.532	245.61118
795.947	219.52164
796.362	262.61721
796.776	211.48304
797.191	226.5516
797.605	210.50394
798.02	177.43097
798.434	202.44371
798.848	241.59225
799.262	201.5027
799.676	199.47891
800.09	235.58199
800.504	197.47302
800.918	182.42777
801.331	129.33459
801.745	163.3772
802.158	190.47391
802.572	163.39183
802.985	179.42997
803.398	170.40625
803.811	128.3247
804.224	136.33602
804.637	112.27286
805.05	135.3134
805.462	184.44943
805.875	137.35778
806.288	147.36087
806.7	144.36412
807.112	114.26481
807.525	144.35579
807.937	115.2868
808.349	146.36641
808.761	154.38008
809.173	91.22348
809.584	167.40935
809.996	86.21514
810.408	151.39232
810.819	233.54858
811.231	284.73412
811.642	364.86543
812.053	432.0083
812.464	399.92359
812.875	220.55667
813.286	231.58876
813.697	198.4601
814.108	170.414
814.519	139.31104
814.929	135.3441
815.34	182.44769
815.75	147.37627
816.16	105.26328
816.571	70.18234
816.981	78.18647
817.391	116.28514
817.801	132.33497
818.211	41.09867
818.62	147.3602
819.03	124.30491
819.44	141.36571
819.849	96.24232
820.259	81.20712
820.668	113.28283
821.077	80.20395
821.486	90.21886
821.895	117.28786
822.304	105.27972
822.713	94.2273
823.122	98.24754
823.531	98.23804
823.939	68.16968
824.348	141.34665
824.756	82.20912
825.164	113.28406
825.573	116.29853
825.981	60.15091
826.389	111.28223
826.797	37.09361
827.205	91.21493
827.612	127.31695
828.02	98.23536
828.428	114.29359
828.835	76.20256
829.243	113.27514
829.65	54.13708
830.057	101.24951
830.464	60.1489
830.871	110.26569
831.278	66.1617
831.685	84.19227
832.092	128.31765
832.499	54.12136
832.905	42.10805
833.312	99.23038
833.718	57.14473
834.124	71.16489
834.531	51.13023
834.937	13.03357
835.343	109.26669
835.749	27.06375
836.155	39.10352
836.561	80.20107
836.966	72.17894
837.372	65.1679
837.777	79.20122
838.183	89.1999
838.588	41.10266
838.993	69.1702
839.399	55.13722
839.804	33.08245
840.209	78.20346
840.613	64.14643
841.018	52.13294
841.423	67.17366
841.828	96.24689
842.232	47.11785
842.637	94.22636
843.041	53.13922
843.445	49.12529
843.849	49.12318
844.253	99.23871
844.657	82.21052
845.061	75.17487
845.465	40.09912
845.869	57.13609
846.272	58.14494
846.676	6.01478
847.079	111.28741
847.483	69.17295
847.886	29.07082
848.289	32.08698
848.692	64.16437
849.095	83.20368
849.498	60.15205
849.901	33.07734
850.304	47.11547
850.707	35.09022
851.109	13.03323
851.512	72.18135
851.914	68.17726
852.316	39.09923
852.718	42.11101
853.121	78.19428
853.523	82.19783
853.925	69.18363
854.326	49.12406
854.728	93.24271
855.13	55.1455
855.531	95.23348
855.933	14.03401
856.334	49.12494
856.736	58.1343
857.137	58.13755
857.538	73.18791
857.939	81.2053
858.34	36.08947
858.741	50.13225
859.142	77.1884
859.542	91.24298
859.943	25.06341
860.343	14.03563
860.744	81.19944
861.144	42.10324
861.544	66.16373
861.945	90.23412
862.345	58.14373
862.745	79.20144
863.145	86.20693
863.544	41.10528
863.944	58.1384
864.344	50.12598
864.743	63.15712
865.143	80.20782
865.542	58.13813
865.941	95.23958
866.34	58.14104
866.74	47.12703
867.139	85.20905
867.537	76.19505
867.936	58.14294
868.335	52.13462
868.734	113.2943
869.132	79.18854
869.531	10.02447
869.929	91.2141
870.327	76.18647
870.726	26.06535
871.124	130.30782
871.522	66.17063
871.92	64.16109
872.318	51.12687
872.715	37.09204
873.113	66.16481
873.511	104.26467
873.908	88.22805
874.306	61.15587
874.703	85.21383
875.1	68.17531
875.497	108.26449
875.894	84.21135
876.291	46.11462
876.688	76.20075
877.085	49.11896
877.482	68.17201
877.878	107.26131
878.275	81.2093
878.671	95.21495
879.068	95.23158
879.464	56.13765
879.86	31.07503
880.256	95.23597
880.652	68.17543
881.048	64.15976
881.444	27.06498
881.84	68.17464
882.236	51.12977
882.631	110.27517
883.027	37.0906
883.422	43.11145
883.817	101.26106
884.213	52.13615
884.608	63.15848
885.003	94.23157
885.398	111.28353
885.793	66.16749
886.188	74.18919
886.582	75.19137
886.977	72.17397
887.371	-17.04355
887.766	24.06149
888.16	75.18901
888.554	37.09221
888.949	82.20661
889.343	77.18903
889.737	85.2313
890.131	45.11381
890.525	54.1398
890.918	6.01532
891.312	7.01694
891.706	31.08124
892.099	48.12241
892.492	37.08276
892.886	58.14347
893.279	57.1481
893.672	9.02304
894.065	38.09647
894.458	85.21796
894.851	75.18555
895.244	32.08296
895.637	41.10136
896.029	48.11921
896.422	76.1873
896.814	26.06579
897.206	56.13608
897.599	66.16361
897.991	26.06396
898.383	89.21614
898.775	71.16326
899.167	62.14913
899.559	44.11265
899.951	59.14135
900.342	21.05389
900.734	82.20934
901.125	75.19814
901.517	73.18285
901.908	53.12852
902.299	106.26603
902.69	67.16186
903.082	78.19102
903.473	77.18931
903.863	39.10116
904.254	62.14851
904.645	95.23804
905.036	47.11692
905.426	60.13893
905.817	47.11806
906.207	30.07399
906.597	20.04765
906.987	47.12354
907.378	20.05117
907.768	40.10736
908.158	54.13391
908.547	19.0503
908.937	22.0569
909.327	70.17366
909.717	46.11744
910.106	36.08817
910.495	56.14191
910.885	98.25116
911.274	41.10421
911.663	8.02051
912.052	48.11921
912.441	18.04636
912.83	65.15334
913.219	51.13437
913.608	34.08459
913.997	18.04645
914.385	55.13282
914.774	47.11632
915.162	60.14694
915.55	19.0469
915.939	23.05929
916.327	40.10014
916.715	45.1164
917.103	40.09941
917.491	55.13662
917.878	36.08879
918.266	2.00523
918.654	71.18479
919.041	34.09068
919.429	14.03411
919.816	43.10991
920.203	58.14362
920.591	1.00253
920.978	16.0394
921.365	32.08529
921.752	94.22798
922.139	89.19891
922.525	34.08459
922.912	11.02733
923.299	61.15444
923.685	36.09567
924.072	45.10443
924.458	70.17562
924.844	68.17134
925.231	66.157
925.617	39.10147
926.003	70.18015
926.389	43.11045
926.774	31.07996
927.16	56.1412
927.546	40.10487
927.931	74.18679
928.317	-8.01887
928.702	64.15242
929.088	44.10724
929.473	38.09797
929.858	11.02755
930.243	36.08869
930.628	61.1529
931.013	53.13395
931.398	52.12108
931.783	45.11888
932.167	88.21998
932.552	22.05561
932.937	53.13294
933.321	62.1584
933.705	49.12595
934.09	56.14151
934.474	20.04847
934.858	24.06329
935.242	55.13091
935.626	46.12044
936.009	4.01069
936.393	46.11839
936.777	19.04967
937.16	17.04473
937.544	47.11204
937.927	35.09113
938.311	49.12083
938.694	49.13002
939.077	45.10998
939.46	-22.05408
939.843	90.19437
940.226	50.13007
940.609	80.19067
940.991	34.08817
941.374	63.15683
941.757	35.08722
942.139	84.19566
942.522	21.05031
942.904	16.03945
943.286	38.09718
943.668	65.17045
944.05	54.13548
944.432	66.16707
944.814	23.05715
945.196	35.08833
945.578	68.1682
945.959	55.13182
946.341	29.07085
946.722	47.11221
947.104	60.14629
947.485	36.08587
947.866	80.20711
948.247	13.03319
948.628	-3.00743
949.009	63.16431
949.39	36.09081
949.771	61.14486
950.152	67.16806
950.532	14.03575
950.913	43.10568
951.293	23.06329
951.674	116.2885
952.054	84.21324
952.434	56.14055
952.814	38.09244
953.194	43.11299
953.574	0
953.954	108.25908
954.334	94.23685
954.714	34.08518
955.093	50.12386
955.473	-6.01532
955.853	30.0785
956.232	34.09316
956.611	22.05382
956.99	66.16939
957.37	43.11157
957.749	32.07851
958.128	89.22829
958.506	100.26405
958.885	63.16188
959.264	69.17476
959.643	45.10426
960.021	75.18935
960.4	27.06338
960.778	58.14462
961.156	57.14601
961.535	41.09736
961.913	87.2066
962.291	107.28058
962.669	20.05133
963.047	10.02589
963.424	6.01559
963.802	53.13328
964.18	80.20323
964.557	97.22626
964.935	38.09199
965.312	31.08162
965.69	12.03039
966.067	49.12194
966.444	64.15842
966.821	39.10144
967.198	58.14215
967.575	22.05434
967.952	82.19506
968.329	76.18771
968.705	37.08102
969.082	69.18002
969.458	63.15626
969.835	50.12336
970.211	56.14682
970.587	29.07335
970.963	24.06233
971.339	9.02398
971.715	42.10636
972.091	55.13756
972.467	57.14416
972.843	20.05077
973.219	31.07483
973.594	74.19756
973.97	73.17509
974.345	31.07624
974.721	75.18098
975.096	26.06424
975.471	39.09454
975.846	48.11699
976.221	52.13555
976.596	57.14009
976.971	40.10025
977.346	22.05209
977.72	51.13214
978.095	21.0554
978.469	58.13998
978.844	35.08843
979.218	24.05878
979.593	35.08522
979.967	17.0423
980.341	25.05886
980.715	74.18912
981.089	33.08308
981.463	75.17851
981.837	64.15976
982.21	79.18521
982.584	62.15252
982.957	55.14039
983.331	42.10156
983.704	-10.0248
984.078	80.20042
984.451	27.06751
984.824	18.04511
985.197	24.05932
985.57	84.21218
985.943	54.13367
986.316	70.17334
986.688	36.088
987.061	91.21793
987.434	55.14491
987.806	54.13338
988.179	53.12857
988.551	76.19512
988.923	40.10017
989.295	20.04989
989.667	41.10125
990.039	21.05351
990.411	81.18931
990.783	82.19093
991.155	63.15712
991.527	69.16977
991.898	74.18752
992.27	49.12273
992.641	34.08619
993.012	85.20224
993.384	6.01459
993.755	57.1482
994.126	18.04415
994.497	33.08299
994.868	60.14141
995.239	22.0542
995.61	28.07224
995.98	57.14226
996.351	27.06826
996.722	62.14907
997.092	42.10221
997.462	34.08225
997.833	33.07951
998.203	32.07851
998.573	11.02791
998.943	58.13967
999.313	46.1132
999.683	34.0845
1000.053	52.12289
1000.423	-14.03468
1000.792	66.17392
1001.162	39.09719
1001.531	67.16758
1001.901	111.28163
1002.27	44.10087
1002.639	57.14825
1003.009	39.09404
1003.378	17.0439
1003.747	28.06845
1004.116	54.13215
1004.485	15.03644
1004.853	72.18394
1005.222	-15.03845
1005.591	69.16568
1005.959	33.07764
1006.328	73.16806
1006.696	43.10697
1007.064	34.08659
1007.433	39.09864
1007.801	50.12318
1008.169	29.07366
1008.537	66.14967
1008.905	53.12707
1009.273	31.07709
1009.64	60.14771
1010.008	96.2324
1010.375	22.05284
1010.743	33.07737
1011.11	66.15989
1011.478	42.10514
1011.845	59.14065
1012.212	53.12377
1012.579	24.05969
1012.946	29.07027
1013.313	47.11286
1013.68	62.14151
1014.047	43.10556
1014.414	21.05121
1014.78	24.06043
1015.147	49.11878
1015.513	46.11316
1015.88	40.10237
1016.246	25.06171
1016.612	34.07867
1016.978	51.12696
1017.344	52.13135
1017.71	30.07328
1018.076	57.13588
1018.442	44.11344
1018.808	49.12455
1019.174	34.08723
1019.539	39.08964
1019.905	-17.04141
1020.27	14.03558
1020.636	56.13618
1021.001	27.06572
1021.366	31.07633
1021.731	3.00777
1022.096	21.05424
1022.461	40.09654
1022.826	33.0799
1023.191	7.01862
1023.556	61.14642
1023.92	54.13342
1024.285	70.17283
1024.649	19.04764
1025.014	45.11332
1025.378	58.14802
1025.742	41.10395
1026.107	55.12612
1026.471	40.09372
1026.835	55.13935
1027.199	70.17492
1027.562	42.09968
1027.926	37.09171
1028.29	89.22877
1028.654	27.06377
1029.017	15.03726
1029.381	20.04905
1029.744	7.01808
1030.107	41.09841
1030.471	5.01214
1030.834	67.15425
1031.197	55.13257
1031.56	33.07912
1031.923	23.06031
1032.286	25.05978
1032.648	76.18544
1033.011	15.03517
1033.374	36.08531
1033.736	35.09361
1034.099	49.12234
1034.461	25.06395
1034.823	7.01775
1035.185	81.20537
1035.548	47.11704
1035.91	52.12674
1036.272	-11.02557
1036.634	52.12749
1036.995	33.07999
1037.357	20.04983
1037.719	-1.00246
1038.08	12.02901
1038.442	35.08449
1038.803	34.08283
1039.165	62.1599
1039.526	40.09825
1039.887	-3.0074
1040.248	5.0126
1040.609	25.06203
1040.97	65.16187
1041.331	52.13313
1041.692	57.13848
1042.053	81.18775
1042.413	27.06441
1042.774	22.05436
1043.134	78.18833
1043.495	37.09371
1043.855	11.02726
1044.215	56.14161
1044.576	42.104
1044.936	69.16038
1045.296	51.12871
1045.656	17.04221
1046.016	16.03913
1046.375	15.03691
1046.735	49.1143
1047.095	16.03834
1047.454	13.02838
1047.814	65.15833
1048.173	15.03565
1048.533	43.10042
1048.892	16.03982
1049.251	40.1019
1049.61	-17.04293
1049.969	66.16038
1050.328	72.15909
1050.687	17.04214
1051.046	-5.01234
1051.405	85.21505
1051.763	8.01903
1052.122	33.08379
1052.48	-21.0522
1052.839	24.05782
1053.197	64.15388
1053.555	-6.01364
1053.914	8.01974
1054.272	29.07035
1054.63	64.1601
1054.988	46.1119
1055.345	38.08425
1055.703	58.14094
1056.061	30.07807
1056.419	32.08393
1056.776	6.01468
1057.134	56.13239
1057.491	2.00509
1057.848	-15.03783
1058.206	48.11524
1058.563	27.06107
1058.92	19.04423
1059.277	65.16122
1059.634	29.06934
1059.991	97.23407
1060.348	44.10257
1060.704	25.06128
1061.061	62.14499
1061.418	50.12259
1061.774	18.0454
1062.131	49.1317
1062.487	74.17583
1062.843	22.05539
1063.199	55.13955
1063.555	65.15477
1063.911	26.06598
1064.267	95.19958
1064.623	36.08931
1064.979	102.24171
1065.335	44.10587
1065.691	27.06562
1066.046	-42.09362
1066.402	82.19168
1066.757	26.06624
1067.112	13.03226
1067.468	96.23572
1067.823	79.19293
1068.178	72.1745
1068.533	62.15246
1068.888	38.09185
1069.243	34.08515
1069.598	71.17482
1069.952	35.08174
1070.307	62.15767
1070.662	43.10349
1071.016	17.03931
1071.371	14.03259
1071.725	25.06074
1072.079	51.12349
1072.434	13.03249
1072.788	75.1816
1073.142	90.22368
1073.496	8.01942
1073.85	25.05864
1074.203	104.25781
1074.557	33.08893
1074.911	63.15018
1075.265	68.16008
1075.618	85.20674
1075.971	34.08231
1076.325	45.1162
1076.678	6.01432
1077.031	67.15548
1077.385	66.14973
1077.738	64.14796
1078.091	6.01418
1078.444	35.08292
1078.796	-8.01998
1079.149	11.02773
1079.502	80.19498
1079.855	94.22318
1080.207	59.14682
1080.56	17.04458
1080.912	24.0591
1081.264	48.11747
1081.617	95.23623
1081.969	66.16998
1082.321	56.13765
1082.673	61.14374
1083.025	76.18336
1083.377	-136.31254
1083.728	63.14776
1084.08	31.07838
1084.432	53.1303
1084.783	40.09504
1085.135	63.15985
1085.486	46.10938
1085.838	77.19203
1086.189	40.09807
1086.54	54.13018
1086.891	50.12895
1087.242	-2.00494
1087.593	53.13021
1087.944	-3.00693
1088.295	77.17727
1088.646	55.13627
1088.996	-7.01728
1089.347	39.09726
1089.698	29.07043
1090.048	-9.02347
1090.398	18.04236
1090.749	49.11936
1091.099	67.17402
1091.449	31.07838
1091.799	48.12207
1092.149	33.08388
1092.499	2.00498
1092.849	34.08829
1093.199	34.08549
1093.548	30.07404
1093.898	68.17207
1094.248	-11.0287
1094.597	57.14978
1094.947	23.06188
1095.296	22.05506
1095.645	22.0579
1095.994	66.15929
1096.343	18.046
1096.692	93.25193
1097.041	-28.07677
1097.39	71.18174
1097.739	25.0658
1098.088	82.22029
1098.437	11.02953
1098.785	48.12891
1099.134	69.18302
1099.482	76.2097
1099.83	39.10258
1100.179	42.11217
1100.527	21.05622
1100.875	0
1101.223	17.04562
1101.571	64.1777
1101.919	57.15255
1102.267	12.03407
1102.615	14.04512
1102.962	15.04823
1103.31	16.05149
1103.658	23.0741
