Data from N2 R0 105C sample7_Subt2__1__12-16-30-031.txt Node

Date: Tue Aug 19 12:16:30 PDT 2025
User: uwsun
Spectrometer: HDX01956
Trigger mode: 0
Integration Time (sec): 5.000000E-1
Scans to average: 1
Nonlinearity correction enabled: true
Boxcar width: 0
Storing dark spectrum: false
XAxis mode: Wavelengths
Number of Pixels in Spectrum: 2068
>>>>>Begin Spectral Data<<<<<
194.03	200.57057
194.578	195.62221
195.127	187.58934
195.676	214.67466
196.225	263.70194
196.773	250.6947
197.321	389.06211
197.87	485.22822
198.418	521.29562
198.966	501.2809
199.513	430.05874
200.061	467.16916
200.609	471.21335
201.156	460.99758
201.704	458.1435
202.251	492.28
202.798	489.24318
203.345	485.17353
203.892	505.23937
204.438	490.1484
204.985	530.24132
205.532	454.17374
206.078	545.2986
206.624	538.28949
207.17	529.19853
207.716	516.22542
208.262	442.86975
208.808	577.39066
209.354	511.21981
209.899	554.33744
210.445	550.33525
210.99	573.34607
211.535	554.27176
212.08	534.22481
212.625	558.35419
213.17	570.38799
213.715	557.23802
214.259	537.21816
214.804	530.26016
215.348	540.19447
215.892	515.20026
216.436	502.13842
216.98	535.16492
217.524	465.08271
218.068	578.41429
218.612	522.27477
219.155	472.09148
219.698	544.25674
220.242	488.185
220.785	455.04314
221.328	445.08265
221.871	460.12858
222.414	482.16866
222.956	486.16072
223.499	456.01341
224.041	497.12958
224.583	419.88795
225.126	475.02794
225.668	437.04132
226.21	410.01644
226.751	456.99691
227.293	467.05957
227.835	483.15903
228.376	480.07964
228.918	450.11295
229.459	473.15346
230	415.97582
230.541	472.08543
231.082	403.95536
231.622	474.06482
232.163	476.129
232.704	442.06953
233.244	465.12549
233.784	451.07925
234.324	481.05867
234.864	437.98259
235.404	513.1801
235.944	508.16463
236.484	473.13629
237.023	536.23382
237.563	495.11548
238.102	432.99618
238.641	511.25134
239.18	489.12615
239.719	535.29176
240.258	492.0836
240.797	487.14425
241.335	467.11761
241.874	538.0296
242.412	519.22144
242.95	484.13387
243.488	499.11947
244.026	444.00586
244.564	489.99372
245.102	512.12066
245.64	514.1897
246.177	510.12144
246.715	466.09717
247.252	465.0499
247.789	496.92551
248.326	516.21555
248.863	544.17076
249.4	509.12931
249.936	487.98424
250.473	552.25097
251.009	524.18118
251.546	516.11088
252.082	478.03114
252.618	534.15117
253.154	545.27574
253.69	470.03377
254.226	512.18459
254.761	568.25074
255.297	508.08004
255.832	505.15473
256.367	516.18819
256.903	500.06208
257.438	490.12016
257.972	528.15379
258.507	531.19479
259.042	547.16587
259.576	545.15859
260.111	536.19842
260.645	499.0459
261.179	456.04481
261.713	521.14207
262.247	532.19826
262.781	549.12654
263.315	542.28922
263.849	539.3073
264.382	544.20333
264.915	543.24772
265.449	534.28668
265.982	613.34234
266.515	522.22351
267.048	465.99316
267.58	538.14641
268.113	532.12624
268.646	520.24865
269.178	499.09698
269.71	593.25203
270.243	561.23143
270.775	500.22596
271.307	554.27937
271.838	529.19805
272.37	527.25182
272.902	554.21681
273.433	512.08099
273.965	538.2645
274.496	506.20487
275.027	516.2381
275.558	584.35674
276.089	548.31149
276.62	568.38054
277.15	529.24211
277.681	612.28119
278.211	515.19131
278.741	554.19078
279.272	555.22284
279.802	588.39179
280.332	590.33286
280.861	558.29321
281.391	538.1831
281.921	600.37913
282.45	594.41628
282.98	529.32601
283.509	559.20695
284.038	569.25111
284.567	569.26054
285.096	600.38791
285.625	604.32345
286.153	545.22533
286.682	549.21668
287.21	583.34775
287.739	613.39078
288.267	556.29568
288.795	566.39615
289.323	631.4224
289.851	647.44662
290.378	605.3053
290.906	586.3646
291.433	582.3744
291.961	642.3802
292.488	577.36442
293.015	637.43535
293.542	642.54306
294.069	561.31324
294.596	615.43248
295.122	626.41772
295.649	609.27799
296.175	669.54245
296.702	617.41344
297.228	630.44065
297.754	673.45343
298.28	613.33501
298.806	595.36354
299.332	667.40848
299.857	611.31713
300.383	671.58443
300.908	603.39899
301.433	594.36532
301.958	671.44478
302.483	686.60329
303.008	652.51485
303.533	669.61254
304.058	657.46296
304.582	654.46559
305.107	713.738
305.631	701.4823
306.155	662.46103
306.679	669.45895
307.203	709.543
307.727	691.53112
308.251	694.5979
308.775	670.50701
309.298	753.69347
309.822	697.6414
310.345	837.82174
310.868	694.54893
311.391	743.68323
311.914	759.75629
312.437	755.59521
312.96	732.59881
313.482	780.69296
314.005	729.69817
314.527	819.95997
315.049	747.71964
315.571	806.67297
316.093	824.86187
316.615	805.78461
317.137	772.5539
317.659	874.92678
318.18	780.70587
318.702	800.68852
319.223	867.64983
319.744	865.76325
320.265	799.77717
320.786	911.02533
321.307	875.95907
321.828	914.86701
322.348	932.96987
322.869	962.04135
323.389	673.95825
323.909	942.91384
324.43	954.0077
324.95	953.93928
325.47	924.00642
325.989	978.03042
326.509	982.92193
327.029	1006.97544
327.548	1008.98587
328.067	1067.24533
328.587	1024.20876
329.106	961.89538
329.625	1029.32263
330.144	1009.05267
330.662	1016.02257
331.181	1070.15092
331.7	1111.23195
332.218	1102.05853
332.736	1184.32833
333.255	1124.21838
333.773	1098.20529
334.291	1114.33768
334.808	1214.2795
335.326	1176.23706
335.844	1219.37215
336.361	1204.54874
336.879	1238.42679
337.396	1177.37016
337.913	1284.40075
338.43	1306.3859
338.947	1230.39303
339.464	1323.29221
339.981	1275.47201
340.497	1328.61084
341.014	1293.57329
341.53	1294.32844
342.046	1428.73474
342.562	1393.76242
343.078	1443.66017
343.594	1410.64352
344.11	1426.63067
344.626	1516.9424
345.141	1460.55142
345.657	1523.58826
346.172	1488.76037
346.687	1518.67814
347.202	1513.58897
347.717	1575.83715
348.232	1548.93551
348.747	1594.74652
349.261	1657.67284
349.776	1634.83954
350.29	1608.99842
350.805	1677.0922
351.319	1732.9266
351.833	1651.71058
352.347	1595.77497
352.861	1657.80265
353.374	1696.77673
353.888	1757.0308
354.401	1692.8097
354.915	1712.7632
355.428	1738.09274
355.941	1818.97683
356.454	1874.84892
356.967	1772.92622
357.48	1807.864
357.993	1841.15038
358.505	1846.11173
359.018	1949.20947
359.53	1980.21782
360.042	1937.84427
360.554	1850.06707
361.066	1879.15524
361.578	1906.74169
362.09	1995.1032
362.602	1919.80553
363.113	2066.11955
363.625	1977.9215
364.136	2089.88726
364.647	2087.1767
365.158	2102.07325
365.669	2100.18851
366.18	2081.10869
366.691	2070.88111
367.201	2138.23035
367.712	2177.07029
368.222	2161.05846
368.733	2270.99054
369.243	2322.01723
369.753	2338.23589
370.263	2339.33969
370.773	2302.3546
371.282	2396.28151
371.792	2527.30846
372.301	2555.43166
372.811	2479.69838
373.32	2565.85907
373.829	2678.33081
374.338	2686.99521
374.847	2860.21541
375.356	2863.32132
375.865	3032.73647
376.373	3147.04725
376.882	3173.5713
377.39	3281.29688
377.898	3281.42649
378.407	3477.8146
378.915	3688.48961
379.423	3742.95291
379.93	3916.56895
380.438	4023.99213
380.946	4315.6205
381.453	4455.59135
381.96	4700.3397
382.468	4976.16602
382.975	5309.98523
383.482	5407.41477
383.989	5544.13268
384.495	5634.43945
385.002	5997.88731
385.509	6344.33209
386.015	6703.57288
386.521	7023.07167
387.028	7331.11375
387.534	7561.17402
388.04	7736.47919
388.546	7822.44173
389.051	8409.21585
389.557	9146.75427
390.063	9852.83567
390.568	9911.96731
391.073	10231.38502
391.578	10773.37384
392.084	11041.39305
392.589	11540.79107
393.093	12368.45344
393.598	13570.81687
394.103	14639.98871
394.607	16020.34358
395.112	17059.74189
395.616	18186.70074
396.12	19605.68941
396.624	21791.62784
397.128	23729.8365
397.632	26219.56442
398.136	28481.9629
398.639	30154.53889
399.143	33639.70351
399.646	38196.0383
400.15	41074.44465
400.653	45975.22354
401.156	51928.45578
401.659	58031.84152
402.162	57920.1403
402.664	54480.21957
403.167	49329.08451
403.67	22278.45323
404.172	2696.20453
404.674	0
405.176	0
405.678	0
406.18	0
406.682	0
407.184	0
407.686	25783.58453
408.187	43316.52985
408.688	51225.60928
409.19	54389.01922
409.691	56215.4214
410.192	57270.57019
410.693	57845.40442
411.194	58219.2365
411.694	58633.01717
412.195	59215.68848
412.696	59364.60701
413.196	59341.61941
413.696	59632.46864
414.196	59367.6054
414.696	59763.40624
415.196	59913.34014
415.696	55572.22177
416.196	43586.84781
416.695	34228.43949
417.195	30501.32817
417.694	29105.45898
418.194	27338.85971
418.693	25873.32121
419.192	25294.39501
419.691	24538.02288
420.19	24044.75103
420.688	23460.07558
421.187	22501.34929
421.685	20726.68281
422.184	18605.97875
422.682	15864.19614
423.18	13746.16788
423.678	12208.35338
424.176	11506.70094
424.674	10734.83349
425.172	10250.27014
425.669	9748.33044
426.167	8997.38123
426.664	8214.95306
427.161	7550.23005
427.659	7064.27762
428.156	6545.66685
428.652	6229.659
429.149	6038.48139
429.646	5730.13264
430.143	5429.7262
430.639	5115.88787
431.135	4912.449
431.632	4629.08928
432.128	4304.61489
432.624	4151.15966
433.12	3974.46839
433.616	3924.31366
434.111	3715.87367
434.607	3654.01251
435.103	3483.35113
435.598	3413.38461
436.093	3174.07292
436.588	3092.7715
437.083	2979.88711
437.578	2804.07436
438.073	2716.52704
438.568	2610.33663
439.062	2571.77516
439.557	2498.16593
440.051	2353.93996
440.546	2226.94795
441.04	2280.23634
441.534	2251.48085
442.028	2223.15428
442.522	2114.12829
443.015	2070.75519
443.509	2061.19109
444.002	2021.17297
444.496	2014.77678
444.989	1904.04183
445.482	1983.20596
445.975	1983.92878
446.468	1894.62602
446.961	1892.66464
447.454	1836.73332
447.947	1836.96386
448.439	1697.81731
448.931	1779.75717
449.424	1772.05288
449.916	1717.9297
450.408	1718.68528
450.9	1664.89351
451.392	1639.96043
451.884	1594.61407
452.375	1598.93031
452.867	1587.55749
453.358	1588.61416
453.849	1495.32736
454.341	1520.51784
454.832	1519.39507
455.323	1523.75552
455.814	1527.59096
456.304	1483.5333
456.795	1459.50926
457.285	1423.34642
457.776	1440.43656
458.266	1376.50923
458.756	1349.47274
459.247	1375.53312
459.737	1352.52457
460.226	1341.34674
460.716	1327.5002
461.206	1278.43161
461.695	1244.45339
462.185	1187.22594
462.674	1215.26858
463.163	1231.14218
463.653	1263.12228
464.142	1200.34115
464.63	1207.39302
465.119	1112.10685
465.608	1183.23143
466.096	1155.04417
466.585	1165.18137
467.073	1095.14846
467.561	1037.07732
468.05	1061.05334
468.538	1023.10753
469.026	1025.06361
469.513	1159.16691
470.001	981.8843
470.489	971.97951
470.976	972.92292
471.463	952.02098
471.951	913.95615
472.438	886.80813
472.925	849.73764
473.412	864.83324
473.899	855.70421
474.385	842.80359
474.872	875.8151
475.359	824.78927
475.845	824.52802
476.331	725.38924
476.817	686.50962
477.303	768.59685
477.789	744.61067
478.275	693.55592
478.761	806.73459
479.247	796.61181
479.732	685.56244
480.218	707.66496
480.703	657.49913
481.188	706.38177
481.673	583.25186
482.158	652.30965
482.643	588.3698
483.128	590.26392
483.612	647.39185
484.097	568.28102
484.581	565.22201
485.066	610.38425
485.55	586.21856
486.034	568.14592
486.518	587.30424
487.002	587.36452
487.486	611.38624
487.969	570.31792
488.453	459.093
488.936	569.22386
489.42	514.07621
489.903	490.16225
490.386	512.81977
490.869	469.98305
491.352	439.02648
491.835	476.95562
492.318	566.23956
492.8	475.96483
493.283	531.28787
493.765	475.12381
494.247	421.95283
494.73	463.99446
495.212	452.04722
495.694	401.91753
496.175	446.03696
496.657	472.07288
497.139	403.71081
497.62	385.90178
498.102	395.95658
498.583	356.87042
499.064	478.0514
499.545	421.9443
500.026	390.86813
500.507	443.00217
500.988	422.02219
501.469	396.97536
501.949	374.90965
502.43	396.93207
502.91	411.8554
503.39	322.78936
503.87	377.88581
504.35	374.8635
504.83	362.7978
505.31	355.8455
505.79	372.8875
506.269	396.91755
506.749	352.80172
507.228	354.83259
507.707	380.83816
508.187	384.89046
508.666	346.84723
509.145	361.84757
509.623	302.70672
510.102	332.80118
510.581	292.69722
511.059	338.84143
511.538	354.89434
512.016	343.82506
512.494	349.84172
512.972	285.68116
513.45	337.79061
513.928	389.94276
514.406	352.8568
514.884	318.81371
515.361	320.77194
515.839	377.8609
516.316	363.87084
516.793	326.81746
517.27	347.82455
517.747	327.83365
518.224	302.7106
518.701	359.81518
519.178	306.7532
519.654	315.74737
520.131	315.77349
520.607	283.70006
521.083	312.72096
521.56	348.82994
522.036	336.74764
522.512	297.72147
522.987	300.72179
523.463	340.8149
523.939	301.7383
524.414	351.80767
524.89	308.73401
525.365	312.7201
525.84	273.66815
526.315	308.75001
526.79	314.71808
527.265	343.79777
527.74	240.59252
528.215	315.75284
528.689	295.6688
529.164	283.62541
529.638	304.78226
530.112	317.75878
530.587	279.61632
531.061	251.61728
531.534	261.63309
532.008	311.75547
532.482	257.59211
532.956	280.71424
533.429	303.73632
533.903	331.73392
534.376	243.5507
534.849	279.65866
535.322	270.64716
535.795	293.71842
536.268	274.66075
536.741	277.66937
537.213	275.64494
537.686	280.69252
538.158	268.61216
538.631	256.62411
539.103	263.6098
539.575	245.52286
540.047	322.71501
540.519	324.77863
540.991	312.76088
541.463	272.66607
541.934	311.72136
542.406	290.7017
542.877	342.78681
543.348	304.73861
543.82	278.68001
544.291	289.67856
544.762	296.70596
545.233	268.67761
545.703	300.67806
546.174	312.73326
546.645	304.73834
547.115	371.89645
547.585	306.71019
548.056	390.94713
548.526	418.98536
548.996	367.87239
549.466	389.93106
549.935	378.89456
550.405	413.9035
550.875	385.90425
551.344	409.97443
551.814	451.02527
552.283	409.87358
552.752	419.97217
553.221	498.08767
553.69	475.0275
554.159	475.14585
554.628	460.0202
555.096	539.32389
555.565	484.06818
556.033	516.17212
556.502	489.14985
556.97	483.04973
557.438	488.12184
557.906	430.00048
558.374	416.9486
558.842	413.97074
559.31	438.97374
559.777	432.0225
560.245	457.05652
560.712	447.02681
561.18	515.13411
561.647	503.10162
562.114	497.11086
562.581	502.19259
563.048	484.0931
563.514	521.23518
563.981	525.16196
564.448	555.20956
564.914	543.22531
565.381	624.35066
565.847	616.37979
566.313	652.44253
566.779	567.21693
567.245	645.43622
567.711	662.50539
568.176	687.46343
568.642	712.66927
569.108	701.61883
569.573	768.69585
570.038	793.57097
570.504	747.55073
570.969	865.98417
571.434	850.74479
571.899	888.92502
572.363	860.78594
572.828	875.80784
573.293	909.88316
573.757	927.89487
574.222	959.94531
574.686	1047.10028
575.15	1000.10372
575.614	969.97989
576.078	1016.12063
576.542	983.9877
577.006	1059.08352
577.469	1019.20404
577.933	990.00804
578.396	960.01064
578.86	1020.11493
579.323	1078.26405
579.786	1013.93374
580.249	1075.17038
580.712	1034.2076
581.175	1011.19321
581.637	1024.03382
582.1	1079.06843
582.563	1004.89206
583.025	1106.31682
583.487	1023.84009
583.95	1066.03807
584.412	1067.96544
584.874	1022.15288
585.336	1065.19027
585.797	1007.92227
586.259	1107.24424
586.721	1043.13538
587.182	1083.16267
587.643	1119.17715
588.105	1132.30694
588.566	1099.97011
589.027	1212.47463
589.488	1210.32076
589.949	1150.369
590.41	1247.0206
590.87	1233.3102
591.331	1226.17762
591.791	1360.58431
592.252	1388.5844
592.712	1374.64741
593.172	1494.66546
593.632	1567.6522
594.092	1610.73495
594.552	1622.63993
595.011	1676.88875
595.471	1776.83417
595.931	1773.85393
596.39	1921.29541
596.849	1937.17044
597.308	2056.9763
597.768	2132.73061
598.227	2186.40065
598.685	2339.25856
599.144	2468.47498
599.603	2575.61856
600.062	2793.1334
600.52	2850.36518
600.978	2968.62238
601.437	3119.40167
601.895	3285.02741
602.353	3474.20393
602.811	3643.30272
603.269	3915.6261
603.727	3957.64055
604.184	4184.18256
604.642	4336.59166
605.099	4619.02126
605.557	4856.27283
606.014	5037.47568
606.471	5249.28846
606.928	5532.22898
607.385	5769.92089
607.842	5976.17087
608.299	6236.30855
608.755	6439.43132
609.212	6479.87729
609.668	6841.91091
610.125	7088.30398
610.581	7294.17157
611.037	7451.04161
611.493	7617.25455
611.949	7715.57711
612.405	7950.90323
612.861	8198.59308
613.316	8259.7367
613.772	8380.73188
614.227	8613.08236
614.683	8573.75277
615.138	8689.12504
615.593	8860.34949
616.048	8753.12843
616.503	8779.35618
616.958	8986.74471
617.412	8942.50189
617.867	8791.14155
618.321	8848.13467
618.776	8966.42739
619.23	8795.25851
619.684	8703.04712
620.138	8805.23866
620.592	8629.1674
621.046	8668.07216
621.5	8615.18076
621.954	8389.6447
622.407	8295.50975
622.861	8173.70925
623.314	8189.46151
623.768	8077.48184
624.221	7943.87064
624.674	7888.28555
625.127	8044.43951
625.58	7974.28331
626.033	7734.97177
626.485	7713.38136
626.938	7752.34196
627.39	7805.30401
627.843	7699.20228
628.295	7672.13726
628.747	7705.32052
629.199	7767.15531
629.651	7710.1441
630.103	7874.28238
630.555	7900.96763
631.006	7984.40032
631.458	8072.51728
631.909	8191.44046
632.361	8302.6493
632.812	8501.85305
633.263	8596.77098
633.714	8877.19398
634.165	8991.64888
634.616	9284.09551
635.067	9446.35635
635.518	9681.92575
635.968	10057.14204
636.419	10321.83021
636.869	10595.58441
637.319	10959.00556
637.769	11190.06424
638.219	11770.63187
638.669	12088.1657
639.119	12583.78672
639.569	12985.53881
640.019	13623.61458
640.468	14106.87488
640.918	14732.39719
641.367	15063.41858
641.816	15697.66234
642.265	16388.7038
642.714	17102.94401
643.163	17781.88792
643.612	18349.73571
644.061	18856.46042
644.51	19683.91182
644.958	20252.4017
645.406	20626.40014
645.855	21420.10702
646.303	21927.02553
646.751	22659.83803
647.199	23297.57977
647.647	23498.09425
648.095	24321.59667
648.543	24821.86571
648.99	25173.22844
649.438	25557.71823
649.885	26116.94627
650.333	26404.38027
650.78	27021.25169
651.227	27120.27872
651.674	27081.94345
652.121	27387.28571
652.568	27637.19711
653.015	27777.44372
653.461	27797.87686
653.908	27612.98201
654.354	27609.68773
654.801	27765.71517
655.247	27550.49659
655.693	27531.10163
656.139	27397.53956
656.585	27434.30476
657.031	27117.45007
657.477	27013.92967
657.922	26854.42472
658.368	26659.38057
658.813	26512.28115
659.259	26381.19314
659.704	26392.38552
660.149	26175.00419
660.594	26007.47537
661.039	25517.94078
661.484	25429.81657
661.929	25516.34047
662.373	25304.80977
662.818	25396.74843
663.262	25400.8476
663.707	25210.86992
664.151	25338.63119
664.595	25388.89757
665.039	25647.39028
665.483	25757.21197
665.927	26016.09026
666.371	26037.43442
666.814	26326.84621
667.258	26385.15942
667.701	26630.43467
668.145	26873.00779
668.588	27036.61914
669.031	27272.09845
669.474	27331.73938
669.917	27637.72927
670.36	28134.91582
670.803	28603.76193
671.245	28856.14971
671.688	28903.01299
672.13	29125.95218
672.573	29310.99249
673.015	29760.76288
673.457	29890.16367
673.899	29910.62541
674.341	30414.9105
674.783	30520.20556
675.225	30691.6658
675.666	30912.84913
676.108	31177.74791
676.549	31273.27409
676.991	31241.77632
677.432	31615.82253
677.873	31195.93036
678.314	31008.27896
678.755	30985.73932
679.196	30757.45026
679.637	30845.43245
680.078	30511.77789
680.518	30540.08323
680.959	30298.64232
681.399	30258.603
681.839	30117.66214
682.28	30006.05774
682.72	29364.30944
683.16	29318.44304
683.6	29019.87807
684.039	28648.19323
684.479	28656.65997
684.919	28723.51179
685.358	28452.62861
685.798	28464.91394
686.237	28311.99305
686.676	28070.34165
687.115	28072.86223
687.554	28101.99394
687.993	27707.7212
688.432	27487.0355
688.871	27333.01183
689.309	27251.13952
689.748	27612.05591
690.186	27552.18562
690.625	27393.52392
691.063	27543.58972
691.501	27439.9786
691.939	27670.52736
692.377	27542.41246
692.815	27346.19154
693.253	27659.14876
693.69	27410.9049
694.128	27456.14373
694.565	27335.36182
695.003	27447.14224
695.44	27204.82486
695.877	27178.36005
696.314	27176.88516
696.751	27133.05
697.188	27012.94837
697.625	26932.24141
698.061	27126.27218
698.498	27038.32168
698.934	27205.21791
699.371	26940.24724
699.807	26927.2789
700.243	26540.51149
700.679	26542.15168
701.115	26564.85757
701.551	26424.75119
701.987	26536.15916
702.422	26484.01965
702.858	26551.30095
703.294	26231.24221
703.729	26215.86404
704.164	26260.86307
704.599	25992.25653
705.035	26063.6295
705.47	26135.42705
705.904	26002.8444
706.339	26015.26631
706.774	26181.5761
707.209	26046.00413
707.643	26062.21723
708.078	25971.24178
708.512	25820.61734
708.946	25891.49978
709.38	25661.37971
709.814	25885.41055
710.248	25899.0233
710.682	25958.05951
711.116	25825.84673
711.549	25403.59507
711.983	25379.95791
712.416	25613.7257
712.85	25354.52316
713.283	25139.87777
713.716	25392.25196
714.149	25279.18441
714.582	24938.31945
715.015	24889.52514
715.448	24598.85544
715.881	24488.42489
716.313	24532.72762
716.746	24596.3243
717.178	24480.41002
717.61	24349.43022
718.043	24390.33031
718.475	24197.41055
718.907	24081.45113
719.339	24168.214
719.77	23680.09847
720.202	23803.37804
720.634	23836.35103
721.065	23730.92684
721.497	23623.56641
721.928	23373.66414
722.359	23416.39059
722.79	23362.81774
723.221	23164.42603
723.652	23035.09351
724.083	22764.9606
724.514	22833.84024
724.945	22872.70286
725.375	22651.29046
725.806	22565.09718
726.236	22257.70503
726.666	22244.53104
727.096	22502.14541
727.526	22394.6118
727.956	22411.08191
728.386	22343.02321
728.816	21970.68008
729.246	21846.57242
729.675	21726.6437
730.105	21666.62345
730.534	21455.45669
730.964	21446.51156
731.393	21462.43134
731.822	21472.2435
732.251	21461.4545
732.68	21329.87086
733.109	21120.37447
733.537	21124.73338
733.966	20952.17612
734.395	20859.29377
734.823	20731.50467
735.251	20541.28571
735.68	20471.5908
736.108	20354.79415
736.536	19999.73809
736.964	19966.36392
737.392	19779.91583
737.82	19657.31821
738.247	19666.69681
738.675	19468.06681
739.102	19077.1769
739.53	19058.49764
739.957	18837.30357
740.384	18822.78164
740.811	18649.59904
741.238	18530.7414
741.665	18272.81417
742.092	17932.68695
742.519	17737.31532
742.945	17609.45616
743.372	17564.0958
743.798	17281.9407
744.225	17032.77786
744.651	16784.78606
745.077	16461.27207
745.503	16440.57182
745.929	16391.31813
746.355	16052.03296
746.781	15793.28191
747.207	15502.89651
747.632	15405.29928
748.058	15160.86949
748.483	15150.06729
748.908	14927.83168
749.334	14638.25946
749.759	14574.55863
750.184	14467.15097
750.609	14173.28955
751.033	13961.22004
751.458	13717.9092
751.883	13669.30649
752.307	13383.63208
752.732	13005.29894
753.156	12877.63004
753.58	12772.39025
754.005	12648.15232
754.429	12339.79488
754.853	11921.17298
755.277	11823.02596
755.7	11809.57819
756.124	11604.58416
756.548	11371.6984
756.971	11069.39179
757.394	11092.22123
757.818	10894.5035
758.241	10782.12031
758.664	10656.68078
759.087	10321.79479
759.51	10259.45831
759.933	10094.99519
760.356	9875.40989
760.778	9883.4229
761.201	9569.66952
761.623	9325.14015
762.046	9281.03875
762.468	9015.53963
762.89	8945.50952
763.312	8792.31443
763.734	8557.93611
764.156	8357.8155
764.578	8352.59212
765	8130.58604
765.421	7854.62138
765.843	7844.72784
766.264	7731.25407
766.686	7508.31868
767.107	7375.13618
767.528	7309.44827
767.949	7175.43492
768.37	6927.10159
768.791	6821.12768
769.212	6699.4482
769.632	6610.97029
770.053	6554.79599
770.473	6391.23661
770.894	6304.38892
771.314	6079.1007
771.734	5978.14416
772.154	5801.79418
772.575	5883.04748
772.994	5659.09303
773.414	5640.41956
773.834	5488.86917
774.254	5352.86612
774.673	5165.78176
775.093	5153.96278
775.512	5049.9437
775.931	4975.23167
776.351	4763.1922
776.77	4702.14172
777.189	4715.88596
777.607	4513.5497
778.026	4511.41026
778.445	4349.54239
778.864	4189.70289
779.282	4138.30096
779.701	4069.58888
780.119	4042.87314
780.537	3905.67948
780.955	3836.6847
781.373	3794.5766
781.791	3745.99277
782.209	3700.09169
782.627	3624.21507
783.045	3530.26151
783.462	3445.94789
783.88	3349.0167
784.297	3307.83837
784.715	3210.00595
785.132	3168.63837
785.549	3086.82764
785.966	2949.79789
786.383	2938.67125
786.8	2887.33454
787.217	2840.45389
787.633	2755.74952
788.05	2671.33399
788.466	2650.21857
788.883	2581.7765
789.299	2534.44249
789.715	2504.52732
790.131	2433.63435
790.547	2346.50022
790.963	2396.58921
791.379	2257.58385
791.795	2169.01154
792.21	2193.12401
792.626	2095.13185
793.041	2055.36053
793.457	2008.31765
793.872	1981.03718
794.287	1958.13273
794.702	1916.17081
795.117	1900.25992
795.532	1826.2306
795.947	1741.93174
796.362	1766.9432
796.776	1678.71382
797.191	1724.02092
797.605	1631.84832
798.02	1568.8138
798.434	1506.40757
798.848	1482.79379
799.262	1460.80417
799.676	1426.62416
800.09	1422.74271
800.504	1374.55198
800.918	1372.47062
801.331	1320.7002
801.745	1253.26755
802.158	1205.43988
802.572	1216.33006
802.985	1207.3244
803.398	1100.15374
803.811	1123.33238
804.224	1140.28664
804.637	1093.16561
805.05	1038.97534
805.462	1017.09048
805.875	959.14091
806.288	1020.09056
806.7	971.08321
807.112	908.77441
807.525	840.80471
807.937	860.84849
808.349	842.8423
808.761	868.85531
809.173	834.76111
809.584	796.71892
809.996	785.70996
810.408	760.76172
810.819	786.64808
811.231	763.8038
811.642	738.6255
812.053	836.79765
812.464	745.60357
812.875	683.58162
813.286	623.47442
813.697	644.36194
814.108	659.4547
814.519	586.18825
814.929	573.34398
815.34	621.40041
815.75	597.40359
816.16	530.22387
816.571	495.19192
816.981	475.04675
817.391	567.27434
817.801	497.17639
818.211	446.99029
818.62	480.10078
819.03	416.96731
819.44	418.02952
819.849	382.91449
820.259	375.90884
820.668	422.99672
821.077	446.06057
821.486	389.89259
821.895	362.85008
822.304	353.90118
822.713	349.80307
823.122	353.85072
823.531	371.8547
823.939	349.82611
824.348	362.85339
824.756	336.81817
825.164	309.74921
825.573	379.93024
825.981	334.79839
826.389	322.7879
826.797	235.57345
827.205	306.69246
827.612	304.73418
828.02	291.67311
828.428	285.71197
828.835	263.67902
829.243	309.72466
829.65	192.47542
830.057	262.62799
830.464	208.50218
830.871	297.69189
831.278	172.41307
831.685	286.62795
832.092	244.59264
832.499	200.43599
832.905	194.48581
833.312	242.5472
833.718	211.52103
834.124	209.47211
834.531	195.48523
834.937	142.35842
835.343	195.46946
835.749	177.4057
836.155	209.53888
836.561	173.42752
836.966	153.37462
837.372	178.45073
837.777	152.38216
838.183	138.30683
838.588	105.25986
838.993	190.4582
839.399	168.41051
839.804	98.24196
840.209	178.45633
840.613	118.26705
841.018	142.35727
841.423	158.40307
841.828	122.31233
842.232	166.40728
842.637	183.43322
843.041	106.27593
843.445	108.27329
843.849	132.32686
844.253	165.39287
844.657	143.3632
845.061	127.29308
845.465	118.28823
845.869	167.39029
846.272	118.29166
846.676	107.25868
847.079	131.33802
847.483	114.28343
847.886	69.16726
848.289	112.30049
848.692	179.45044
849.095	135.3281
849.498	113.28365
849.901	121.27868
850.304	116.28134
850.707	84.21468
851.109	106.26651
851.512	101.25307
851.914	109.28213
852.316	58.14708
852.718	117.30534
853.121	114.28208
853.523	122.29211
853.925	109.28815
854.326	51.12908
854.728	105.27347
855.13	124.32422
855.531	119.29116
855.933	77.18482
856.334	67.1703
856.736	83.19124
857.137	75.17728
857.538	110.28132
857.939	89.22525
858.34	81.19966
858.741	79.20793
859.142	112.27225
859.542	88.23509
859.943	70.17612
860.343	38.0963
860.744	104.25498
861.144	67.16393
861.544	81.20039
861.945	101.26224
862.345	62.15353
862.745	96.24405
863.145	109.26113
863.544	61.15609
863.944	11.02648
864.344	97.24235
864.743	83.20624
865.143	72.1873
865.542	86.20371
865.941	126.31599
866.34	103.24836
866.74	77.2071
867.139	82.20179
867.537	95.243
867.936	77.1891
868.335	97.24916
868.734	127.32997
869.132	115.27256
869.531	45.10941
869.929	39.09269
870.327	70.17194
870.726	40.10028
871.124	67.16058
871.522	49.12705
871.92	96.24024
872.318	50.1244
872.715	50.12409
873.113	78.19435
873.511	107.27216
873.908	60.15624
874.306	87.22129
874.703	90.2262
875.1	68.17531
875.497	89.21873
875.894	126.31463
876.291	24.06004
876.688	99.26048
877.085	85.20496
877.482	48.12185
877.878	55.13562
878.275	73.18889
878.671	111.25033
879.068	67.16418
879.464	33.08146
879.86	30.07262
880.256	50.12522
880.652	59.15245
881.048	55.13751
881.444	1.00242
881.84	63.16194
882.236	42.10704
882.631	96.24076
883.027	33.08086
883.422	34.08826
883.817	82.21265
884.213	82.2136
884.608	72.18083
885.003	71.17565
885.398	73.18771
885.793	42.10704
886.188	71.18161
886.582	45.11543
886.977	90.21672
887.371	20.0509
887.766	38.09712
888.16	81.20391
888.554	64.15871
888.949	64.16178
889.343	26.06443
889.737	90.24471
890.131	33.08364
890.525	60.15517
890.918	34.08637
891.312	34.08184
891.706	-38.10074
892.099	44.11229
892.492	90.19911
892.886	5.01249
893.279	104.26803
893.672	7.01792
894.065	21.05347
894.458	106.2708
894.851	86.21233
895.244	61.15735
895.637	32.07924
896.029	44.10935
896.422	77.18973
896.814	24.06075
897.206	18.04405
897.599	78.19294
897.991	14.03452
898.383	114.27555
898.775	41.09484
899.167	55.13247
899.559	37.09484
899.951	71.16971
900.342	43.10991
900.734	3.00777
901.125	77.20335
901.517	83.20752
901.908	33.08032
902.299	90.22653
902.69	79.19042
903.082	40.09865
903.473	79.19415
903.863	59.1525
904.254	85.2027
904.645	85.21337
905.036	19.04751
905.426	52.1206
905.817	87.21697
906.207	57.13988
906.597	25.05951
906.987	39.10265
907.378	9.02307
907.768	50.13397
908.158	70.17308
908.547	30.07927
908.937	12.03109
909.327	93.22974
909.717	28.07171
910.106	78.18953
910.495	77.1944
910.885	64.165
911.274	56.14196
911.663	26.06645
912.052	57.14133
912.441	29.07454
912.83	93.21821
913.219	38.10034
913.608	85.20952
913.997	39.10028
914.385	32.07761
914.774	34.08435
915.162	47.11538
915.55	52.12759
915.939	49.12573
916.327	12.03019
916.715	28.07264
917.103	65.16081
917.491	36.08973
917.878	28.06916
918.266	7.01828
918.654	57.14871
919.041	48.12772
919.429	77.18538
919.816	-13.03356
920.203	51.12645
920.591	19.04787
920.978	20.04922
921.365	50.13287
921.752	46.11257
922.139	83.18573
922.525	70.17302
922.912	51.1258
923.299	48.12181
923.685	41.10886
924.072	24.05593
924.458	25.06323
924.844	95.23821
925.231	80.18979
925.617	49.12727
926.003	59.15213
926.389	44.113
926.774	43.11069
927.16	74.18599
927.546	56.14642
927.931	49.12424
928.317	-21.04966
928.702	58.13829
929.088	43.10482
929.473	8.02073
929.858	43.10708
930.243	60.14716
930.628	89.22196
931.013	44.11138
931.398	78.18069
931.783	33.08736
932.167	94.23472
932.552	28.0707
932.937	60.15031
933.321	18.04634
933.705	73.18686
934.09	30.07616
934.474	24.05812
934.858	45.11824
935.242	13.03119
935.626	29.07615
936.009	-37.09955
936.393	41.10561
936.777	27.07049
937.16	26.06831
937.544	26.06223
937.927	48.12469
938.311	49.12083
938.694	21.05598
939.077	11.02705
939.46	-29.07138
939.843	98.21128
940.226	33.0861
940.609	97.23043
940.991	22.05717
941.374	68.16912
941.757	38.09465
942.139	79.1842
942.522	3.00721
942.904	16.03945
943.286	34.08702
943.668	66.17304
944.05	51.12802
944.432	63.15956
944.814	25.0621
945.196	59.14826
945.578	75.18528
945.959	77.18377
946.341	-20.04931
946.722	80.18979
947.104	82.1991
947.485	33.07876
947.866	99.25545
948.247	20.05101
948.628	32.07872
949.009	77.20034
949.39	16.0405
949.771	67.15892
950.152	63.15814
950.532	-4.01025
950.913	54.13244
951.293	47.12884
951.674	98.24454
952.054	64.16305
952.434	24.06058
952.814	34.08277
953.194	50.13123
953.574	72.17705
953.954	11.02687
954.334	60.1521
954.714	45.11251
955.093	54.13367
955.473	23.05844
955.853	58.15103
956.232	10.0275
956.611	68.16493
956.99	43.1108
957.37	46.11929
957.749	67.16332
958.128	56.14447
958.506	111.29255
958.885	41.10576
959.264	77.19474
959.643	38.08817
960.021	56.14186
960.4	24.05637
960.778	57.14215
961.156	35.09
961.535	51.12088
961.913	29.06964
962.291	63.16644
962.669	5.01287
963.047	38.0979
963.424	28.07249
963.802	73.18291
964.18	73.18568
964.557	89.20792
964.935	86.20631
965.312	-8.0212
965.69	17.04301
966.067	46.11453
966.444	18.04493
966.821	37.09627
967.198	37.09103
967.575	5.01239
967.952	49.1173
968.329	58.14373
968.705	19.04176
969.082	65.1697
969.458	31.07734
969.835	45.11113
970.211	53.13903
970.587	21.05319
970.963	14.03642
971.339	16.04259
971.715	10.02547
972.091	39.09783
972.467	73.1841
972.843	8.02035
973.219	38.09161
973.594	51.13667
973.97	73.17509
974.345	45.11039
974.721	3.00734
975.096	50.123
975.471	67.16155
975.846	56.13628
976.221	81.21009
976.596	58.14252
976.971	40.10025
977.346	37.08736
977.72	63.1629
978.095	46.12085
978.469	50.12086
978.844	17.04309
979.218	-33.08167
979.593	20.04884
979.967	81.19922
980.341	38.08925
980.715	47.12069
981.089	-8.02029
981.463	49.11721
981.837	26.06535
982.21	61.14352
982.584	31.07669
982.957	40.10237
983.331	54.13028
983.704	-8.01983
984.078	25.06325
984.451	47.11709
984.824	15.03761
985.197	15.03714
985.57	6.01537
985.943	10.02495
986.316	50.12427
986.688	37.09043
987.061	97.23203
987.434	31.08201
987.806	33.08182
988.179	62.15015
988.551	50.12895
988.923	27.06778
989.295	15.03745
989.667	16.03969
990.039	106.26603
990.411	33.07785
990.783	40.09391
991.155	81.20135
991.527	30.07434
991.898	54.13733
992.27	26.06539
992.641	47.11887
993.012	52.12451
993.384	23.05573
993.755	63.16363
994.126	4.00984
994.497	33.08299
994.868	65.15305
995.239	54.13225
995.61	56.14377
995.98	39.09765
996.351	-2.00508
996.722	51.12288
997.092	28.06832
997.462	30.07262
997.833	-4.00971
998.203	64.1561
998.573	19.04814
998.943	78.18712
999.313	32.07895
999.683	53.13127
1000.053	28.06648
1000.423	4.00988
1000.792	59.15566
1001.162	30.07489
1001.531	67.16758
1001.901	89.22669
1002.27	48.10996
1002.639	45.11728
1003.009	11.02666
1003.378	70.17909
1003.747	92.22221
1004.116	55.13457
1004.485	7.01703
1004.853	44.11296
1005.222	-7.01792
1005.591	77.18461
1005.959	44.1033
1006.328	25.05811
1006.696	91.22439
1007.064	26.06631
1007.433	15.0381
1007.801	56.13781
1008.169	33.08376
1008.537	62.14071
1008.905	61.14603
1009.273	19.04735
1009.64	50.12331
1010.008	93.22526
1010.375	8.01926
1010.743	62.14453
1011.11	27.06589
1011.478	14.03523
1011.845	27.06476
1012.212	40.09365
1012.579	50.12377
1012.946	49.11829
1013.313	54.12949
1013.68	32.07348
1014.047	26.06403
1014.414	47.11406
1014.78	5.01263
1015.147	13.03173
1015.513	74.18109
1015.88	18.04624
1016.246	14.03463
1016.612	67.154
1016.978	65.1614
1017.344	36.0912
1017.71	5.01227
1018.076	38.09092
1018.442	34.08781
1018.808	39.0993
1019.174	43.11015
1019.539	67.15314
1019.905	55.13217
1020.27	36.09113
1020.636	77.18651
1021.001	33.08023
1021.366	51.12511
1021.731	-10.02594
1022.096	4.01036
1022.461	26.06292
1022.826	50.12068
1023.191	4.01065
1023.556	50.12027
1023.92	-9.02249
1024.285	77.18987
1024.649	35.08751
1025.014	25.06318
1025.378	50.12778
1025.742	50.12657
1026.107	54.12385
1026.471	48.11229
1026.835	60.15188
1027.199	61.15268
1027.562	19.04529
1027.926	-1.0025
1028.29	79.20342
1028.654	63.14776
1029.017	-11.02745
1029.381	13.03193
1029.744	15.03868
1030.107	34.08172
1030.471	22.05326
1030.834	12.02793
1031.197	12.02916
1031.56	7.01687
1031.923	18.04724
1032.286	60.14251
1032.648	95.23097
1033.011	-3.00706
1033.374	15.03569
1033.736	24.06431
1034.099	58.14457
1034.461	4.01027
1034.823	-14.03564
1035.185	1.00257
1035.548	33.08239
1035.91	72.17482
1036.272	45.10344
1036.634	8.01977
1036.995	64.15423
1037.357	3.0075
1037.719	-8.01971
1038.08	16.03865
1038.442	31.07489
1038.803	27.06587
1039.165	72.18536
1039.526	66.16134
1039.887	48.11729
1040.248	-5.01262
1040.609	6.01494
1040.97	80.19868
1041.331	48.12297
1041.692	83.20066
1042.053	72.16718
1042.413	47.1117
1042.774	20.04943
1043.134	100.24044
1043.495	22.05587
1043.855	43.10595
1044.215	41.10395
1044.576	61.15053
1044.936	65.1512
1045.296	41.10366
1045.656	24.05952
1046.016	21.05131
1046.375	4.00986
1046.735	15.03522
1047.095	19.0455
1047.454	44.09543
1047.814	2.00493
1048.173	-6.01432
1048.533	50.11661
1048.892	1.0025
1049.251	53.13471
1049.61	38.09503
1049.969	81.19627
1050.328	30.06687
1050.687	3.00745
1051.046	7.01724
1051.405	101.2548
1051.763	36.08518
1052.122	-1.00255
1052.48	-4.00991
1052.839	-3.00726
1053.197	53.1277
1053.555	-17.03873
1053.914	31.07616
1054.272	29.07035
1054.63	29.07301
1054.988	58.14078
1055.345	16.03563
1055.703	61.14814
1056.061	2.00523
1056.419	22.0578
1056.776	0
1057.134	6.01432
1057.491	17.04313
1057.848	29.07256
1058.206	48.11524
1058.563	41.09247
1058.92	23.0535
1059.277	45.11202
1059.634	80.18943
1059.991	75.18173
1060.348	50.11642
1060.704	16.03929
1061.061	32.07527
1061.418	-22.05466
1061.774	13.03282
1062.131	38.10232
1062.487	36.08616
1062.843	-6.01518
1063.199	75.18962
1063.555	45.10756
1063.911	-5.01276
1064.267	24.05121
1064.623	8.01995
1064.979	18.04335
1065.335	18.04353
1065.691	46.1114
1066.046	-28.06223
1066.402	60.14086
1066.757	42.1067
1067.112	42.10366
1067.468	54.13362
1067.823	46.11303
1068.178	28.06842
1068.533	44.10856
1068.888	44.10624
1069.243	31.07768
1069.598	34.08429
1069.952	11.02581
1070.307	93.23521
1070.662	14.03388
1071.016	-11.02558
1071.371	4.00933
1071.725	35.08487
1072.079	-4.00979
1072.434	55.13642
1072.788	45.10957
1073.142	73.18199
1073.496	33.07972
1073.85	37.08658
1074.203	74.18445
1074.557	31.08357
1074.911	5.01205
1075.265	48.11344
1075.618	5.01234
1075.971	32.0775
1076.325	25.06478
1076.678	47.11131
1077.031	52.12103
1077.385	57.12955
1077.738	54.12509
1078.091	26.06121
1078.444	29.06879
1078.796	15.0373
1079.149	55.13756
1079.502	54.13225
1079.855	70.16697
1080.207	33.08251
1080.56	35.0915
1080.912	-5.01238
1081.264	15.03693
1081.617	69.17239
1081.969	53.13681
1082.321	14.03468
1082.673	0
1083.025	25.0609
1083.377	-157.36231
1083.728	47.11058
1084.08	41.10347
1084.432	67.1643
1084.783	47.11153
1085.135	43.10949
1085.486	21.05018
1085.838	54.13523
1086.189	18.04431
1086.54	13.03158
1086.891	55.14172
1087.242	-8.01977
1087.593	61.14964
1087.944	26.05973
1088.295	51.11802
1088.646	56.13872
1088.996	42.10275
1089.347	55.13677
1089.698	-21.05148
1090.048	20.0519
1090.398	9.02122
1090.749	4.00983
1091.099	68.17659
1091.449	3.00762
1091.799	58.14724
1092.149	68.17177
1092.499	39.09642
1092.849	56.14487
1093.199	54.13528
1093.548	36.08875
1093.898	-1.00256
1094.248	26.0674
1094.597	39.10279
1094.947	37.09932
1095.296	0
1095.645	17.04478
1095.994	42.10183
1096.343	30.07651
1096.692	71.19302
1097.041	-14.0383
1097.39	52.13355
1097.739	24.06318
1098.088	55.14841
1098.437	-7.01885
1098.785	10.02702
1099.134	65.17253
1099.482	45.12477
1099.83	0
1100.179	51.136
1100.527	0
1100.875	31.08297
1101.223	2.00538
1101.571	-6.01684
1101.919	66.17638
1102.267	7.01989
1102.615	-4.01292
1102.962	0
1103.31	11.03542
1103.658	9.02904
