Data from N2 R0 105C sample3_Subt2__2__11-55-37-759.txt Node

Date: Tue Aug 19 11:55:37 PDT 2025
User: uwsun
Spectrometer: HDX01956
Trigger mode: 0
Integration Time (sec): 1.000000E-1
Scans to average: 1
Nonlinearity correction enabled: true
Boxcar width: 0
Storing dark spectrum: false
XAxis mode: Wavelengths
Number of Pixels in Spectrum: 2068
>>>>>Begin Spectral Data<<<<<
194.03	5.01468
194.578	1.00326
195.127	-1.00322
195.676	9.02908
196.225	-416.22799
196.773	-325.98161
197.321	-282.85191
197.87	-399.16298
198.418	-423.22562
198.966	-374.09699
199.513	-490.40411
200.061	-432.25046
200.609	-376.10537
201.156	-717.93286
201.704	-448.29533
202.251	-326.96495
202.798	-395.15493
203.345	-498.42031
203.892	-470.35388
204.438	-536.50042
204.985	-532.4965
205.532	-344.00711
206.078	-483.3699
206.624	-494.40847
207.17	-600.66208
207.716	-531.5066
208.262	-933.4144
208.808	-454.2997
209.354	-497.40753
209.899	-457.30617
210.445	-454.302
210.99	-504.42415
211.535	-537.49376
212.08	-581.6212
212.625	-437.25115
213.17	-447.28736
213.715	-620.70517
214.259	-594.64751
214.804	-504.42844
215.348	-657.80605
215.892	-546.52983
216.436	-611.68966
216.98	-681.85545
217.524	-585.63537
218.068	-424.223
218.612	-456.30889
219.155	-591.64656
219.698	-580.62959
220.242	-501.43417
220.785	-616.70694
221.328	-502.43045
221.871	-466.33251
222.414	-500.42813
222.956	-527.49434
223.499	-687.87955
224.041	-628.74289
224.583	-791.10351
225.126	-737.99766
225.668	-564.59378
226.21	-478.3709
226.751	-705.9073
227.293	-630.73866
227.835	-519.47473
228.376	-654.80318
228.918	-463.32999
229.459	-496.42047
230	-601.68165
230.541	-605.68193
231.082	-601.68937
231.622	-648.7816
232.163	-539.52058
232.704	-524.49095
233.244	-525.49936
233.784	-548.55322
234.324	-692.88811
234.864	-655.7909
235.404	-586.6349
235.944	-610.70238
236.484	-548.56299
237.023	-596.672
237.563	-649.79472
238.102	-624.73018
238.641	-461.32501
239.18	-595.65771
239.719	-481.37606
240.258	-706.93486
240.797	-561.57884
241.335	-528.49561
241.874	-911.34299
242.412	-544.53632
242.95	-569.59892
243.488	-638.75632
244.026	-652.7971
244.564	-826.16646
245.102	-669.81986
245.64	-579.62158
246.177	-661.80156
246.715	-555.55815
247.252	-632.73762
247.789	-967.44562
248.326	-540.52455
248.863	-699.89595
249.4	-658.80452
249.936	-860.25864
250.473	-595.6531
251.009	-615.69966
251.546	-724.9634
252.082	-703.89146
252.618	-716.9467
253.154	-539.52058
253.69	-672.82363
254.226	-560.56282
254.761	-650.78653
255.297	-738.98459
255.832	-609.69514
256.367	-570.58829
256.903	-767.06516
257.438	-600.66364
257.972	-662.80112
258.507	-617.70518
259.042	-710.91617
259.576	-720.94188
260.111	-638.76183
260.645	-769.05039
261.179	-617.70944
261.713	-685.87289
262.247	-610.68557
262.781	-771.04085
263.315	-495.40397
263.849	-442.26231
264.382	-659.81326
264.915	-555.54672
265.449	-444.26087
265.982	-629.72801
266.515	-521.4622
267.048	-752.01393
267.58	-699.88009
268.113	-741.99491
268.646	-498.41904
269.178	-657.78609
269.71	-723.95596
270.243	-653.7894
270.775	-449.28745
271.307	-559.56747
271.838	-603.67065
272.37	-499.4115
272.902	-640.74907
273.433	-755.02362
273.965	-510.43545
274.496	-518.46771
275.027	-466.31985
275.558	-510.4324
276.089	-484.37829
276.62	-445.27897
277.15	-530.49314
277.681	-716.9286
278.211	-587.64549
278.741	-682.846
279.272	-662.82007
279.802	-476.35023
280.332	-583.62227
280.861	-541.5179
281.391	-665.82169
281.921	-525.46938
282.45	-479.3683
282.98	-372.07777
283.509	-679.84469
284.038	-636.74255
284.567	-617.69504
285.096	-547.54363
285.625	-651.79294
286.153	-592.63225
286.682	-632.73543
287.21	-506.41465
287.739	-574.60585
288.267	-528.48434
288.795	-411.18873
289.323	-573.59936
289.851	-563.56321
290.378	-666.81779
290.906	-517.45671
291.433	-494.40134
291.961	-646.76321
292.488	-484.3713
293.015	-565.57606
293.542	-412.18069
294.069	-503.41466
294.596	-497.40244
295.122	-555.5491
295.649	-711.91607
296.175	-484.36345
296.702	-515.43917
297.228	-530.48543
297.754	-611.6722
298.28	-632.72995
298.806	-547.53146
299.332	-652.76483
299.857	-638.73417
300.383	-451.28785
300.908	-510.43502
301.433	-551.54691
301.958	-619.69195
302.483	-452.28361
303.008	-474.33768
303.533	-384.10259
304.058	-559.54873
304.582	-549.52527
305.107	-341.99067
305.631	-624.69231
306.155	-558.53655
306.679	-606.66824
307.203	-570.56763
307.727	-548.518
308.251	-454.27652
308.775	-512.42175
309.298	-490.37324
309.822	-402.14143
310.345	-523.45659
310.868	-543.51186
311.391	-503.4181
311.914	-405.14565
312.437	-598.62805
312.96	-555.53237
313.482	-543.50063
314.005	-419.18853
314.527	-327.9492
315.049	-433.22313
315.571	-597.61726
316.093	-436.2292
316.615	-492.37548
317.137	-668.78064
317.659	-465.30291
318.18	-516.42797
318.702	-567.54585
319.223	-715.87531
319.744	-594.60265
320.265	-482.34749
320.786	-421.18631
321.307	-402.12839
321.828	-584.58789
322.348	-507.39932
322.869	-485.34483
323.389	-1225.80269
323.909	-556.50591
324.43	-490.35003
324.95	-532.43948
325.47	-452.26042
325.989	-475.29774
326.509	-607.62524
327.029	-596.60283
327.548	-590.58927
328.067	-417.15568
328.587	-412.15368
329.106	-588.57255
329.625	-321.91958
330.144	-523.42628
330.662	-567.53547
331.181	-490.33087
331.7	-476.29778
332.218	-582.53343
332.736	-469.27316
333.255	-514.39567
333.773	-477.29781
334.291	-388.07601
334.808	-546.46161
335.326	-541.45082
335.844	-464.25653
336.361	-304.85152
336.879	-443.20519
337.396	-450.23658
337.913	-496.32809
338.43	-519.37855
338.947	-483.31415
339.464	-611.59662
339.981	-416.12491
340.497	-386.05743
341.014	-376.03128
341.53	-524.37635
342.046	-400.0962
342.562	-342.94815
343.078	-434.16911
343.594	-425.14984
344.11	-433.16356
344.626	-299.82731
345.141	-496.30756
345.657	-506.32634
346.172	-363.98022
346.687	-459.22144
347.202	-460.1995
347.717	-397.06945
348.232	-317.87048
348.747	-455.20677
349.261	-506.31287
349.776	-402.06935
350.29	-311.85184
350.805	-272.74327
351.319	-418.11309
351.833	-484.26346
352.347	-401.0605
352.861	-415.09173
353.374	-439.14369
353.888	-342.91737
354.401	-449.18132
354.915	-428.10604
355.428	-293.79281
355.941	-404.06756
356.454	-471.21545
356.967	-386.01444
357.48	-461.20395
357.993	-310.8343
358.505	-305.81319
359.018	-293.78146
359.53	-304.80985
360.042	-460.17327
360.554	-326.86382
361.066	-291.77639
361.578	-497.25419
362.09	-337.88144
362.602	-473.20245
363.113	-331.85985
363.625	-399.01725
364.136	-452.14109
364.647	-301.78436
365.158	-371.95808
365.669	-319.83437
366.18	-366.95285
366.691	-460.16379
367.201	-308.80685
367.712	-367.93954
368.222	-388.99623
368.733	-392.98571
369.243	-420.06017
369.753	-296.76089
370.263	-266.69235
370.773	-261.68248
371.282	-296.7638
371.792	-243.61955
372.301	-233.60408
372.811	-110.2925
373.32	-440.07305
373.829	-260.66347
374.338	-324.79191
374.847	-241.60011
375.356	-229.5783
375.865	-382.90647
376.373	-232.5635
376.882	-36.09107
377.39	-118.29198
377.898	-89.22308
378.407	-262.62536
378.915	-278.64138
379.423	-80.19067
379.93	-194.45223
380.438	-26.06266
380.946	-8.01863
381.453	33.0767
381.96	66.14997
382.468	134.29955
382.975	165.36663
383.482	1.00212
383.989	274.6188
384.495	113.23886
385.002	37.07341
385.509	299.61871
386.015	79.14319
386.521	310.5985
387.028	370.68317
387.534	307.55193
388.04	487.89588
388.546	469.81559
389.051	481.79627
389.557	628.03131
390.063	746.17204
390.568	819.29494
391.073	768.13659
391.578	968.46107
392.084	808.10422
392.589	784.97945
393.093	1114.38442
393.598	1223.32325
394.103	1409.41605
394.607	1611.33372
395.112	1944.42519
395.616	2028.28416
396.12	2161.89802
396.624	2431.67119
397.128	2743.46521
397.632	3065.92415
398.136	3282.47802
398.639	3549.2145
399.143	4131.80334
399.646	4591.58483
400.15	5139.99838
400.653	5650.10254
401.156	6488.22236
401.659	7527.26537
402.162	9464.36306
402.664	11334.11932
403.167	16273.85557
403.67	19874.53404
404.172	2696.20453
404.674	0
405.176	0
405.678	0
406.18	0
406.682	0
407.184	0
407.686	25783.58453
408.187	43316.52985
408.688	32890.91293
409.19	22176.20867
409.691	17989.79845
410.192	15256.80022
410.693	13227.73042
411.194	12158.64562
411.694	11942.70253
412.195	11129.67963
412.696	10022.40548
413.196	9182.57842
413.696	9251.72605
414.196	9323.4726
414.696	9479.39788
415.196	9014.88592
415.696	8072.48714
416.196	6275.83866
416.695	4676.79497
417.195	3859.26354
417.694	3536.20616
418.194	3366.50017
418.693	3209.9637
419.192	3152.19675
419.691	3119.25769
420.19	3101.33925
420.688	2962.4832
421.187	2534.3472
421.685	2439.84049
422.184	2207.19824
422.682	1621.25
423.18	1401.44879
423.678	1165.42163
424.176	1022.35969
424.674	778.08034
425.172	865.31469
425.669	954.52788
426.167	657.09678
426.664	502.8811
427.161	408.736
427.659	466.91179
428.156	128.23775
428.652	451.952
429.149	277.58371
429.646	81.16438
430.143	214.45661
430.639	107.23351
431.135	235.53278
431.632	9.01983
432.128	42.09668
432.624	87.21136
433.12	-154.35234
433.616	-222.50117
434.111	-61.14301
434.607	-58.13818
435.103	-340.76688
435.598	-347.78475
436.093	-138.33079
436.588	-315.74334
437.083	-298.71236
437.578	-282.69209
438.073	-117.2998
438.568	-216.54869
439.062	-429.02847
439.557	-285.71583
440.051	-371.916
440.546	-360.89585
441.04	-274.70484
441.534	-126.33057
442.028	-288.73542
442.522	-281.72095
443.015	-469.15895
443.509	-241.62525
444.002	-272.71063
444.496	-460.14643
444.989	-302.78602
445.482	-255.67201
445.975	-391.99885
446.468	-507.25208
446.961	-530.3259
447.454	-458.15708
447.947	-337.87783
448.439	-364.947
448.931	-426.08565
449.424	-298.79492
449.916	-322.84923
450.408	-479.22587
450.9	-330.87441
451.392	-267.71473
451.884	-449.15299
452.375	-283.76203
452.867	-489.24931
453.358	-461.18797
453.849	-600.50602
454.341	-511.31835
454.832	-576.45711
455.323	-357.95271
455.814	-455.1818
456.304	-459.18935
456.795	-484.26002
457.285	-567.44879
457.776	-508.30992
458.266	-425.12259
458.756	-430.13563
459.247	-419.11299
459.737	-407.08465
460.226	-520.35061
460.716	-401.06969
461.206	-438.17414
461.695	-380.02838
462.185	-493.30116
462.674	-481.26903
463.163	-605.55944
463.653	-648.65383
464.142	-426.14491
464.63	-407.10391
465.119	-535.41448
465.608	-493.30551
466.096	-622.60521
466.585	-507.33502
467.073	-491.31663
467.561	-484.30314
468.05	-528.40318
468.538	-411.11298
469.026	-479.29071
469.513	-549.45298
470.001	-580.52559
470.489	-482.29901
470.976	-532.41522
471.463	-428.17455
471.951	-437.201
472.438	-520.39196
472.925	-546.46209
473.412	-478.30282
473.899	-575.51929
474.385	-482.31919
474.872	-510.37678
475.359	-486.34068
475.845	-742.90626
476.331	-754.95316
476.817	-519.42258
477.303	-588.58285
477.789	-526.43881
478.275	-457.26079
478.761	-500.36937
479.247	-616.64149
479.732	-427.18528
480.218	-368.04095
480.703	-473.31722
481.188	-722.88248
481.673	-601.6118
482.158	-700.8363
482.643	-454.26757
483.128	-622.67276
483.612	-591.601
484.097	-535.47064
484.581	-616.6604
485.066	-512.41822
485.55	-679.8013
486.034	-740.93332
486.518	-560.53235
487.002	-484.35517
487.486	-515.4272
487.969	-487.35499
488.453	-488.36679
488.936	-631.6989
489.42	-710.88069
489.903	-496.39305
490.386	-1172.7766
490.869	-748.97798
491.352	-530.46811
491.835	-809.0922
492.318	-601.63177
492.8	-791.05684
493.283	-418.188
493.765	-503.4082
494.247	-604.64228
494.73	-711.90176
495.212	-554.53224
495.694	-586.59741
496.175	-558.54716
496.657	-587.61262
497.139	-1051.54955
497.62	-579.60215
498.102	-507.42722
498.583	-519.46634
499.064	-642.73608
499.545	-649.76491
500.026	-693.87727
500.507	-607.65915
500.988	-480.35381
501.469	-474.34616
501.949	-503.41552
502.43	-563.56272
502.91	-800.09897
503.39	-510.43458
503.87	-582.61322
504.35	-622.71013
504.83	-712.91098
505.31	-592.65571
505.79	-559.56171
506.269	-604.66639
506.749	-662.80572
507.228	-592.6389
507.707	-710.91183
508.187	-624.7248
508.666	-517.4598
509.145	-575.58711
509.623	-611.67591
510.102	-531.48163
510.581	-583.61574
511.059	-483.3736
511.538	-438.25532
512.016	-538.5014
512.494	-541.51512
512.972	-592.64247
513.45	-609.68255
513.928	-510.43589
514.406	-499.39956
514.884	-424.21907
515.361	-543.51466
515.839	-654.79242
516.316	-543.51793
516.793	-485.38546
517.27	-590.64454
517.747	-429.2322
518.224	-612.68634
518.701	-663.80643
519.178	-541.53038
519.654	-610.69504
520.131	-526.48366
520.607	-531.50072
521.083	-639.7455
521.56	-580.61915
522.036	-701.88424
522.512	-557.56042
522.987	-580.61865
523.463	-562.56889
523.939	-553.56151
524.414	-649.78069
524.89	-592.64451
525.365	-636.73482
525.84	-557.56424
526.315	-541.51744
526.79	-683.86387
527.265	-615.69062
527.74	-552.55232
528.215	-573.59246
528.689	-689.86344
529.164	-734.95583
529.638	-425.22535
530.112	-576.60402
530.587	-760.02871
531.061	-546.5317
531.534	-564.57108
532.008	-551.5455
532.482	-690.87906
532.956	-463.32803
533.429	-548.53497
533.903	-712.91036
534.376	-734.98217
534.849	-636.75741
535.322	-584.61826
535.795	-543.52862
536.268	-593.65468
536.741	-582.62474
537.213	-645.77419
537.686	-535.51203
538.158	-703.90863
538.631	-573.60379
539.103	-656.78765
539.575	-819.1369
540.047	-720.9337
540.519	-551.53509
540.991	-541.52021
541.463	-543.52212
541.934	-639.75049
542.406	-558.55676
542.877	-645.76581
543.348	-548.53497
543.82	-551.54644
544.291	-626.72221
544.762	-569.573
545.233	-478.36159
545.703	-686.85144
546.174	-611.68438
546.645	-555.55577
547.115	-513.43753
547.585	-636.7409
548.056	-503.41724
548.526	-536.48844
548.996	-556.54688
549.466	-542.51815
549.935	-550.52591
550.405	-686.83823
550.875	-572.58451
551.344	-518.44466
551.814	-591.61951
552.283	-744.97461
552.752	-573.5806
553.221	-613.64614
553.69	-679.82276
554.159	-451.27212
554.628	-628.70042
555.096	-376.07385
555.565	-630.70639
556.033	-556.5296
556.502	-488.35925
556.97	-641.71852
557.438	-529.45642
557.906	-522.43646
558.374	-589.60585
558.842	-511.40904
559.31	-593.59138
559.777	-489.35762
560.245	-511.4024
560.712	-488.32543
561.18	-553.48399
561.647	-564.50685
562.114	-538.4529
562.581	-403.11891
563.048	-506.36774
563.514	-390.08191
563.981	-507.35779
564.448	-525.40005
564.914	-431.16082
565.381	-459.2178
565.847	-409.10398
566.313	-353.94297
566.779	-490.28609
567.245	-344.92122
567.711	-314.85333
568.176	-401.05128
568.642	-173.47498
569.108	-183.49619
569.573	-211.56038
570.038	-371.9341
570.504	-296.75664
570.969	-24.06477
571.434	-227.57856
571.899	-87.22752
572.363	-149.37871
572.828	-134.3392
573.293	-93.23563
573.757	-100.25178
574.222	-20.04962
574.686	-11.02745
575.15	45.11454
575.614	13.0323
576.078	95.23881
576.542	55.13482
577.006	48.11694
577.469	247.62264
577.933	123.29904
578.396	150.37061
578.86	208.50975
579.323	262.64943
579.786	64.15031
580.249	145.3553
580.712	250.62467
581.175	234.59188
581.637	144.34491
582.1	80.19045
582.563	18.04214
583.025	233.5823
583.487	-23.05251
583.95	63.14978
584.412	25.05811
584.874	208.51673
585.336	173.42736
585.797	32.07554
586.259	153.37782
586.721	141.34767
587.182	119.29084
587.643	105.25366
588.105	204.50347
588.566	-24.05549
589.027	179.45092
589.488	88.21447
589.949	244.60504
590.41	-106.23784
590.87	55.13302
591.331	54.12519
591.791	195.4755
592.252	183.44258
592.712	203.50091
593.172	186.44398
593.632	169.39466
594.092	176.41496
594.552	186.42521
595.011	299.7045
595.471	303.68749
595.931	355.80153
596.39	543.27205
596.849	496.13617
597.308	422.92221
597.768	749.7816
598.227	671.50218
598.685	639.37403
599.144	759.64561
599.603	879.89622
600.062	795.57421
600.52	940.88379
600.978	1049.14768
601.437	1067.08851
601.895	1135.04185
602.353	1331.3801
602.811	1427.56033
603.269	1700.06472
603.727	1771.15264
604.184	1784.96866
604.642	2091.49471
605.099	2028.19402
605.557	2346.62972
606.014	2368.17667
606.471	2778.97548
606.928	2619.26579
607.385	3047.96737
607.842	3002.42724
608.299	3247.62851
608.755	3449.7821
609.212	3521.23432
609.668	3761.24744
610.125	4102.5725
610.581	4205.34804
611.037	4341.06189
611.493	4536.17849
611.949	4807.43649
612.405	4649.1644
612.861	5016.88486
613.316	5296.89442
613.772	5399.60496
614.227	5511.74406
614.683	5410.08357
615.138	5700.52178
615.593	5833.42022
616.048	5801.24881
616.503	5981.66
616.958	6209.81497
617.412	6156.36221
617.867	6074.00406
618.321	6009.66002
618.776	6147.99106
619.23	6146.29307
619.684	6216.05107
620.138	6139.20329
620.592	6128.58546
621.046	6061.29212
621.5	6102.65756
621.954	5857.16783
622.407	5729.15466
622.861	5911.64382
623.314	5622.31847
623.768	5686.49253
624.221	5269.76403
624.674	5452.50625
625.127	5480.57007
625.58	5414.42446
626.033	5281.2394
626.485	5246.91008
626.938	5244.82692
627.39	5198.75385
627.843	5107.73164
628.295	5096.65859
628.747	5070.92555
629.199	5071.62428
629.651	5031.67726
630.103	5049.74009
630.555	4851.26549
631.006	5069.80539
631.458	5092.88507
631.909	5104.55435
632.361	5145.7377
632.812	5201.69073
633.263	5059.23155
633.714	5238.06077
634.165	5535.87176
634.616	5569.67878
635.067	5484.10846
635.518	5803.49179
635.968	5705.46416
636.419	5877.87305
636.869	6157.28011
637.319	6398.06155
637.769	6490.90129
638.219	6859.04651
638.669	7025.16301
639.119	7431.37065
639.569	7584.28602
640.019	7929.24953
640.468	8107.284
640.918	8565.97222
641.367	8652.92571
641.816	9220.89053
642.265	9533.56844
642.714	9911.5096
643.163	10352.79983
643.612	10734.97764
644.061	10866.85955
644.51	11440.03496
644.958	11646.3566
645.406	12253.03585
645.855	12690.42917
646.303	12906.32331
646.751	13320.25338
647.199	13917.03788
647.647	14182.03883
648.095	14570.22879
648.543	14685.12629
648.99	15244.27049
649.438	15618.09105
649.885	15878.78437
650.333	15719.27403
650.78	16578.52246
651.227	16601.56507
651.674	16668.14163
652.121	17012.74242
652.568	17165.29137
653.015	17296.36028
653.461	17174.00712
653.908	17183.51466
654.354	17056.78161
654.801	17018.39579
655.247	17086.57669
655.693	17041.29413
656.139	16951.13526
656.585	16788.52146
657.031	16732.05427
657.477	16565.7138
657.922	16531.10416
658.368	16548.08921
658.813	16144.10991
659.259	16212.81871
659.704	16145.89384
660.149	16172.82613
660.594	15772.40109
661.039	15489.30813
661.484	15454.35105
661.929	15313.1691
662.373	15386.23993
662.818	15252.35933
663.262	15170.21628
663.707	15063.41358
664.151	14970.1222
664.595	15166.31256
665.039	15086.89948
665.483	15221.74695
665.927	15134.38216
666.371	15119.27287
666.814	15063.43184
667.258	15180.24194
667.701	15289.37493
668.145	15611.03755
668.588	15554.80931
669.031	15577.35052
669.474	15806.5981
669.917	15602.12806
670.36	16079.72585
670.803	16183.82025
671.245	16133.48215
671.688	16462.6105
672.13	16532.68915
672.573	16604.4691
673.015	16846.89574
673.457	16787.31937
673.899	17042.38177
674.341	17272.91114
674.783	17065.66401
675.225	17388.09163
675.666	17544.8425
676.108	17352.29623
676.549	17678.44432
676.991	17547.90417
677.432	17393.8629
677.873	17473.48563
678.314	17566.66828
678.755	17476.18232
679.196	17212.30485
679.637	17167.66173
680.078	16724.45255
680.518	16905.5566
680.959	16765.96942
681.399	16628.77464
681.839	16273.45885
682.28	16241.7356
682.72	15896.38133
683.16	15950.74333
683.6	15362.33024
684.039	14913.2327
684.479	15217.37286
684.919	14926.40693
685.358	14787.99839
685.798	14889.33362
686.237	14447.70504
686.676	14190.31299
687.115	14098.23371
687.554	13897.47275
687.993	13668.54093
688.432	13455.42363
688.871	13260.9642
689.309	13171.96577
689.748	12911.66889
690.186	12900.2122
690.625	12926.52966
691.063	12928.20031
691.501	12718.74326
691.939	12757.85146
692.377	12587.98327
692.815	12463.32672
693.253	12279.25043
693.69	12052.56354
694.128	12121.2413
694.565	12017.89592
695.003	11796.34865
695.44	11618.88667
695.877	11519.38312
696.314	11258.72386
696.751	11159.00152
697.188	11149.85886
697.625	10928.99176
698.061	11000.05892
698.498	10773.21374
698.934	10602.5786
699.371	10593.58922
699.807	10442.09072
700.243	10247.43381
700.679	9826.29387
701.115	9972.67683
701.551	9745.07338
701.987	9541.57963
702.422	9464.43807
702.858	9448.39031
703.294	9187.81331
703.729	9124.82687
704.164	8942.49888
704.599	8679.93166
705.035	8541.79802
705.47	8721.27012
705.904	8442.79218
706.339	8302.48604
706.774	8213.51912
707.209	8013.31412
707.643	7984.45577
708.078	7918.5467
708.512	7753.57786
708.946	7619.15209
709.38	7466.09173
709.814	7368.87577
710.248	7262.1691
710.682	7307.12677
711.116	7051.19354
711.549	6961.5366
711.983	6835.92121
712.416	6634.04834
712.85	6683.43185
713.283	6485.14866
713.716	6413.45422
714.149	6148.16555
714.582	6121.9587
715.015	6092.49523
715.448	5919.7202
715.881	5602.83758
716.313	5581.41692
716.746	5611.47959
717.178	5489.61409
717.61	5595.85185
718.043	5403.87217
718.475	5210.75941
718.907	5278.06631
719.339	4960.58799
719.77	4944.87943
720.202	4938.2779
720.634	4770.23841
721.065	4814.9282
721.497	4736.18208
721.928	4571.34515
722.359	4579.31301
722.79	4495.30408
723.221	4417.47579
723.652	4368.61697
724.083	4025.08024
724.514	4053.09658
724.945	4005.28499
725.375	4008.33029
725.806	3905.59739
726.236	3972.80164
726.666	3754.38744
727.096	3872.61754
727.526	3755.88859
727.956	3607.17698
728.386	3670.6328
728.816	3580.87384
729.246	3522.72276
729.675	3455.77845
730.105	3398.5944
730.534	3239.42146
730.964	3420.8026
731.393	3290.66153
731.822	3410.9517
732.251	3296.87653
732.68	3150.38181
733.109	3290.69063
733.537	3145.63397
733.966	3204.87155
734.395	2985.34903
734.823	2864.14071
735.251	3128.65987
735.68	3038.81193
736.108	3080.84773
736.536	2920.42472
736.964	2880.40303
737.392	3018.81281
737.82	2841.5559
738.247	2821.50111
738.675	2815.47912
739.102	2898.83937
739.53	2954.94734
739.957	2957.00998
740.384	2786.59903
740.811	2882.81951
741.238	2861.65666
741.665	2543.2827
742.092	2736.49658
742.519	2759.72001
742.945	2700.53726
743.372	2768.74563
743.798	2749.93362
744.225	2619.45643
744.651	2697.7594
745.077	2767.74774
745.503	2684.58369
745.929	2611.48766
746.355	2696.67617
746.781	2726.69791
747.207	2643.50747
747.632	2615.69025
748.058	2765.75667
748.483	2544.28729
748.908	2658.67906
749.334	2681.66975
749.759	2536.32829
750.184	2642.5162
750.609	2752.68561
751.033	2646.39381
751.458	2582.12943
751.883	2735.68157
752.307	2689.46188
752.732	2818.87144
753.156	2722.75027
753.58	2662.47842
754.005	2849.80607
754.429	2618.42723
754.853	2658.67678
755.277	2693.37875
755.7	2759.73174
756.124	2757.7336
756.548	2612.49016
756.971	2694.51762
757.394	2868.99441
757.818	2905.93864
758.241	2828.86656
758.664	2916.89641
759.087	2620.19554
759.51	2792.69911
759.933	2752.59238
760.356	2884.89538
760.778	2847.76718
761.201	2736.59362
761.623	2704.50156
762.046	2764.44833
762.468	2665.38897
762.89	2756.62582
763.312	2877.70481
763.734	2804.54336
764.156	2790.69161
764.578	2652.32579
765	2799.64618
765.421	2856.90659
765.843	2876.03272
766.264	2744.53508
766.686	2764.70008
767.107	2678.52982
767.528	2774.86514
767.949	2760.85663
768.37	2680.53485
768.791	2614.5331
769.212	2703.80976
769.632	2554.35943
770.053	2751.07107
770.473	2626.55222
770.894	2547.62177
771.314	2426.30102
771.734	2400.29337
772.154	2519.74434
772.575	2391.19115
772.994	2322.12489
773.414	2404.37792
773.834	2503.67424
774.254	2539.63414
774.673	2388.44172
775.093	2364.54632
775.512	2329.47731
775.931	2298.6187
776.351	2262.49719
776.77	2244.43328
777.189	2167.23217
777.607	2285.65532
778.026	2251.54435
778.445	2173.52723
778.864	2146.56387
779.282	2067.24448
779.701	2006.35732
780.119	2118.61312
780.537	1955.33323
780.955	1979.34264
781.373	1896.20023
781.791	1685.67763
782.209	1742.77153
782.627	2001.65679
783.045	1703.80437
783.462	1876.35857
783.88	1839.35916
784.297	1726.13529
784.715	1779.28924
785.132	1600.88312
785.549	1653.04925
785.966	1621.00321
786.383	1526.82278
786.8	1363.45
787.217	1437.60322
787.633	1504.86007
788.05	1308.39673
788.466	1233.24475
788.883	1440.82748
789.299	1283.44173
789.715	1301.51776
790.131	1275.55727
790.547	1218.42548
790.963	1238.4892
791.379	1285.59736
791.795	1045.96899
792.21	1039.00971
792.626	954.91276
793.041	1112.28961
793.457	1071.22131
793.872	922.85193
794.287	957.96329
794.702	974.02568
795.117	990.10629
795.532	1010.16094
795.947	852.77873
796.362	740.57815
796.776	712.46321
797.191	793.72666
797.605	747.60582
798.02	740.60813
798.434	546.11054
798.848	715.59944
799.262	689.56715
799.676	586.3039
800.09	677.53735
800.504	572.27271
800.918	493.08604
801.331	658.54622
801.745	382.84539
802.158	500.17415
802.572	442.00376
802.985	413.94764
803.398	357.82246
803.811	449.07119
804.224	370.87462
804.637	339.79065
805.05	205.4693
805.462	299.71461
805.875	389.97168
806.288	251.60426
806.7	317.77667
807.112	88.20547
807.525	190.46547
807.937	172.4245
808.349	181.45138
808.761	146.36086
809.173	48.11882
809.584	74.18452
809.996	59.14831
810.408	200.51523
810.819	-31.07672
811.231	213.55737
811.642	2.00508
812.053	29.07316
812.464	-13.03254
812.875	51.13292
813.286	45.11844
813.697	-177.44157
814.108	-69.1755
814.519	-290.70592
814.929	-50.13158
815.34	-114.29563
815.75	-70.18595
816.16	-158.4148
816.571	-96.25714
816.981	-276.70404
817.391	-211.54969
817.801	-155.41318
818.211	-330.84944
818.62	-236.61891
819.03	-271.7144
819.44	-132.35832
819.849	-229.61121
820.259	-208.55857
820.668	-258.68848
821.077	-228.61246
821.486	-341.89523
821.895	-353.94266
822.304	-161.44763
822.713	-394.03621
823.122	-325.88193
823.531	-395.0439
823.939	-397.06979
824.348	-368.98837
824.756	-320.87299
825.164	-365.99489
825.573	-307.8473
825.981	-392.06161
826.389	-354.9728
826.797	-409.11255
827.205	-525.38246
827.612	-413.12669
828.02	-510.36068
828.428	-345.95811
828.835	-297.8397
829.243	-491.3248
829.65	-423.15989
830.057	-464.25977
830.464	-499.35903
830.871	-516.38757
831.278	-511.38015
831.685	-628.63632
832.092	-462.26439
832.499	-722.87288
832.905	-412.13914
833.312	-629.66645
833.718	-452.246
834.124	-661.74948
834.531	-469.30163
834.937	-456.26806
835.343	-535.45902
835.749	-676.80552
836.155	-414.17696
836.561	-503.39044
836.966	-550.51499
837.372	-462.29667
837.777	-495.38238
838.183	-769.01863
838.588	-568.57146
838.993	-560.5343
839.399	-569.573
839.804	-590.63285
840.209	-448.26805
840.613	-747.9783
841.018	-507.41723
841.423	-498.41015
841.828	-478.34613
842.232	-576.59907
842.637	-650.77695
843.041	-470.33799
843.445	-535.50151
843.849	-592.65164
844.253	-631.7231
844.657	-513.44719
845.061	-709.8989
845.465	-628.73802
845.869	-693.8827
846.272	-596.65768
846.676	-655.80169
847.079	-468.32672
847.483	-592.65266
847.886	-669.83728
848.289	-421.22264
848.692	-536.51371
849.095	-615.69594
849.498	-552.54381
849.901	-750.01381
850.304	-628.72716
850.707	-551.55774
851.109	-560.56859
851.512	-562.56889
851.914	-506.44185
852.316	-574.61126
852.718	-507.45692
853.121	-597.66123
853.523	-678.86111
853.925	-450.29507
854.326	-598.68017
854.728	-487.39035
855.13	-476.36516
855.531	-632.7529
855.933	-692.89412
856.334	-581.63811
856.736	-763.04106
857.137	-730.9841
857.538	-540.53099
857.939	-563.58254
858.34	-647.79923
858.741	-501.44094
859.142	-652.80217
859.542	-454.31537
859.943	-605.69802
860.343	-590.65416
860.744	-647.79756
861.144	-670.85421
861.544	-646.80172
861.945	-533.52718
862.345	-648.80395
862.745	-581.64554
863.145	-689.89158
863.544	-593.68306
863.944	-743.03086
864.344	-609.70716
864.743	-631.76288
865.143	-533.52313
865.542	-736.0063
865.941	-577.6219
866.34	-676.8603
866.74	-467.36147
867.139	-656.82452
867.537	-574.6323
867.936	-653.81085
868.335	-560.59533
868.734	-512.46893
869.132	-710.94027
869.531	-707.95075
869.929	-740.00886
870.327	-656.81831
870.726	-637.78291
871.124	-712.94944
871.522	-567.6184
871.92	-618.73689
872.318	-639.78028
872.715	-657.83154
873.113	-648.81785
873.511	-575.6305
873.908	-559.60218
874.306	-578.63483
874.703	-611.72009
875.1	-561.59651
875.497	-653.81534
875.894	-624.76014
876.291	-649.81203
876.688	-483.38913
877.085	-696.91591
877.482	-612.72682
877.878	-686.91204
878.275	-550.5687
878.671	-839.24362
879.068	-691.92092
879.464	-686.90733
879.86	-735.02169
880.256	-635.77786
880.652	-571.62837
881.048	-639.78905
881.444	-739.02312
881.84	-560.5882
882.236	-608.71864
882.631	-623.75546
883.027	-695.92306
883.422	-575.64124
883.817	-538.53674
884.213	-546.56744
884.608	-627.76351
885.003	-654.82346
885.398	-571.62498
885.793	-618.74954
886.188	-567.60492
886.582	-577.63323
886.977	-714.97035
887.371	-633.78795
887.766	-607.71866
888.16	-621.75088
888.554	-669.87129
888.949	-628.7741
889.343	-673.87149
889.737	-429.25807
890.131	-634.78834
890.525	-569.62363
890.918	-636.79831
891.312	-748.05326
891.706	-564.6196
892.099	-618.75217
892.492	-883.33414
892.886	-666.85633
893.279	-569.6294
893.672	-631.78767
894.065	-626.76738
894.458	-553.56857
894.851	-652.81845
895.244	-583.66358
895.637	-677.88436
896.029	-669.86899
896.422	-683.90808
896.814	-649.83035
897.206	-730.02082
897.599	-643.79142
897.991	-700.94261
898.383	-693.91932
898.775	-819.20302
899.167	-723.98736
899.559	-597.69187
899.951	-749.05633
900.342	-608.7233
900.734	-603.71605
901.125	-520.50371
901.517	-637.79054
901.908	-707.94891
902.299	-619.74683
902.69	-716.97463
903.082	-666.84659
903.473	-674.87688
903.863	-573.63504
904.254	-740.02938
904.645	-625.76003
905.036	-660.84358
905.426	-812.19021
905.817	-631.76936
906.207	-691.92033
906.597	-786.14738
906.987	-530.52194
907.378	-621.75882
907.768	-487.41373
908.158	-662.84689
908.547	-537.5468
908.937	-584.66074
909.327	-653.82432
909.717	-603.70682
910.106	-706.95682
910.495	-607.7109
910.885	-579.65118
911.274	-628.77624
911.663	-625.77121
912.052	-668.86592
912.441	-596.69081
912.83	-765.08106
913.219	-528.51975
913.608	-670.87092
913.997	-599.70314
914.385	-727.00093
914.774	-674.87862
915.162	-707.96719
915.55	-681.88787
915.939	-596.69334
916.327	-654.83299
916.715	-581.65738
917.103	-667.86169
917.491	-666.86204
917.878	-685.90366
918.266	-578.652
918.654	-555.59165
919.041	-505.46052
919.429	-722.99054
919.816	-610.72949
920.203	-663.84883
920.591	-658.84926
920.978	-706.95985
921.365	-516.49344
921.752	-702.94634
922.139	-853.26162
922.525	-672.87708
922.912	-672.86842
923.299	-625.76642
923.685	-524.51528
924.072	-814.19489
924.458	-642.80761
924.844	-626.76418
925.231	-735.00389
925.617	-562.60531
926.003	-581.65639
926.389	-600.70573
926.774	-582.65307
927.16	-632.78054
927.546	-526.50467
927.931	-604.70064
928.317	-795.14748
928.702	-767.1031
929.088	-701.93602
929.473	-572.62321
929.858	-666.86262
930.243	-673.86512
930.628	-644.80994
931.013	-623.75546
931.398	-800.16063
931.783	-533.53751
932.167	-641.80397
932.552	-628.76284
932.937	-652.83352
933.321	-599.69958
933.705	-589.67421
934.09	-651.84265
934.474	-740.03576
934.858	-558.60801
935.242	-757.06848
935.626	-557.6002
936.009	-530.53442
936.393	-576.63505
936.777	-572.63824
937.16	-567.63133
937.544	-760.07766
937.927	-559.59603
938.311	-679.88875
938.694	-527.52551
939.077	-708.96235
939.46	-711.96055
939.843	-935.44598
940.226	-580.6636
940.609	-740.02682
940.991	-576.64287
941.374	-666.86775
941.757	-665.8584
942.139	-783.12051
942.522	-768.10219
942.904	-701.94629
943.286	-612.73516
943.668	-532.52903
944.05	-629.76322
944.432	-611.72426
944.814	-685.9119
945.196	-645.81633
945.578	-675.8869
945.959	-729.99752
946.341	-721.9968
946.722	-761.08336
947.104	-710.96911
947.485	-770.10567
947.866	-555.58649
948.247	-624.76333
948.628	-695.92904
949.009	-534.52757
949.39	-646.81887
949.771	-748.03902
950.152	-651.83433
950.532	-635.79792
950.913	-690.91547
951.293	-459.35338
951.674	-635.78547
952.054	-612.7362
952.434	-654.84138
952.814	-732.02321
953.194	-549.57953
953.574	-683.90339
953.954	-736.03427
954.334	-613.73095
954.714	-652.82627
955.093	-674.88093
955.473	-632.78324
955.853	-571.63899
956.232	-448.3159
956.611	-725.00604
956.99	-579.64529
957.37	-577.6489
957.749	-700.9402
958.128	-591.68741
958.506	-497.43695
958.885	-596.69891
959.264	-604.70425
959.643	-808.17379
960.021	-624.7628
960.4	-815.21211
960.778	-636.77657
961.156	-586.66194
961.535	-773.10886
961.913	-764.09653
962.291	-528.52597
962.669	-629.78842
963.047	-611.74295
963.424	-589.6792
963.802	-636.788
964.18	-605.71454
964.557	-797.17018
964.935	-734.02115
965.312	-553.59197
965.69	-644.81214
966.067	-674.88786
966.444	-671.87458
966.821	-556.58629
967.198	-686.90319
967.575	-694.92955
967.952	-736.01204
968.329	-668.86534
968.705	-926.42368
969.082	-548.57272
969.458	-664.85589
969.835	-692.92994
970.211	-554.59508
970.587	-627.76244
970.963	-580.65477
971.339	-525.51619
971.715	-623.75546
972.091	-663.86359
972.467	-637.80087
972.843	-642.81199
973.219	-741.03564
973.594	-474.37378
973.97	-735.01978
974.345	-723.01167
974.721	-731.01824
975.096	-679.88525
975.471	-731.01446
975.846	-696.92192
976.221	-552.58001
976.596	-685.90425
976.971	-649.81926
977.346	-780.11882
977.72	-573.6365
978.095	-540.55203
978.469	-728.004
978.844	-643.81179
979.218	-728.01778
979.593	-734.03
979.967	-673.87554
980.341	-790.1405
980.715	-593.68457
981.089	-655.8428
981.463	-745.03826
981.837	-647.81366
982.21	-774.10253
982.584	-688.91643
982.957	-605.71506
983.331	-733.01745
983.704	-708.96966
984.078	-645.81743
984.451	-669.87358
984.824	-658.84082
985.197	-700.94983
985.57	-629.78147
985.943	-669.86555
986.316	-665.8584
986.688	-716.98451
987.061	-724.99229
987.434	-547.57975
987.806	-690.92673
988.179	-711.96177
988.551	-597.70403
988.923	-653.83047
989.295	-686.92028
989.667	-683.90105
990.039	-613.72833
990.411	-786.13444
990.783	-789.13745
991.155	-652.82739
991.527	-683.90339
991.898	-601.69707
992.27	-652.83018
992.641	-630.77652
993.012	-751.05923
993.384	-738.03026
993.755	-555.58696
994.126	-715.98143
994.497	-649.8226
994.868	-791.15727
995.239	-682.88858
995.61	-584.65875
995.98	-655.83608
996.351	-637.79218
996.722	-724.98979
997.092	-711.96361
997.462	-740.03704
997.833	-759.08837
998.203	-709.96787
998.573	-664.87688
998.943	-751.07089
999.313	-697.93998
999.683	-670.8692
1000.053	-774.10723
1000.423	-681.88376
1000.792	-531.53264
1001.162	-651.8165
1001.531	-650.82679
1001.901	-576.63113
1002.27	-838.2457
1002.639	-554.58433
1003.009	-744.04549
1003.378	-617.75954
1003.747	-713.97282
1004.116	-704.95491
1004.485	-736.02603
1004.853	-596.69284
1005.222	-634.79266
1005.591	-718.97145
1005.959	-789.13882
1006.328	-807.16934
1006.696	-659.83938
1007.064	-625.76802
1007.433	-625.75896
1007.801	-671.86305
1008.169	-640.80907
1008.537	-849.26738
1008.905	-755.07411
1009.273	-679.89691
1009.64	-698.94786
1010.008	-693.91633
1010.375	-751.05468
1010.743	-807.1876
1011.11	-704.94217
1011.478	-651.82431
1011.845	-734.00212
1012.212	-796.15399
1012.579	-679.89517
1012.946	-717.97088
1013.313	-740.02874
1013.68	-839.24728
1014.047	-691.91676
1014.414	-723.99735
1014.78	-651.82821
1015.147	-704.93791
1015.513	-683.89635
1015.88	-618.75532
1016.246	-732.04393
1016.612	-838.25885
1016.978	-661.84892
1017.344	-601.6868
1017.71	-712.96914
1018.076	-756.06869
1018.442	-588.67411
1018.808	-606.71041
1019.174	-605.71711
1019.539	-830.22427
1019.905	-733.01112
1020.27	-636.79343
1020.636	-707.95441
1021.001	-737.03608
1021.366	-701.9487
1021.731	-617.75954
1022.096	-591.68039
1022.461	-745.05049
1022.826	-750.0691
1023.191	-537.55086
1023.556	-730.00194
1023.92	-677.88726
1024.285	-658.83235
1024.649	-646.80505
1025.014	-633.77876
1025.378	-605.71557
1025.742	-632.78485
1026.107	-849.28368
1026.471	-796.15537
1026.835	-613.72886
1027.199	-631.76774
1027.562	-774.11125
1027.926	-678.89034
1028.29	-582.66245
1028.654	-795.16198
1029.017	-683.90281
1029.381	-720.99744
1029.744	-620.76626
1030.107	-767.10906
1030.471	-729.00077
1030.834	-818.20069
1031.197	-737.02846
1031.56	-754.06452
1031.923	-565.62176
1032.286	-768.1002
1032.648	-688.90755
1033.011	-801.16299
1033.374	-788.14944
1033.736	-502.455
1034.099	-658.84364
1034.461	-610.72585
1034.823	-643.81015
1035.185	-606.71506
1035.548	-667.86684
1035.91	-701.93844
1036.272	-852.2936
1036.634	-694.92657
1036.995	-721.98498
1037.357	-675.88459
1037.719	-730.02395
1038.08	-741.0318
1038.442	-757.08613
1038.803	-703.9385
1039.165	-579.65118
1039.526	-703.95365
1039.887	-710.96911
1040.248	-670.8824
1040.609	-688.91938
1040.97	-657.84112
1041.331	-608.72795
1041.692	-713.97159
1042.053	-806.18104
1042.413	-757.06323
1042.774	-689.91477
1043.134	-706.94646
1043.495	-639.8038
1043.855	-698.94426
1044.215	-627.7694
1044.576	-697.94895
1044.936	-806.18174
1045.296	-628.7682
1045.656	-673.87207
1046.016	-733.02818
1046.375	-712.97649
1046.735	-811.19633
1047.095	-762.08247
1047.454	-941.45336
1047.814	-703.9476
1048.173	-759.05881
1048.533	-798.15662
1048.892	-681.90016
1049.251	-617.74539
1049.61	-657.83999
1049.969	-691.90723
1050.328	-889.34296
1050.687	-688.91525
1051.046	-708.96357
1051.405	-625.77174
1051.763	-779.11915
1052.122	-628.77249
1052.48	-714.98879
1052.839	-739.02376
1053.197	-749.06408
1053.555	-905.41523
1053.914	-696.92972
1054.272	-732.01564
1054.63	-643.80465
1054.988	-691.90305
1055.345	-899.36614
1055.703	-704.9446
1056.061	-564.60959
1056.419	-559.60548
1056.776	-718.98262
1057.134	-765.08173
1057.491	-629.77021
1057.848	-665.86295
1058.206	-732.00426
1058.563	-869.30859
1058.92	-823.2188
1059.277	-670.87494
1059.634	-745.03117
1059.991	-702.93908
1060.348	-822.22718
1060.704	-715.98266
1061.061	-812.20855
1061.418	-703.95365
1061.774	-658.85095
1062.131	-487.4174
1062.487	-768.10551
1062.843	-645.80916
1063.199	-628.7773
1063.555	-750.05097
1063.911	-642.81308
1064.267	-967.49116
1064.623	-668.86075
1064.979	-722.97241
1065.335	-741.03436
1065.691	-733.02124
1066.046	-947.48983
1066.402	-777.10764
1066.757	-622.75715
1067.112	-698.94666
1067.468	-647.79756
1067.823	-674.86702
1068.178	-729.01836
1068.533	-678.8851
1068.888	-724.99104
1069.243	-648.81341
1069.598	-689.92365
1069.952	-806.17824
1070.307	-603.70528
1070.662	-741.03436
1071.016	-822.20284
1071.371	-812.18313
1071.725	-736.0292
1072.079	-710.95503
1072.434	-674.8844
1072.788	-697.92257
1073.142	-643.8019
1073.496	-736.02222
1073.85	-786.12146
1074.203	-628.75584
1074.557	-485.41116
1074.911	-750.05227
1075.265	-788.14875
1075.618	-698.93586
1075.971	-742.04447
1076.325	-595.69832
1076.678	-761.06952
1077.031	-793.13862
1077.385	-854.28334
1077.738	-806.17052
1078.091	-792.14661
1078.444	-789.15182
1078.796	-670.8646
1079.149	-641.79575
1079.502	-708.96845
1079.855	-742.03101
1080.207	-648.81063
1080.56	-564.61723
1080.912	-722.00858
1081.264	-695.92545
1081.617	-654.83803
1081.969	-603.72473
1082.321	-697.94118
1082.673	-789.15114
1083.025	-710.95687
1083.377	-877.30056
1083.728	-798.17118
1084.08	-654.84584
1084.432	-699.94675
1084.783	-769.09728
1085.135	-619.75158
1085.486	-745.02729
1085.838	-648.81896
1086.189	-697.93219
1086.54	-734.01925
1086.891	-600.71336
1087.242	-730.02959
1087.593	-680.88714
1087.944	-862.316
1088.295	-816.19815
1088.646	-672.87651
1088.996	-714.98143
1089.347	-671.87918
1089.698	-724.99605
1090.048	-578.64662
1090.398	-814.21046
1090.749	-711.96729
1091.099	-569.63132
1091.449	-635.78709
1091.799	-614.7356
1092.149	-623.75865
1092.499	-691.92686
1092.849	-578.65102
1093.199	-654.83803
1093.548	-690.91844
1093.898	-621.75512
1094.248	-596.70244
1094.597	-544.5672
1094.947	-513.49441
1095.296	-681.91066
1095.645	-540.54884
1095.994	-724.9973
1096.343	-612.72891
1096.692	-434.27004
1097.041	-490.43614
1097.39	-588.67062
1097.739	-542.55595
1098.088	-468.3642
1098.437	-508.47325
1098.785	-484.40684
1099.134	-521.51075
1099.482	-411.21541
1099.83	-554.59555
1100.179	-515.49507
1100.527	-498.44089
1100.875	-502.455
1101.223	-507.47098
1101.571	-399.1825
1101.919	-490.42306
1102.267	-368.09998
1102.615	13.0419
1102.962	-2.00644
1103.31	5.01611
1103.658	15.04837
