Data from N2 R0 105C sample1_Subt2__4__11-48-49-168.txt Node

Date: Tue Aug 19 11:48:49 PDT 2025
User: uwsun
Spectrometer: HDX01956
Trigger mode: 0
Integration Time (sec): 5.000000E-1
Scans to average: 1
Nonlinearity correction enabled: true
Boxcar width: 0
Storing dark spectrum: false
XAxis mode: Wavelengths
Number of Pixels in Spectrum: 2068
>>>>>Begin Spectral Data<<<<<
194.03	508.37848
194.578	514.57189
195.127	521.56877
195.676	539.6256
196.225	580.46308
196.773	628.63743
197.321	900.25257
197.87	1200.64777
198.418	1183.5838
198.966	1242.75624
199.513	1132.42424
200.061	1163.54225
200.609	1185.66816
201.156	1084.03575
201.704	1225.62963
202.251	1176.69444
202.798	1205.67034
203.345	1186.48889
203.892	1240.62611
204.438	1213.44053
204.985	1315.60631
205.532	1291.84667
206.078	1257.58446
206.624	1292.64997
207.17	1217.37271
207.716	1255.55505
208.262	1240.98724
208.808	1290.68719
209.354	1290.6187
209.899	1261.6354
210.445	1318.7359
210.99	1276.58558
211.535	1360.61913
212.08	1344.58333
212.625	1239.62002
213.17	1278.69725
213.715	1301.44751
214.259	1210.37068
214.804	1261.57536
215.348	1270.38379
215.892	1261.5072
216.436	1275.43931
216.98	1277.34616
217.524	1237.4424
218.068	1249.67201
218.612	1210.57363
219.155	1181.3468
219.698	1174.37219
220.242	1166.46933
220.785	1110.21108
221.328	1102.34986
221.871	1090.36021
222.414	1166.46185
222.956	1118.34608
223.499	1111.13503
224.041	1104.20114
224.583	1121.01042
225.126	1119.09089
225.668	1118.31531
226.21	1139.44498
226.751	1095.06802
227.293	1103.1804
227.835	1146.40174
228.376	1147.22859
228.918	1168.50565
229.459	1057.29501
230	1119.26449
230.541	1178.32732
231.082	1155.33427
231.622	1064.10169
232.163	1127.33656
232.704	1129.37695
233.244	1116.36849
233.784	1111.32272
234.324	1159.19029
234.864	1117.15787
235.404	1100.23356
235.944	1132.27057
236.484	1109.34091
237.023	1130.29249
237.563	1171.27532
238.102	1143.25752
238.641	1157.49104
239.18	1146.29344
239.719	1158.4651
240.258	1218.27699
240.797	1152.35516
241.335	1197.46427
241.874	1198.93476
242.412	1193.43853
242.95	1177.38312
243.488	1184.2838
244.026	1159.24557
244.564	1155.99265
245.102	1170.20738
245.64	1153.33022
246.177	1142.17955
246.715	1203.4259
247.252	1187.28688
247.789	1152.80484
248.326	1189.43362
248.863	1184.20023
249.4	1204.28715
249.936	1231.06598
250.473	1238.41544
251.009	1204.33793
251.546	1199.20568
252.082	1235.23598
252.618	1160.16719
253.154	1214.4687
253.69	1173.20176
254.226	1210.41174
254.761	1220.32098
255.297	1173.13622
255.832	1178.32948
256.367	1243.44743
256.903	1235.20777
257.438	1277.45835
257.972	1249.31625
258.507	1230.37274
259.042	1283.30213
259.576	1235.23486
260.111	1229.35672
260.645	1227.16317
261.179	1256.41725
261.713	1293.37683
262.247	1236.38434
262.781	1218.12667
263.315	1293.63013
263.849	1279.66836
264.382	1265.37959
264.915	1351.60361
265.449	1309.68906
265.982	1377.53305
266.515	1276.54935
267.048	1304.27991
267.58	1305.32271
268.113	1321.32
268.646	1313.67566
269.178	1331.41897
269.71	1294.31663
270.243	1299.41165
270.775	1273.67098
271.307	1290.54309
271.838	1282.46037
272.37	1332.67236
272.902	1316.43068
273.433	1288.26237
273.965	1316.62335
274.496	1260.56466
275.027	1296.64632
275.558	1340.64797
276.089	1344.72598
276.62	1368.82348
277.15	1296.58699
277.681	1341.36017
278.211	1302.54175
278.741	1327.38261
279.272	1275.38795
279.802	1340.70927
280.332	1366.59949
280.861	1420.72976
281.391	1379.50151
281.921	1356.64614
282.45	1395.81358
282.98	1395.94482
283.509	1398.48197
284.038	1377.51797
284.567	1386.55156
285.096	1401.7258
285.625	1451.61679
286.153	1342.5267
286.682	1452.61794
287.21	1439.76177
287.739	1468.75527
288.267	1441.77351
288.795	1456.99852
289.323	1473.75193
289.851	1484.74887
290.378	1467.58705
290.906	1421.76479
291.433	1454.85236
291.961	1434.56315
292.488	1505.91894
293.015	1464.74374
293.542	1507.02324
294.069	1438.78808
294.596	1562.96071
295.122	1492.78686
295.649	1445.48111
296.175	1555.95378
296.702	1529.86386
297.228	1584.93046
297.754	1612.79086
298.28	1581.74474
298.806	1596.92663
299.332	1630.72796
299.857	1587.71499
300.383	1576.06647
300.908	1566.94265
301.433	1577.91531
301.958	1623.7902
302.483	1635.10947
303.008	1636.06306
303.533	1670.25894
304.058	1632.90701
304.582	1656.95299
305.107	1669.33659
305.631	1666.79169
306.155	1716.96283
306.679	1653.86305
307.203	1757.9858
307.727	1705.98916
308.251	1722.1545
308.775	1729.05239
309.298	1721.10824
309.822	1804.33486
310.345	1886.2052
310.868	1856.16042
311.391	1804.21258
311.914	1852.36046
312.437	1826.97206
312.96	1847.09767
313.482	1843.1091
314.005	1887.39796
314.527	1893.60021
315.049	1849.32577
315.571	1932.02866
316.093	1990.44076
316.615	1981.33364
317.137	1984.91717
317.659	2062.43555
318.18	2042.2999
318.702	2084.19506
319.223	2068.83682
319.744	2044.08572
320.265	2166.48016
320.786	2177.59763
321.307	2194.60369
321.828	2206.23454
322.348	2185.38845
322.869	2306.50987
323.389	2001.7538
323.909	2264.26823
324.43	2312.46652
324.95	2228.26755
325.47	2339.59916
325.989	2407.47301
326.509	2462.2231
327.029	2557.29072
327.548	2531.30098
328.067	2571.7014
328.587	2547.77164
329.106	2444.22995
329.625	2602.0461
330.144	2622.48399
330.662	2591.37823
331.181	2616.49127
331.7	2700.55557
332.218	2724.20018
332.736	2771.54714
333.255	2818.50306
333.773	2888.57126
334.291	2772.80316
334.808	2981.37091
335.326	2985.39043
335.844	3056.5614
336.361	3077.0164
336.879	3163.62313
337.396	3109.69563
337.913	3143.43038
338.43	3235.32938
338.947	3264.56419
339.464	3232.08831
339.981	3280.60189
340.497	3298.74832
341.014	3413.75991
341.53	3303.22598
342.046	3388.72257
342.562	3488.86451
343.078	3491.51208
343.594	3479.56358
344.11	3620.46143
344.626	3627.88139
345.141	3631.21038
345.657	3685.13251
346.172	3690.5595
346.687	3695.31975
347.202	3872.08512
347.717	3961.42193
348.232	3913.70619
348.747	3882.23096
349.261	3963.93956
349.776	3921.31877
350.29	4137.60616
350.805	4142.64037
351.319	4132.21527
351.833	4087.96576
352.347	4132.18009
352.861	4210.0762
353.374	4192.96486
353.888	4293.29485
354.401	4231.01626
354.915	4445.78287
355.428	4534.33026
355.941	4531.96841
356.454	4544.653
356.967	4499.96449
357.48	4482.8042
357.993	4581.22845
358.505	4641.11632
359.018	4760.07272
359.53	4722.06594
360.042	4815.41913
360.554	4718.98475
361.066	4858.02427
361.578	4853.25573
362.09	4873.76389
362.602	4823.36804
363.113	4985.64893
363.625	5002.40088
364.136	5166.14887
364.647	5236.57969
365.158	5333.34335
365.669	5276.56343
366.18	5357.40755
366.691	5298.08271
367.201	5295.5832
367.712	5432.2226
368.222	5460.20205
368.733	5660.92737
369.243	5751.89683
369.753	5891.13544
370.263	5807.32249
370.773	5748.39847
371.282	5978.12982
371.792	6282.9962
372.301	6368.11714
372.811	6325.52284
373.32	6366.42187
373.829	6644.89712
374.338	6952.53016
374.847	7170.76438
375.356	7238.87702
375.865	7682.62567
376.373	7882.98089
376.882	8166.54594
377.39	8100.32498
377.898	8349.63748
378.407	8883.17989
378.915	9217.83791
379.423	9514.51556
379.93	9845.43499
380.438	10374.95705
380.946	10921.12623
381.453	11273.64261
381.96	11806.41889
382.468	12707.87157
382.975	13366.54559
383.482	13819.277
383.989	13914.33176
384.495	14358.67081
385.002	15184.03581
385.509	15937.13128
386.015	17098.52326
386.521	17875.78164
387.028	18607.12874
387.534	19106.94077
388.04	19900.41663
388.546	20289.39406
389.051	21498.93972
389.557	23087.21653
390.063	24884.88163
390.568	25371.99195
391.073	26313.03985
391.578	27371.01229
392.084	27906.92492
392.589	29106.92491
393.093	31110.03448
393.598	34182.90895
394.103	37219.23177
394.607	41086.0979
395.112	43511.26031
395.616	45900.70694
396.12	49703.48288
396.624	54489.55101
397.128	59230.76551
397.632	61208.05923
398.136	61767.03675
398.639	61850.40973
399.143	61679.31033
399.646	61269.15804
400.15	60904.11498
400.653	60560.14334
401.156	60136.25446
401.659	59550.50961
402.162	58431.12733
402.664	54480.21957
403.167	49329.08451
403.67	22278.45323
404.172	2696.20453
404.674	0
405.176	0
405.678	0
406.18	0
406.682	0
407.184	0
407.686	25783.58453
408.187	43316.52985
408.688	51225.60928
409.19	54389.01922
409.691	56215.4214
410.192	57270.57019
410.693	57845.40442
411.194	58219.2365
411.694	58633.01717
412.195	59215.68848
412.696	59364.60701
413.196	59341.61941
413.696	59632.46864
414.196	59367.6054
414.696	59763.40624
415.196	59913.34014
415.696	60584.13941
416.196	61381.18813
416.695	61808.38326
417.195	62018.52935
417.694	61837.40139
418.194	62001.51623
418.693	62262.74355
419.192	62270.96404
419.691	62148.45355
420.19	61734.41845
420.688	60201.67179
421.187	58059.01627
421.685	54024.10881
422.184	48617.51975
422.682	41535.43731
423.18	35251.30793
423.678	31857.03811
424.176	29780.22333
424.674	27495.90968
425.172	26615.92709
425.669	24753.44337
426.167	22860.38988
426.664	21121.9663
427.161	19322.24657
427.659	17991.12459
428.156	16967.12694
428.652	16105.92561
429.149	15370.88659
429.646	14677.42289
430.143	13934.48944
430.639	12946.83967
431.135	12249.66021
431.632	11693.13238
432.128	10964.31534
432.624	10340.77682
433.12	10121.31543
433.616	9742.20204
434.111	9411.27365
434.607	9268.96509
435.103	8893.14652
435.598	8728.83406
436.093	8345.44612
436.588	7892.82059
437.083	7467.5934
437.578	7043.61179
438.073	6793.09397
438.568	6674.91614
439.062	6502.30903
439.557	6209.84739
440.051	5983.68256
440.546	5760.84564
441.04	5635.29418
441.534	5672.67083
442.028	5546.25697
442.522	5392.38856
443.015	5365.84943
443.509	5249.62407
444.002	5097.72508
444.496	5113.06376
444.989	4965.72081
445.482	5077.84094
445.975	5013.40054
446.468	4867.06314
446.961	4798.17001
447.454	4752.37937
447.947	4670.8415
448.439	4467.90099
448.931	4584.59293
449.424	4370.27245
449.916	4481.07674
450.408	4300.70273
450.9	4295.20091
451.392	4362.35537
451.884	4117.86589
452.375	4047.52621
452.867	4093.77817
453.358	4007.92842
453.849	3906.57358
454.341	3893.91672
454.832	3820.70391
455.323	3909.39254
455.814	3785.09385
456.304	3720.09284
456.795	3650.11969
457.285	3629.86806
457.776	3584.03325
458.266	3542.35038
458.756	3526.34635
459.247	3419.43246
459.737	3460.46713
460.226	3323.14214
460.716	3312.50864
461.206	3164.51292
461.695	3119.66504
462.185	3025.33137
462.674	3112.33947
463.163	3050.02296
463.653	3068.90008
464.142	2977.54922
464.63	2966.6419
465.119	2875.29131
465.608	2920.3551
466.096	2819.02209
466.585	2833.29343
467.073	2776.43393
467.561	2685.45421
468.05	2652.30793
468.538	2640.56742
469.026	2582.43962
469.513	2546.23384
470.001	2520.15454
470.489	2499.41142
470.976	2436.25236
471.463	2388.54358
471.951	2268.48071
472.438	2230.21598
472.925	2233.19413
473.412	2192.34444
473.899	2182.06328
474.385	2082.29517
474.872	2196.25803
475.359	2092.34466
475.845	1989.6662
476.331	1948.67525
476.817	1952.17524
477.303	1936.00576
477.789	1868.09053
478.275	1754.08811
478.761	1810.06838
479.247	1794.82473
479.732	1732.12116
480.218	1706.23644
480.703	1628.99147
481.188	1637.51706
481.673	1612.70634
482.158	1651.5713
482.643	1604.99094
483.128	1551.64318
483.612	1488.629
484.097	1523.76938
484.581	1459.55961
485.066	1498.78991
485.55	1440.43395
486.034	1437.33202
486.518	1408.59863
487.002	1388.71632
487.486	1397.66565
487.969	1352.64079
488.453	1243.51351
488.936	1281.33714
489.42	1273.22372
489.903	1240.51482
490.386	1219.57017
490.869	1183.08852
491.352	1218.41319
491.835	1190.99851
492.318	1210.29192
492.8	1223.06249
493.283	1153.46765
493.765	1164.38612
494.247	1104.1474
494.73	1121.06483
495.212	1072.17859
495.694	1103.16317
496.175	1061.16741
496.657	1089.16667
497.139	1011.50402
497.62	989.03738
498.102	1021.17466
498.583	977.10595
499.064	1000.96089
499.545	955.90465
500.026	951.86863
500.507	965.95305
500.988	1005.16637
501.469	1000.1817
501.949	952.05856
502.43	952.99465
502.91	932.71413
503.39	891.94913
503.87	942.96588
504.35	896.85085
504.83	920.78857
505.31	878.87751
505.79	915.95203
506.269	923.91219
506.749	858.75173
507.228	927.93328
507.707	856.69792
508.187	834.7588
508.666	850.88244
509.145	901.88898
509.623	824.72783
510.102	905.94317
510.581	841.79332
511.059	894.99546
511.538	881.00932
512.016	938.99723
512.494	938.00414
512.972	857.82036
513.45	943.9467
513.928	975.09627
514.406	927.00742
514.884	966.18171
515.361	986.07242
515.839	932.88749
516.316	988.08208
516.793	910.03435
517.27	909.9225
517.747	906.06597
518.224	955.95742
518.701	1030.0164
519.178	878.92834
519.654	963.99511
520.131	910.98359
520.607	963.07751
521.083	990.97589
521.56	963.02003
522.036	965.86507
522.512	903.9397
522.987	878.8767
523.463	896.91601
523.939	902.96118
524.414	830.72436
524.89	910.91414
525.365	919.86157
525.84	842.83843
526.315	904.95141
526.79	822.68499
527.265	865.80151
527.74	787.74324
528.215	851.8217
528.689	731.50804
529.164	777.5378
529.638	772.81981
530.112	791.71867
530.587	778.53727
531.061	743.65734
531.534	802.74369
532.008	756.67975
532.482	730.52046
532.956	692.63309
533.429	744.65513
533.903	735.49053
534.376	712.4573
534.849	724.55867
535.322	750.62988
535.795	770.71724
536.268	679.50888
536.741	759.66376
537.213	725.5478
537.686	772.73303
538.158	709.47307
538.631	737.63176
539.103	765.59449
539.575	698.3416
540.047	725.4729
540.519	797.73977
540.991	764.70245
541.463	822.80306
541.934	821.70905
542.406	780.70946
542.877	835.72898
543.348	815.78657
543.82	811.78302
544.291	840.75676
544.762	867.83762
545.233	897.00567
545.703	905.79064
546.174	965.97527
546.645	902.94046
547.115	990.10629
547.585	1039.0565
548.056	1067.25512
548.526	1131.29089
548.996	1122.27315
549.466	1212.43796
549.935	1204.38762
550.405	1282.28921
550.875	1275.4685
551.344	1281.53412
551.814	1380.55056
552.283	1388.33924
552.752	1420.6377
553.221	1484.57338
553.69	1618.65958
554.159	1621.06065
554.628	1642.75857
555.096	1666.23295
555.565	1737.84526
556.033	1671.91559
556.502	1676.03184
556.97	1709.76367
557.438	1734.00099
557.906	1797.06313
558.374	1713.88729
558.842	1817.10078
559.31	1823.90106
559.777	1841.17688
560.245	1990.21831
560.712	2001.18912
561.18	2130.14497
561.647	2198.14569
562.114	2202.23625
562.581	2329.61619
563.048	2418.37522
563.514	2533.72395
563.981	2574.36495
564.448	2673.33887
564.914	2842.54653
565.381	2965.412
565.847	3086.60675
566.313	3129.57571
566.779	3076.29214
567.245	3224.60161
567.711	3389.74409
568.176	3518.32944
568.642	3589.99689
569.108	3700.84756
569.573	3894.56623
570.038	3932.88317
570.504	4009.07581
570.969	4220.86857
571.434	4351.98814
571.899	4358.41835
572.363	4420.0454
572.828	4593.94097
573.293	4689.95806
573.757	4677.90096
574.222	4815.8209
574.686	5008.77561
575.15	4952.06481
575.614	4852.86399
576.078	4920.05161
576.542	4999.7319
577.006	4987.67801
577.469	5006.26839
577.933	4986.77588
578.396	4963.96449
578.86	4868.04038
579.323	4927.18894
579.786	4828.50554
580.249	4791.98404
580.712	4698.36549
581.175	4545.52728
581.637	4479.96912
582.1	4565.77986
582.563	4429.63719
583.025	4296.54247
583.487	4250.49369
583.95	4237.91665
584.412	4098.76447
584.874	4027.56975
585.336	3945.50392
585.797	3898.97594
586.259	3807.52072
586.721	3733.51571
587.182	3674.43494
587.643	3629.34273
588.105	3472.67417
588.566	3402.93227
589.027	3354.81022
589.488	3279.45801
589.949	3219.78989
590.41	3114.71471
590.87	3076.38143
591.331	3089.10881
591.791	2983.6086
592.252	2972.53915
592.712	2912.69025
593.172	2895.45429
593.632	2951.30056
594.092	2768.35412
594.552	2752.18504
595.011	2699.47994
595.471	2619.25476
595.931	2613.28436
596.39	2690.7343
596.849	2589.52342
597.308	2615.18582
597.768	2572.01179
598.227	2557.57919
598.685	2552.33279
599.144	2590.51708
599.603	2624.63471
600.062	2592.10963
600.52	2604.3264
600.978	2586.54908
601.437	2551.34337
601.895	2535.04083
602.353	2595.23656
602.811	2682.37439
603.269	2624.68649
603.727	2760.7484
604.184	2756.46091
604.642	2786.8398
605.099	2803.51501
605.557	2807.80677
606.014	2889.28009
606.471	2931.01262
606.928	3081.29677
607.385	3163.97574
607.842	3183.41959
608.299	3317.6216
608.755	3251.80176
609.212	3256.29047
609.668	3354.3573
610.125	3395.77043
610.581	3506.58814
611.037	3357.41735
611.493	3360.60812
611.949	3422.95046
612.405	3447.73934
612.861	3436.57176
613.316	3397.72408
613.772	3456.51117
614.227	3457.68772
614.683	3464.04543
615.138	3399.58886
615.593	3443.54884
616.048	3527.35965
616.503	3415.83056
616.958	3412.05905
617.412	3354.63832
617.867	3325.28414
618.321	3350.93063
618.776	3378.28695
619.23	3356.57133
619.684	3282.38216
620.138	3269.49835
620.592	3229.8369
621.046	3187.55762
621.5	3154.88942
621.954	3122.37635
622.407	3005.31961
622.861	2985.79463
623.314	2996.4125
623.768	2975.58104
624.221	2864.80615
624.674	2742.46772
625.127	2778.53438
625.58	2818.39969
626.033	2719.1883
626.485	2625.65302
626.938	2674.60617
627.39	2667.53165
627.843	2527.43804
628.295	2481.3668
628.747	2468.53687
629.199	2461.32601
629.651	2386.31884
630.103	2339.34782
630.555	2255.92075
631.006	2212.33277
631.458	2224.39815
631.909	2120.13549
632.361	2159.28647
632.812	2062.21549
633.263	2038.8747
633.714	1981.79866
634.165	2039.41409
634.616	1955.24744
635.067	1889.8461
635.518	1882.14936
635.968	1903.52673
636.419	1833.77674
636.869	1726.97866
637.319	1746.92058
637.769	1673.77562
638.219	1643.86048
638.669	1651.94029
639.119	1704.09821
639.569	1611.91693
640.019	1596.74421
640.468	1625.67631
640.918	1585.85237
641.367	1536.6098
641.816	1563.65669
642.265	1533.69152
642.714	1527.68093
643.163	1538.73875
643.612	1509.88818
644.061	1537.52193
644.51	1544.7551
644.958	1494.51905
645.406	1497.78872
645.855	1481.84527
646.303	1479.66481
646.751	1458.62349
647.199	1439.54921
647.647	1470.62645
648.095	1470.66258
648.543	1465.29602
648.99	1391.61097
649.438	1482.70195
649.885	1458.84291
650.333	1517.2183
650.78	1445.79178
651.227	1483.87348
651.674	1413.5158
652.121	1401.69635
652.568	1472.82055
653.015	1416.81651
653.461	1421.67004
653.908	1406.59749
654.354	1417.6431
654.801	1396.60827
655.247	1403.43026
655.693	1363.8947
656.139	1369.63963
656.585	1297.50881
657.031	1361.56817
657.477	1374.36791
657.922	1376.54063
658.368	1301.61187
658.813	1343.45925
659.259	1309.56563
659.704	1246.36829
660.149	1315.51001
660.594	1263.46836
661.039	1255.3389
661.484	1238.40749
661.929	1244.38271
662.373	1260.66847
662.818	1309.67349
663.262	1207.41959
663.707	1238.59695
664.151	1196.43754
664.595	1155.32261
665.039	1169.44623
665.483	1234.61566
665.927	1138.24188
666.371	1217.34816
666.814	1157.31071
667.258	1237.47415
667.701	1256.17959
668.145	1175.44587
668.588	1189.41835
669.031	1154.32113
669.474	1120.28245
669.917	1134.08729
670.36	1096.33807
670.803	1122.25563
671.245	1099.96105
671.688	1156.33895
672.13	1081.07724
672.573	1076.29932
673.015	1091.24581
673.457	1071.98856
673.899	1125.27355
674.341	1123.29218
674.783	1094.22538
675.225	1090.26227
675.666	1125.33241
676.108	1074.96998
676.549	1055.12508
676.991	1169.17816
677.432	1139.94624
677.873	1080.10656
678.314	1101.2361
678.755	1113.29524
679.196	1066.08801
679.637	1077.22091
680.078	1020.03242
680.518	1023.03606
680.959	1088.24113
681.399	1060.26899
681.839	1054.19036
682.28	1050.2283
682.72	1075.10815
683.16	1015.15908
683.6	1016.96892
684.039	1069.87409
684.479	1025.17943
684.919	1081.15867
685.358	1069.31129
685.798	1034.33816
686.237	1098.24663
686.676	1049.04163
687.115	1101.16936
687.554	1025.0768
687.993	1037.94436
688.432	1051.05036
688.871	1077.09526
689.309	1019.08429
689.748	1059.82939
690.186	1033.08639
690.625	1021.03583
691.063	1047.15416
691.501	1085.24241
691.939	1042.2094
692.377	1029.14071
692.815	1071.18098
693.253	1071.18197
693.69	1047.96795
694.128	1119.29942
694.565	1030.08837
695.003	1066.30138
695.44	1053.11137
695.877	1062.13677
696.314	1076.91842
696.751	1067.02479
697.188	1041.03846
697.625	1049.01946
698.061	1097.22998
698.498	1075.17828
698.934	1067.19047
699.371	1036.0996
699.807	1076.14224
700.243	1052.16784
700.679	1094.0827
701.115	1061.08941
701.551	1066.11936
701.987	1084.06062
702.422	1060.15709
702.858	1023.06522
703.294	1062.01772
703.729	1077.23476
704.164	1083.20844
704.599	1077.0191
705.035	1096.09859
705.47	1071.2567
705.904	1051.11798
706.339	1019.96396
706.774	1063.10801
707.209	1081.11199
707.643	1092.2193
708.078	1082.27047
708.512	1064.29121
708.946	1021.05742
709.38	1056.10915
709.814	1086.06743
710.248	1016.09822
710.682	1044.12256
711.116	1026.12927
711.549	960.13305
711.983	989.97071
712.416	1006.03222
712.85	1017.18293
713.283	1036.10246
713.716	1029.18606
714.149	949.93725
714.582	1007.95748
715.015	944.01871
715.448	993.14503
715.881	992.82381
716.313	994.0052
716.746	960.97607
717.178	940.96344
717.61	955.06987
718.043	963.05984
718.475	876.85307
718.907	991.14252
719.339	947.88257
719.77	896.87891
720.202	920.02387
720.634	934.01273
721.065	915.90403
721.497	899.93359
721.928	922.99366
722.359	871.89657
722.79	868.87767
723.221	868.91195
723.652	831.8735
724.083	911.82604
724.514	899.81522
724.945	833.7517
725.375	890.8614
725.806	761.69122
726.236	842.89946
726.666	838.76261
727.096	854.86386
727.526	795.81562
727.956	782.59786
728.386	826.80121
728.816	764.74236
729.246	807.78163
729.675	701.59189
730.105	696.53677
730.534	766.61459
730.964	694.58266
731.393	736.62515
731.822	797.81946
732.251	738.68372
732.68	741.5574
733.109	761.67934
733.537	738.61939
733.966	794.78898
734.395	726.52015
734.823	696.41102
735.251	782.70737
735.68	779.74553
736.108	707.61588
736.536	734.55587
736.964	737.55578
737.392	715.6237
737.82	759.64072
738.247	710.53635
738.675	734.57413
739.102	683.57163
739.53	709.64898
739.957	703.65297
740.384	699.54436
740.811	722.6439
741.238	709.57559
741.665	704.47859
742.092	695.51122
742.519	647.47689
742.945	654.44696
743.372	718.62229
743.798	677.59305
744.225	684.48697
744.651	679.55496
745.077	677.54294
745.503	700.54818
745.929	664.45873
746.355	699.57132
746.781	638.45545
747.207	699.52765
747.632	698.58027
748.058	671.53356
748.483	707.48522
748.908	647.47333
749.334	651.47708
749.759	562.2282
750.184	664.46422
750.609	670.51377
751.033	687.47293
751.458	661.35553
751.883	617.40892
752.307	637.39554
752.732	634.48458
753.156	671.53478
753.58	638.40331
754.005	603.40395
754.429	616.3509
754.853	581.33993
755.277	621.34387
755.7	595.37497
756.124	648.48244
756.548	645.42318
756.971	589.31627
757.394	596.43081
757.818	584.39136
758.241	584.37912
758.664	563.33743
759.087	599.26029
759.51	552.27777
759.933	568.28884
760.356	551.31291
760.778	570.3273
761.201	546.24537
761.623	568.27059
762.046	556.23247
762.468	509.13071
762.89	527.21235
763.312	584.34124
763.734	510.15893
764.156	530.23066
764.578	507.11413
765	544.24977
765.421	498.20164
765.843	484.1928
766.264	556.25239
766.686	471.10874
767.107	447.0305
767.528	449.08955
767.949	473.14187
768.37	430.99749
768.791	412.96179
769.212	434.05013
769.632	455.02143
770.053	484.20633
770.473	426.99446
770.894	407.96967
771.314	424.95669
771.734	446.00016
772.154	404.98553
772.575	469.02617
772.994	363.80687
773.414	404.93052
773.834	395.95478
774.254	440.04227
774.673	390.91295
775.093	364.87506
775.512	347.82898
775.931	364.89261
776.351	357.86036
776.77	352.84044
777.189	341.79062
777.607	332.8256
778.026	352.85776
778.445	349.85632
778.864	341.84689
779.282	293.69653
779.701	291.7151
780.119	320.80848
780.537	311.76423
780.955	251.62228
781.373	254.61969
781.791	272.60801
782.209	321.71915
782.627	292.76183
783.045	306.69978
783.462	270.68218
783.88	284.72138
784.297	262.65228
784.715	270.68631
785.132	264.63808
785.549	255.63451
785.966	244.60681
786.383	228.55814
786.8	225.52274
787.217	226.53572
787.633	223.5557
788.05	240.55835
788.466	179.41324
788.883	148.37863
789.299	191.46001
789.715	235.57067
790.131	232.57718
790.547	157.38969
790.963	229.56734
791.379	192.48496
791.795	177.40472
792.21	161.37716
792.626	185.43694
793.041	214.52969
793.457	226.55734
793.872	134.31814
794.287	161.38967
794.702	157.38613
795.117	188.46994
795.532	187.47141
795.947	145.35028
796.362	187.44696
796.776	139.32282
797.191	192.47159
797.605	134.32621
798.02	118.29048
798.434	146.32448
798.848	138.34559
799.262	134.3392
799.676	144.35016
800.09	163.409
800.504	124.30187
800.918	139.32944
801.331	126.32697
801.745	133.30962
802.158	127.32039
802.572	112.27184
802.985	159.38338
803.398	116.28007
803.811	75.19205
804.224	82.20461
804.637	80.19607
805.05	75.17618
805.462	127.3135
805.875	85.22395
806.288	103.25491
806.7	142.35919
807.112	90.21005
807.525	128.31719
807.937	82.20572
808.349	155.38837
808.761	101.2517
809.173	137.33358
809.584	82.20417
809.996	104.25932
810.408	141.36697
810.819	187.44423
811.231	224.58505
811.642	321.76952
812.053	376.88914
812.464	358.83544
812.875	227.57366
813.286	190.48777
813.697	153.3587
814.108	117.28776
814.519	105.23661
814.929	116.29666
815.34	208.50918
815.75	87.22503
816.16	73.1841
816.571	67.17462
816.981	97.23105
817.391	119.29235
817.801	110.28023
818.211	79.18876
818.62	127.31235
819.03	98.24214
819.44	107.27915
819.849	72.18252
820.259	63.1616
820.668	108.27056
821.077	96.24405
821.486	103.24986
821.895	79.19573
822.304	133.35265
822.713	113.27226
823.122	48.12233
823.531	121.29264
823.939	99.24564
824.348	161.39436
824.756	96.24422
825.164	60.15226
825.573	120.30861
825.981	77.19308
826.389	124.31456
826.797	18.04569
827.205	109.25655
827.612	117.29253
828.02	88.21175
828.428	109.28096
828.835	97.25763
829.243	160.38615
829.65	72.18219
830.057	131.32183
830.464	74.18318
830.871	91.22058
831.278	31.07644
831.685	69.15841
832.092	103.25678
832.499	75.16783
832.905	66.16909
833.312	91.21209
833.718	102.25691
834.124	74.17176
834.531	36.09217
834.937	12.03099
835.343	89.21857
835.749	52.12218
836.155	55.14559
836.561	122.30431
836.966	87.21563
837.372	110.28191
837.777	75.19117
838.183	31.07046
838.588	28.07027
838.993	58.14336
839.399	62.15448
839.804	-15.0378
840.209	83.21632
840.613	46.10563
841.018	15.0386
841.423	57.148
841.828	48.12448
842.232	120.29693
842.637	90.21689
843.041	100.26058
843.445	59.1506
843.849	31.07818
844.253	96.23161
844.657	59.15208
845.061	79.18405
845.465	90.22098
845.869	80.19016
846.272	45.11272
846.676	39.09549
847.079	56.14637
847.483	73.18285
847.886	50.12163
848.289	30.08157
848.692	55.14148
849.095	65.16004
849.498	68.17207
849.901	68.15827
850.304	54.13249
850.707	25.06455
851.109	72.18213
851.512	74.18632
851.914	67.17468
852.316	15.03833
852.718	55.14506
853.121	30.07537
853.523	90.21681
853.925	29.07769
854.326	24.06103
854.728	57.14967
855.13	49.12976
855.531	99.24313
855.933	-12.02929
856.334	60.15269
856.736	88.20256
857.137	52.12346
857.538	82.21074
857.939	101.25508
858.34	72.17777
858.741	47.12438
859.142	75.18357
859.542	59.15837
859.943	54.13626
860.343	58.14645
860.744	43.10662
861.144	8.01979
861.544	63.15638
861.945	87.22643
862.345	55.13637
862.745	89.22653
863.145	98.23527
863.544	43.11038
863.944	45.10764
864.344	69.17327
864.743	30.07527
865.143	45.1176
865.542	78.18505
865.941	58.14724
866.34	57.13864
866.74	27.07321
867.139	83.20421
867.537	10.02596
867.936	40.09891
868.335	55.14231
868.734	89.23275
869.132	63.15082
869.531	42.10217
869.929	83.19558
870.327	35.08653
870.726	95.2358
871.124	83.19831
871.522	44.11418
871.92	60.15113
872.318	62.15392
872.715	42.10438
873.113	91.2262
873.511	73.18679
873.908	51.13301
874.306	77.1962
874.703	63.15911
875.1	49.12674
875.497	91.22356
875.894	78.19646
876.291	47.11709
876.688	87.22938
877.085	31.07551
877.482	82.20691
877.878	52.12829
878.275	41.10667
878.671	88.1994
879.068	68.1666
879.464	51.12548
879.86	32.07744
880.256	38.09537
880.652	51.13196
881.048	59.14741
881.444	49.11744
881.84	41.10579
882.236	57.14488
882.631	116.28987
883.027	40.09789
883.422	8.02086
883.817	104.26868
884.213	86.22387
884.608	65.16346
885.003	75.18541
885.398	67.17246
885.793	33.08423
886.188	70.17909
886.582	21.05409
886.977	85.20488
887.371	38.0964
887.766	32.08187
888.16	48.12155
888.554	28.06989
888.949	52.13173
889.343	47.11602
889.737	33.09055
890.131	24.06093
890.525	28.07281
890.918	28.07121
891.312	25.06028
891.706	-3.00791
892.099	18.04615
892.492	96.21212
892.886	54.13367
893.279	53.1378
893.672	7.01792
894.065	36.09142
894.458	101.25826
894.851	86.21233
895.244	28.07264
895.637	83.20361
896.029	37.09207
896.422	59.14586
896.814	30.07586
897.206	8.01961
897.599	53.1317
897.991	9.02221
898.383	104.25186
898.775	22.05108
899.167	30.0726
899.559	39.09993
899.951	50.11999
900.342	43.10991
900.734	63.16138
901.125	54.14316
901.517	67.168
901.908	75.18112
902.299	119.29796
902.69	64.1547
903.082	56.13771
903.473	39.09656
903.863	54.1397
904.254	115.27267
904.645	39.09871
905.036	43.10704
905.426	61.14122
905.817	33.0831
906.207	56.13745
906.597	14.03339
906.987	67.17551
907.378	24.06136
907.768	32.086
908.158	16.03995
908.547	30.07927
908.937	18.04658
909.327	101.24914
909.717	49.12503
910.106	39.09546
910.495	106.26622
910.885	58.14969
911.274	58.14698
911.663	31.07916
912.052	65.16093
912.441	-5.01293
912.83	62.14635
913.219	30.07932
913.608	20.04989
913.997	25.06444
914.385	22.05346
914.774	61.15058
915.162	64.15662
915.55	42.10324
915.939	29.07467
916.327	50.12495
916.715	4.01042
917.103	73.18034
917.491	39.09716
917.878	29.07161
918.266	-10.02618
918.654	63.16419
919.041	78.20651
919.429	37.08976
919.816	14.03597
920.203	63.15586
920.591	30.07543
920.978	14.03449
921.365	49.13023
921.752	58.14162
922.139	41.09254
922.525	69.17058
922.912	34.08413
923.299	55.1394
923.685	61.16142
924.072	24.05593
924.458	19.04811
924.844	46.11636
925.231	43.10274
925.617	25.0652
926.003	33.08548
926.389	30.07724
926.774	32.08253
927.16	55.13871
927.546	52.13606
927.931	80.20172
928.317	-17.04017
928.702	44.10519
929.088	65.1578
929.473	31.08002
929.858	41.10214
930.243	53.13016
930.628	84.20968
931.013	39.09881
931.398	50.11647
931.783	48.12675
932.167	80.20027
932.552	26.06568
932.937	38.09558
933.321	33.08474
933.705	34.08763
934.09	58.14651
934.474	20.04847
934.858	52.13648
935.242	64.15207
935.626	74.19283
936.009	17.04533
936.393	19.04913
936.777	56.14548
937.16	17.04473
937.544	43.10258
937.927	60.15554
938.311	54.13303
938.694	42.11157
939.077	37.09056
939.46	-33.08128
939.843	155.33008
940.226	33.0861
940.609	75.17893
940.991	37.0959
941.374	39.09751
941.757	69.17089
942.139	79.1842
942.522	20.04792
942.904	50.1225
943.286	21.05387
943.668	46.12101
944.05	58.14541
944.432	64.16207
944.814	-7.01749
945.196	26.06572
945.578	91.22414
945.959	66.15785
946.341	42.10236
946.722	39.09326
947.104	34.0833
947.485	57.13541
947.866	84.21731
948.247	-23.0591
948.628	22.05422
949.009	52.13587
949.39	70.17549
949.771	84.19859
950.152	57.14324
950.532	17.04339
950.913	32.07881
951.293	15.04133
951.674	69.17308
952.054	43.10995
952.434	60.15048
952.814	49.11896
953.194	55.14423
953.574	17.04223
953.954	29.07061
954.334	73.18463
954.714	43.10755
955.093	15.0374
955.473	6.01529
955.853	34.0889
956.232	-14.03865
956.611	59.14334
956.99	84.2149
957.37	48.12444
957.749	85.2065
958.128	73.18778
958.506	86.22762
958.885	42.10832
959.264	78.19724
959.643	43.09967
960.021	58.14687
960.4	45.10525
960.778	74.18398
961.156	55.14093
961.535	44.10443
961.913	75.17851
962.291	74.19513
962.669	7.01801
963.047	18.04653
963.424	27.06991
963.802	55.13826
964.18	77.19571
964.557	84.19644
964.935	81.1945
965.312	43.11299
965.69	58.14567
966.067	54.13426
966.444	-7.01755
966.821	37.09627
967.198	10.02473
967.575	12.02969
967.952	75.17865
968.329	58.14373
968.705	30.06579
969.082	29.07618
969.458	68.16851
969.835	19.04714
970.211	90.2346
970.587	50.12598
970.963	39.10102
971.339	18.0479
971.715	3.00765
972.091	49.12269
972.467	64.16166
972.843	59.14874
973.219	23.05561
973.594	61.1632
973.97	72.17272
974.345	71.17333
974.721	6.01467
975.096	18.04454
975.471	60.14487
975.846	50.12182
976.221	85.22032
976.596	52.12792
976.971	37.09278
977.346	23.05445
977.72	78.20116
978.095	34.08951
978.469	35.08484
978.844	24.06075
979.218	7.0172
979.593	19.0464
979.967	38.0942
980.341	31.07291
980.715	82.20927
981.089	1.00253
981.463	103.24384
981.837	16.04029
982.21	67.15745
982.584	21.05205
982.957	43.10999
983.331	44.10636
983.704	-5.01239
984.078	30.07583
984.451	18.04508
984.824	-14.03529
985.197	48.11812
985.57	50.12706
985.943	26.06469
986.316	46.11441
986.688	36.088
987.061	74.17779
987.434	10.02655
987.806	48.11869
988.179	77.18595
988.551	53.13662
988.923	33.08275
989.295	7.0175
989.667	43.10615
990.039	57.14431
990.411	34.0802
990.783	11.02597
991.155	72.17927
991.527	49.121
991.898	44.11209
992.27	6.01515
992.641	41.10381
993.012	53.12688
993.384	29.07019
993.755	61.15849
994.126	54.13156
994.497	12.03029
994.868	50.11807
995.239	23.05665
995.61	86.21963
995.98	71.17675
996.351	24.06071
996.722	33.07978
997.092	22.05374
997.462	14.03399
997.833	33.07951
998.203	64.1561
998.573	26.06579
998.943	58.13967
999.313	57.13998
999.683	67.16551
1000.053	79.18572
1000.423	52.12726
1000.792	75.19734
1001.162	-18.04532
1001.531	59.14778
1001.901	87.22168
1002.27	27.06211
1002.639	78.20214
1003.009	15.03633
1003.378	2.00518
1003.747	81.19605
1004.116	31.07619
1004.485	-6.01463
1004.853	33.08489
1005.222	16.04079
1005.591	53.12765
1005.959	100.2322
1006.328	40.0927
1006.696	68.16839
1007.064	15.03833
1007.433	55.13871
1007.801	6.0149
1008.169	34.08628
1008.537	76.172
1008.905	101.23994
1009.273	49.12145
1009.64	62.15257
1010.008	47.11483
1010.375	11.02647
1010.743	72.16751
1011.11	80.1933
1011.478	32.08025
1011.845	40.0957
1012.212	38.089
1012.579	0
1012.946	67.16119
1013.313	64.15318
1013.68	60.137
1014.047	37.09093
1014.414	49.11887
1014.78	37.09294
1015.147	13.03173
1015.513	76.18592
1015.88	54.13786
1016.246	-5.01241
1016.612	13.0302
1016.978	89.22002
1017.344	49.12384
1017.71	-7.01722
1018.076	80.18987
1018.442	2.00519
1018.808	34.08665
1019.174	5.01289
1019.539	52.11921
1019.905	27.06523
1020.27	49.12375
1020.636	57.13858
1021.001	39.09471
1021.366	47.11538
1021.731	-3.00777
1022.096	15.03879
1022.461	34.08215
1022.826	13.0316
1023.191	12.0319
1023.556	54.12979
1023.92	3.00748
1024.285	62.1533
1024.649	52.12961
1025.014	69.17302
1025.378	49.12525
1025.742	95.23855
1026.107	11.02545
1026.471	5.0118
1026.835	47.11925
1027.199	69.17245
1027.562	53.12552
1027.926	57.14076
1028.29	56.14477
1028.654	51.1199
1029.017	36.08908
1029.381	53.1292
1029.744	9.02323
1030.107	62.14822
1030.471	24.05808
1030.834	62.14288
1031.197	27.06542
1031.56	23.05525
1031.923	23.06031
1032.286	18.0431
1032.648	76.18544
1033.011	20.04684
1033.374	56.13219
1033.736	22.05897
1034.099	59.14703
1034.461	12.03077
1034.823	-6.01525
1035.185	50.12747
1035.548	98.24178
1035.91	48.11707
1036.272	38.08747
1036.634	55.13477
1036.995	37.08962
1037.357	41.10177
1037.719	18.04413
1038.08	64.15318
1038.442	83.19854
1038.803	37.09009
1039.165	71.18282
1039.526	41.10069
1039.887	54.13181
1040.248	-38.09647
1040.609	18.04472
1040.97	46.11495
1041.331	49.12551
1041.692	82.19828
1042.053	53.12353
1042.413	83.19588
1042.774	29.07156
1043.134	81.19546
1043.495	24.06093
1043.855	41.10106
1044.215	64.16161
1044.576	79.1943
1044.936	76.1764
1045.296	60.15118
1045.656	-1.00249
1046.016	54.13112
1046.375	-6.01482
1046.735	8.01881
1047.095	47.11196
1047.454	24.05228
1047.814	48.11729
1048.173	5.01191
1048.533	32.07489
1048.892	44.10896
1049.251	43.10949
1049.61	50.12476
1049.969	88.21295
1050.328	29.06465
1050.687	63.15483
1051.046	13.03199
1051.405	89.22501
1051.763	85.1992
1052.122	33.08379
1052.48	-29.07219
1052.839	22.05302
1053.197	73.17522
1053.555	-10.02275
1053.914	31.07616
1054.272	7.01705
1054.63	47.11794
1054.988	23.05619
1055.345	73.16066
1055.703	51.12409
1056.061	1.00262
1056.419	24.06303
1056.776	50.12131
1057.134	75.17666
1057.491	46.11611
1057.848	-8.02015
1058.206	49.11761
1058.563	2.00455
1058.92	-18.04221
1059.277	27.06743
1059.634	62.14732
1059.991	48.1169
1060.348	45.10488
1060.704	55.13407
1061.061	52.12184
1061.418	-8.01982
1061.774	30.07551
1062.131	32.08625
1062.487	17.04084
1062.843	26.06542
1063.199	47.11942
1063.555	64.15242
1063.911	-18.04603
1064.267	83.17483
1064.623	20.04976
1064.979	55.13151
1065.335	55.13207
1065.691	9.02195
1066.046	-25.05553
1066.402	61.14318
1066.757	45.11426
1067.112	23.05696
1067.468	95.2333
1067.823	65.15916
1068.178	-1.00246
1068.533	66.16218
1068.888	57.13729
1069.243	52.1298
1069.598	64.15778
1069.952	10.02347
1070.307	77.1953
1070.662	14.03388
1071.016	18.04161
1071.371	25.05806
1071.725	35.08487
1072.079	5.01221
1072.434	15.03748
1072.788	80.19352
1073.142	31.07787
1073.496	13.03152
1073.85	-13.03072
1074.203	71.17707
1074.557	59.15832
1074.911	39.0934
1075.265	56.13214
1075.618	11.02712
1075.971	11.02674
1076.325	17.04411
1076.678	13.03099
1077.031	71.16463
1077.385	62.14077
1077.738	90.20699
1078.091	-17.04035
1078.444	52.12279
1078.796	28.06946
1079.149	31.07787
1079.502	49.12011
1079.855	64.15283
1080.207	25.0626
1080.56	40.10448
1080.912	-15.03721
1081.264	43.10533
1081.617	91.22645
1081.969	54.13936
1082.321	18.04456
1082.673	38.08994
1083.025	69.16669
1083.377	-156.35993
1083.728	27.06377
1084.08	36.09094
1084.432	60.14732
1084.783	74.17468
1085.135	34.08671
1085.486	80.18899
1085.838	33.08296
1086.189	-3.00741
1086.54	47.11346
1086.891	24.06218
1087.242	-45.11198
1087.593	21.0519
1087.944	6.01384
1088.295	63.14545
1088.646	66.16319
1088.996	1.00246
1089.347	40.09974
1089.698	-9.02201
1090.048	-9.02347
1090.398	50.11693
1090.749	56.13623
1091.099	70.18172
1091.449	27.06831
1091.799	66.16731
1092.149	69.17426
1092.499	18.04467
1092.849	38.09861
1093.199	44.11043
1093.548	73.17875
1093.898	46.11686
1094.248	-7.01825
1094.597	49.12893
1094.947	-2.0054
1095.296	-20.05043
1095.645	34.08929
1095.994	-3.00733
1096.343	54.13713
1096.692	77.20913
1097.041	-8.02186
1097.39	84.21452
1097.739	24.06318
1098.088	67.18044
1098.437	-3.00807
1098.785	-15.0407
1099.134	12.03213
1099.482	49.13578
1099.83	1.00265
1100.179	9.02417
1100.527	-18.0485
1100.875	14.03757
1101.223	27.07233
1101.571	31.08652
1101.919	19.05117
1102.267	8.02273
1102.615	3.00968
1102.962	-3.00967
1103.31	13.04185
1103.658	17.05481
