Data from N2 R0 105C sample5_Subt2__0__12-21-29-223.txt Node

Date: Tue Aug 19 12:21:29 PDT 2025
User: uwsun
Spectrometer: HDX01956
Trigger mode: 0
Integration Time (sec): 5.000000E-1
Scans to average: 1
Nonlinearity correction enabled: true
Boxcar width: 0
Storing dark spectrum: false
XAxis mode: Wavelengths
Number of Pixels in Spectrum: 2068
>>>>>Begin Spectral Data<<<<<
194.03	551.4849
194.578	488.4974
195.127	529.59115
195.676	540.6284
196.225	580.46308
196.773	617.61176
197.321	931.3172
197.87	1229.69547
198.418	1233.66483
198.966	1253.77436
199.513	1163.47415
200.061	1196.59635
200.609	1166.63549
201.156	1088.04128
201.704	1161.5262
202.251	1177.6962
202.798	1193.65029
203.345	1209.52445
203.892	1199.56174
204.438	1239.47815
204.985	1292.57426
205.532	1197.6908
206.078	1292.63578
206.624	1301.66309
207.17	1322.51433
207.716	1250.54772
208.262	1198.94236
208.808	1235.60365
209.354	1229.52909
209.899	1279.66251
210.445	1269.66258
210.99	1298.61713
211.535	1328.57681
212.08	1323.55558
212.625	1308.7247
213.17	1286.70944
213.715	1274.41231
214.259	1282.46976
214.804	1257.56949
215.348	1270.38379
215.892	1262.50861
216.436	1276.44064
216.98	1300.3749
217.524	1213.40828
218.068	1292.73862
218.612	1219.58776
219.155	1220.40262
219.698	1173.3707
220.242	1155.45184
220.785	1125.23327
221.328	1090.33025
221.871	1109.39172
222.414	1064.29608
222.956	1116.34291
223.499	1109.13219
224.041	1105.20263
224.583	1102.98711
225.126	1078.03434
225.668	1067.23455
226.21	1100.38086
226.751	1071.03437
227.293	1157.25868
227.835	1124.36693
228.376	1180.27499
228.918	1102.3973
229.459	1146.44164
230	1131.28258
230.541	1111.22889
231.082	1098.24764
231.622	1096.14891
232.163	1127.33656
232.704	1113.3514
233.244	1092.32953
233.784	1078.26998
234.324	1097.10403
234.864	1082.10749
235.404	1126.27299
235.944	1099.22093
236.484	1125.36646
237.023	1162.34044
237.563	1167.26968
238.102	1096.18818
238.641	1150.47965
239.18	1142.28752
239.719	1161.4699
240.258	1166.20729
240.797	1147.34755
241.335	1197.46427
241.874	1175.90968
242.412	1219.47721
242.95	1167.36819
243.488	1201.30731
244.026	1132.20718
244.564	1174.01419
245.102	1187.23029
245.64	1158.33769
246.177	1185.23847
246.715	1182.39488
247.252	1157.24488
247.789	1266.91961
248.326	1211.46648
248.863	1181.19626
249.4	1148.20999
249.936	1238.07386
250.473	1223.39452
251.009	1243.39161
251.546	1242.26063
252.082	1178.16315
252.618	1195.21362
253.154	1255.5286
253.69	1167.19368
254.226	1147.31913
254.761	1244.35308
255.297	1164.12457
255.832	1134.26522
256.367	1217.41065
256.903	1165.11947
257.438	1233.39832
257.972	1200.25204
258.507	1230.37274
259.042	1284.30334
259.576	1261.2671
260.111	1226.35264
260.645	1207.13878
261.179	1248.4064
261.713	1245.31565
262.247	1256.4115
262.781	1235.14692
263.315	1260.58198
263.849	1283.67436
264.382	1289.41071
264.915	1356.61017
265.449	1332.72233
265.982	1314.45461
266.515	1276.54935
267.048	1346.32797
267.58	1322.34285
268.113	1296.29066
268.646	1334.70567
269.178	1276.35073
269.71	1323.35126
270.243	1338.46045
270.775	1317.73683
271.307	1323.58828
271.838	1289.4697
272.37	1348.69463
272.902	1377.50541
273.433	1260.22907
273.965	1315.62196
274.496	1285.60089
275.027	1346.71772
275.558	1343.65206
276.089	1398.8011
276.62	1312.74144
277.15	1355.66836
277.681	1314.32861
278.211	1310.5526
278.741	1314.36697
279.272	1365.50093
279.802	1280.623
280.332	1364.59692
280.861	1360.65147
281.391	1288.3894
281.921	1328.60841
282.45	1430.86138
282.98	1423.98574
283.509	1406.49112
284.038	1403.54906
284.567	1369.53078
285.096	1421.75181
285.625	1383.53655
286.153	1424.62826
286.682	1370.52075
287.21	1402.7143
287.739	1448.73084
288.267	1373.68503
288.795	1412.93624
289.323	1442.71422
289.851	1566.84292
290.378	1471.59146
290.906	1442.7919
291.433	1420.80761
291.961	1454.58583
292.488	1444.84062
293.015	1511.79975
293.542	1527.04951
294.069	1474.83381
294.596	1450.82199
295.122	1516.81526
295.649	1486.52431
296.175	1539.93452
296.702	1540.87681
297.228	1556.8983
297.754	1609.78782
298.28	1612.77627
298.806	1572.8996
299.332	1604.70295
299.857	1591.719
300.383	1586.07876
300.908	1572.94967
301.433	1579.91759
301.958	1608.77516
302.483	1616.08717
303.008	1662.09232
303.533	1644.22751
304.058	1675.95141
304.582	1628.92348
305.107	1686.35761
305.631	1666.79169
306.155	1659.90653
306.679	1679.88865
307.203	1669.90151
307.727	1693.97719
308.251	1702.13311
308.775	1777.09922
309.298	1769.15705
309.822	1792.3223
310.345	1843.16709
310.868	1838.14437
311.391	1841.24819
311.914	1868.37617
312.437	1907.03563
312.96	1751.0109
313.482	1884.14429
314.005	1874.38539
314.527	1914.62214
315.049	1871.34703
315.571	1954.04454
316.093	2056.49523
316.615	1977.33038
317.137	2001.92765
317.659	2078.4477
318.18	1993.26322
318.702	2039.1655
319.223	2051.82811
319.744	2056.09329
320.265	2042.3909
320.786	2149.57752
321.307	2142.56667
321.828	2255.25983
322.348	2244.42341
322.869	2235.46942
323.389	2017.75579
323.909	2285.27842
324.43	2240.42703
324.95	2339.32141
325.47	2339.59916
325.989	2414.47606
326.509	2391.19936
327.029	2413.24642
327.548	2544.30459
328.067	2536.68783
328.587	2552.77372
329.106	2551.26102
329.625	2620.05425
330.144	2530.45638
330.662	2505.35335
331.181	2732.51885
331.7	2734.56311
332.218	2806.20785
332.736	2752.54359
333.255	2790.49896
333.773	2855.56729
334.291	2842.81911
334.808	2919.36944
335.326	3005.39048
335.844	3045.56128
336.361	3021.00985
336.879	3129.62411
337.396	3137.69562
337.913	3199.42575
338.43	3230.33004
338.947	3209.56901
339.464	3282.07883
339.981	3235.60597
340.497	3304.74782
341.014	3340.76854
341.53	3344.21806
342.046	3444.71444
342.562	3548.85449
343.078	3440.52239
343.594	3538.55098
344.11	3555.47825
344.626	3554.89555
345.141	3602.21928
345.657	3710.12386
346.172	3741.5445
346.687	3753.30061
347.202	3798.11397
347.717	3919.43796
348.232	4014.66997
348.747	3935.20995
349.261	3995.92535
349.776	4021.27831
350.29	4030.64897
350.805	4246.59569
351.319	4134.21436
351.833	4088.9653
352.347	4094.1972
352.861	4232.06559
353.374	4158.98123
353.888	4301.29102
354.401	4295.98407
354.915	4336.84023
355.428	4454.37107
355.941	4519.97483
356.454	4534.6585
356.967	4545.93987
357.48	4584.7487
357.993	4608.21411
358.505	4575.15174
359.018	4778.06274
359.53	4851.9936
360.042	4763.44862
360.554	4727.97976
361.066	4871.01697
361.578	4744.31763
362.09	4804.80285
362.602	4838.35952
363.113	4980.65177
363.625	5088.35233
364.136	5214.1225
364.647	5162.62127
365.158	5409.30234
365.669	5375.50879
366.18	5330.4223
366.691	5241.11351
367.201	5315.5721
367.712	5458.20893
368.222	5463.20048
368.733	5556.97745
369.243	5667.93532
369.753	5934.11686
370.263	5836.30887
370.773	5755.39505
371.282	5909.15924
371.792	6185.02821
372.301	6226.16297
372.811	6382.50277
373.32	6337.42725
373.829	6691.89088
374.338	6843.52162
374.847	7026.74339
375.356	7251.87977
375.865	7493.50408
376.373	7818.93307
376.882	8098.49099
377.39	8097.32238
377.898	8301.58833
378.407	8958.31728
378.915	9244.89951
379.423	9505.49404
379.93	9768.2132
380.438	10321.77996
380.946	10923.13462
381.453	11260.58238
381.96	11880.82438
382.468	12500.52229
382.975	13194.26438
383.482	13717.42587
383.989	13654.25285
384.495	14247.67232
385.002	15130.48518
385.509	16057.45391
386.015	17079.28332
386.521	17770.42453
387.028	18525.0236
387.534	19266.14859
388.04	19611.34923
388.546	20229.53815
389.051	21451.24641
389.557	22820.36263
390.063	24521.84658
390.568	25367.93693
391.073	26299.86924
391.578	27340.63702
392.084	27832.03894
392.589	28611.46617
393.093	31202.92265
393.598	34017.56029
394.103	36659.7172
394.607	40424.43944
395.112	43260.17274
395.616	45767.77366
396.12	49156.41756
396.624	54145.45453
397.128	58972.27319
397.632	61271.30991
398.136	61763.96335
398.639	61850.40973
399.143	61679.31033
399.646	61269.15804
400.15	60904.11498
400.653	60560.14334
401.156	60136.25446
401.659	59550.50961
402.162	58431.12733
402.664	54480.21957
403.167	49329.08451
403.67	22278.45323
404.172	2696.20453
404.674	0
405.176	0
405.678	0
406.18	0
406.682	0
407.184	0
407.686	25783.58453
408.187	43316.52985
408.688	51225.60928
409.19	54389.01922
409.691	56215.4214
410.192	57270.57019
410.693	57845.40442
411.194	58219.2365
411.694	58633.01717
412.195	59215.68848
412.696	59364.60701
413.196	59341.61941
413.696	59632.46864
414.196	59367.6054
414.696	59763.40624
415.196	59913.34014
415.696	60584.13941
416.196	61381.18813
416.695	61808.38326
417.195	62018.52935
417.694	61837.40139
418.194	62001.51623
418.693	62262.74355
419.192	62227.92439
419.691	62092.14739
420.19	61155.13244
420.688	59860.61514
421.187	57281.00036
421.685	53369.06187
422.184	48036.11934
422.682	41033.14512
423.18	35178.72971
423.678	31610.76798
424.176	29347.6093
424.674	27667.98152
425.172	26330.23963
425.669	24774.73946
426.167	22895.90354
426.664	20885.54563
427.161	19219.82479
427.659	17848.28578
428.156	16659.38705
428.652	15937.08801
429.149	15143.59134
429.646	14605.73726
430.143	13657.20708
430.639	13020.3638
431.135	12209.42395
431.632	11574.5032
432.128	10771.52343
432.624	10429.06623
433.12	10124.32535
433.616	9745.21079
434.111	9320.06761
434.607	9014.46564
435.103	8891.14253
435.598	8667.72512
436.093	8177.26154
436.588	7848.78257
437.083	7363.54545
437.578	7129.62695
438.073	6834.08982
438.568	6680.91535
439.062	6460.3133
439.557	6241.83761
440.051	5948.69544
440.546	5754.84829
441.04	5698.26294
441.534	5697.65789
442.028	5579.24011
442.522	5415.37617
443.015	5300.88325
443.509	5314.58784
444.002	5157.6911
444.496	5051.09823
444.989	5000.70093
445.482	5008.88013
445.975	5028.39205
446.468	4846.07504
446.961	4814.16092
447.454	4665.42856
447.947	4605.87728
448.439	4479.89461
448.931	4509.63429
449.424	4488.2127
449.916	4461.08718
450.408	4377.66218
450.9	4312.19261
451.392	4294.388
451.884	4075.8858
452.375	4087.50992
452.867	3993.82513
453.358	3989.93649
453.849	3955.55064
454.341	3810.951
454.832	3858.68737
455.323	3788.43563
455.814	3754.10535
456.304	3724.09141
456.795	3689.10648
457.285	3607.87587
457.776	3633.01703
458.266	3483.36497
458.756	3470.35993
459.247	3440.42822
459.737	3452.46878
460.226	3342.13813
460.716	3262.51479
461.206	3134.51453
461.695	3133.66492
462.185	3139.32479
462.674	3162.33526
463.163	3001.02758
463.653	3071.89965
464.142	2956.54803
464.63	2904.63585
465.119	2911.29269
465.608	2860.3518
466.096	2762.02032
466.585	2765.287
467.073	2669.41459
467.561	2708.45898
468.05	2657.30891
468.538	2590.55256
469.026	2606.44629
469.513	2703.26514
470.001	2528.15647
470.489	2562.43158
470.976	2532.28188
471.463	2374.5368
471.951	2256.47384
472.438	2253.2274
472.925	2192.17327
473.412	2146.31648
473.899	2160.0523
474.385	2107.31202
474.872	2175.24626
475.359	2112.35837
475.845	2038.6903
476.331	1892.64307
476.817	1880.11733
477.303	1911.98836
477.789	1890.1087
478.275	1814.14543
478.761	1831.08703
479.247	1802.83104
479.732	1770.15964
480.218	1743.27765
480.703	1728.09672
481.188	1666.54061
481.673	1665.75624
482.158	1642.56374
482.643	1547.92445
483.128	1611.70246
483.612	1529.67336
484.097	1445.67836
484.581	1477.57927
485.066	1515.80995
485.55	1410.40212
486.034	1402.29698
486.518	1432.62741
487.002	1422.76089
487.486	1374.6361
487.969	1365.65812
488.453	1312.61176
488.936	1294.35325
489.42	1264.21312
489.903	1195.4481
490.386	1289.62199
490.869	1229.14428
491.352	1191.37436
491.835	1202.01105
492.318	1279.3826
492.8	1214.0522
493.283	1154.46926
493.765	1085.26333
494.247	1128.18176
494.73	1133.08078
495.212	1079.18937
495.694	1078.12642
496.175	1066.17519
496.657	1063.12755
497.139	1044.53792
497.62	994.04541
498.102	998.13616
498.583	954.06639
499.064	993.95034
499.545	975.9356
500.026	970.89752
500.507	963.94989
500.988	982.1271
501.469	872.95515
501.949	932.02381
502.43	888.88664
502.91	878.63644
503.39	897.95978
503.87	927.94096
504.35	905.8657
504.83	892.74557
505.31	839.80912
505.79	923.9657
506.269	847.78428
506.749	845.73023
507.228	817.74512
507.707	856.69792
508.187	809.71536
508.666	820.82727
509.145	869.83466
509.623	796.67934
510.102	790.73792
510.581	755.63971
511.059	856.92555
511.538	823.90062
512.016	835.81739
512.494	820.79792
512.972	811.73976
513.45	777.6632
513.928	823.8283
514.406	827.83036
514.884	791.85126
515.361	808.76565
515.839	851.75508
516.316	825.80168
516.793	786.80333
517.27	763.66481
517.747	776.81722
518.224	749.60598
518.701	827.69715
519.178	746.68353
519.654	726.58303
520.131	749.6879
520.607	724.64249
521.083	733.54936
521.56	767.67919
522.036	754.53015
522.512	661.49312
522.987	670.49594
523.463	775.70028
523.939	722.62935
524.414	717.52674
524.89	697.53417
525.365	711.50806
525.84	662.49993
526.315	665.50826
526.79	726.52015
527.265	729.56374
527.74	643.46657
528.215	696.53933
528.689	665.39198
529.164	655.33293
529.638	695.66261
530.112	625.40542
530.587	651.32417
531.061	630.43776
531.534	619.3976
532.008	688.55005
532.482	670.4139
532.956	623.48973
533.429	602.37821
533.903	641.32748
534.376	624.30231
534.849	591.30825
535.322	634.41141
535.795	652.48921
536.268	615.3846
536.741	643.44357
537.213	637.38557
537.686	588.36926
538.158	587.25234
538.631	599.36393
539.103	652.39271
539.575	596.17331
540.047	621.29117
540.519	670.50147
540.991	625.43235
541.463	665.50643
541.934	641.3872
542.406	618.40015
542.877	662.42324
543.348	668.50925
543.82	624.4252
544.291	686.48311
544.762	672.48435
545.233	716.66167
545.703	753.54236
546.174	712.54003
546.645	749.66385
547.115	807.78608
547.585	746.57789
548.056	884.94396
548.526	894.90927
548.996	854.83638
549.466	901.94203
549.935	918.94196
550.405	937.82123
550.875	1010.07746
551.344	960.03975
551.814	956.95287
552.283	970.81895
552.752	1044.11776
553.221	1149.16607
553.69	1104.06936
554.159	1180.46548
554.628	1116.13903
555.096	1175.54378
555.565	1157.19605
556.033	1101.20475
556.502	1077.24168
556.97	1092.06785
557.438	1055.15029
557.906	1045.1366
558.374	1058.09565
558.842	1016.10196
559.31	1062.05186
559.777	1060.20382
560.245	1079.18639
560.712	1104.20316
561.18	1163.21493
561.647	1156.18513
562.114	1206.30312
562.581	1269.56847
563.048	1323.47933
563.514	1306.62611
563.981	1424.56595
564.448	1479.59891
564.914	1526.75751
565.381	1553.70288
565.847	1618.88341
566.313	1722.97015
566.779	1714.78645
567.245	1826.08426
567.711	1879.23118
568.176	1839.95806
568.642	2032.54319
569.108	2081.50194
569.573	2108.3781
570.038	2169.97434
570.504	2269.17398
570.969	2389.83942
571.434	2495.31385
571.899	2438.59847
572.363	2584.40717
572.828	2592.40052
573.293	2676.47263
573.757	2665.42273
574.222	2798.44402
574.686	2843.4992
575.15	2870.70132
575.614	2929.50734
576.078	2929.68495
576.542	2951.4698
577.006	3036.42222
577.469	3041.90578
577.933	3119.49998
578.396	2943.63748
578.86	3022.66037
579.323	3080.80949
579.786	2931.20957
580.249	2985.57914
580.712	2906.83093
581.175	2897.89298
581.637	2862.42295
582.1	2828.30707
582.563	2827.13503
583.025	2760.78129
583.487	2691.93821
583.95	2633.25313
584.412	2682.08997
584.874	2548.64853
585.336	2477.54909
585.797	2505.15079
586.259	2470.52272
586.721	2288.4177
587.182	2387.39363
587.643	2179.21602
588.105	2219.44607
588.566	2133.85894
589.027	2132.47394
589.488	2060.1722
589.949	2034.38109
590.41	2018.60044
590.87	1975.04884
591.331	1964.8509
591.791	1978.21276
592.252	1804.02244
592.712	1865.18175
593.172	1868.02198
593.632	1824.88068
594.092	1754.86787
594.552	1770.76595
595.011	1653.86604
595.471	1619.69553
595.931	1627.72363
596.39	1636.01403
596.849	1661.92208
597.308	1617.64846
597.768	1651.24353
598.227	1557.85412
598.685	1569.70814
599.144	1500.74309
599.603	1557.87537
600.062	1605.58964
600.52	1546.67171
600.978	1527.79475
601.437	1581.72755
601.895	1475.42877
602.353	1570.63957
602.811	1637.78336
603.269	1587.94253
603.727	1678.05677
604.184	1613.80648
604.642	1693.12798
605.099	1649.87249
605.557	1697.10771
606.014	1694.75972
606.471	1714.24079
606.928	1847.8985
607.385	1914.40465
607.842	1879.00893
608.299	2031.26832
608.755	1928.3032
609.212	1852.91058
609.668	1933.02423
610.125	1994.34594
610.581	1937.19468
611.037	1956.08074
611.493	1870.13579
611.949	1944.42167
612.405	1828.57283
612.861	1907.15148
613.316	1902.23947
613.772	1917.12362
614.227	1942.25603
614.683	1900.81669
615.138	1904.15584
615.593	1942.16571
616.048	1877.00737
616.503	1959.35769
616.958	1905.4529
617.412	1845.1324
617.867	1840.90461
618.321	1888.71532
618.776	1869.93514
619.23	1765.01925
619.684	1739.8767
620.138	1802.00126
620.592	1778.18526
621.046	1688.92788
621.5	1775.21435
621.954	1675.80463
622.407	1686.77689
622.861	1641.02105
623.314	1553.70288
623.768	1588.83833
624.221	1585.36833
624.674	1505.69681
625.127	1433.6482
625.58	1437.57442
626.033	1408.42938
626.485	1418.71813
626.938	1353.60005
627.39	1369.58081
627.843	1324.49393
628.295	1275.39962
628.747	1227.42824
629.199	1267.37061
629.651	1242.34929
630.103	1210.33296
630.555	1168.06247
631.006	1180.31829
631.458	1131.27843
631.909	1096.11872
632.361	1045.10971
632.812	1029.08019
633.263	1056.94756
633.714	1063.93269
634.165	1025.18507
634.616	978.05558
635.067	949.82886
635.518	1027.11484
635.968	939.64386
636.419	971.8454
636.869	880.85749
637.319	881.81944
637.769	897.80373
638.219	836.76302
638.669	880.87693
639.119	888.94623
639.569	814.77054
640.019	857.76193
640.468	794.60702
640.918	841.79951
641.367	846.70302
641.816	874.75945
642.265	784.64461
642.714	764.60755
643.163	802.69792
643.612	780.75385
644.061	800.58006
644.51	812.7206
644.958	793.59
645.406	759.67074
645.855	790.76838
646.303	781.65667
646.751	799.67868
647.199	734.53692
647.647	779.63806
648.095	801.69617
648.543	827.53397
648.99	743.61568
649.438	804.71549
649.885	816.83183
650.333	799.4246
650.78	824.82712
651.227	831.85903
651.674	731.52962
652.121	698.56875
652.568	767.71793
653.015	780.77957
653.461	724.59198
653.908	817.73007
654.354	737.60466
654.801	707.5445
655.247	788.58614
655.693	752.8082
656.139	764.68561
656.585	796.72332
657.031	749.62391
657.477	794.57845
657.922	805.69723
658.368	734.66518
658.813	783.63493
659.259	751.66485
659.704	731.56264
660.149	787.69332
660.594	772.6834
661.039	749.57009
661.484	761.64715
661.929	749.60529
662.373	785.83436
662.818	809.83871
663.262	777.71181
663.707	751.74394
664.151	776.73205
664.595	756.65961
665.039	763.73973
665.483	775.80675
665.927	792.68695
666.371	753.61387
666.814	815.7566
667.258	833.82145
667.701	867.65862
668.145	871.93574
668.588	816.80038
669.031	873.86962
669.474	829.80127
669.917	817.6231
670.36	871.94932
670.803	793.71499
671.245	819.5659
671.688	857.85268
672.13	859.73912
672.573	833.87419
673.015	858.85918
673.457	902.74438
673.899	918.94365
674.341	922.96824
674.783	840.8078
675.225	874.9019
675.666	949.04379
676.108	911.73874
676.549	957.9721
676.991	975.90417
677.432	1047.83254
677.873	985.96545
678.314	1007.0884
678.755	1044.18585
679.196	1028.03138
679.637	1023.13479
680.078	1037.05826
680.518	1060.09182
680.959	1136.31511
681.399	1109.34904
681.839	1129.30756
682.28	1129.35521
682.72	1160.22996
683.16	1137.35523
683.6	1190.21032
684.039	1219.05349
684.479	1236.50896
684.919	1220.359
685.358	1220.55358
685.798	1265.72705
686.237	1320.5673
686.676	1275.35063
687.115	1344.49976
687.554	1364.55328
687.993	1370.36098
688.432	1419.5317
688.871	1475.60391
689.309	1465.69953
689.748	1437.23885
690.186	1535.75082
690.625	1556.72577
691.063	1533.81554
691.501	1564.8919
691.939	1632.02145
692.377	1631.94739
692.815	1614.88943
693.253	1807.08032
693.69	1788.76731
694.128	1779.1236
694.565	1818.03959
695.003	1809.29426
695.44	1916.09886
695.877	1858.07214
696.314	1813.64001
696.751	1893.89588
697.188	1981.04771
697.625	2005.00722
698.061	2030.27663
698.498	2062.26669
698.934	2176.38865
699.371	2154.29106
699.807	2125.23749
700.243	2293.45848
700.679	2312.16684
701.115	2315.27834
701.551	2377.35221
701.987	2383.17805
702.422	2470.49068
702.858	2459.40992
703.294	2464.17961
703.729	2540.63013
704.164	2548.5541
704.599	2613.1723
705.035	2703.3058
705.47	2707.75767
705.904	2727.50863
706.339	2681.24376
706.774	2760.44769
707.209	2782.39763
707.643	2805.61422
708.078	2804.77277
708.512	2948.92401
708.946	2918.4993
709.38	2924.4949
709.814	2936.28601
710.248	3037.63353
710.682	3010.58027
711.116	3078.67489
711.549	2993.98839
711.983	3036.4
712.416	3143.49631
712.85	3169.86366
713.283	3175.55835
713.716	3216.81622
714.149	3175.47641
714.582	3302.26233
715.015	3164.74686
715.448	3203.87155
715.881	3175.97583
716.313	3163.47217
716.746	3297.52637
717.178	3259.59084
717.61	3179.84286
718.043	3358.76128
718.475	3258.58308
718.907	3391.86336
719.339	3271.31393
719.77	3242.55849
720.202	3234.88956
720.634	3325.77266
721.065	3266.53523
721.497	3245.71515
721.928	3250.77805
722.359	3199.75652
722.79	3286.70687
723.221	3211.82421
723.652	3227.92405
724.083	3270.31408
724.514	3205.34845
724.945	3200.4975
725.375	3254.53389
725.806	3107.74154
726.236	3155.94151
726.666	3163.50788
727.096	3150.74955
727.526	3162.96002
727.956	3107.2775
728.386	3123.70847
728.816	3008.89977
729.246	3139.75986
729.675	3103.80024
730.105	3064.61917
730.534	3014.43467
730.964	3067.81641
731.393	3036.66852
731.822	3030.95026
732.251	3024.87125
732.68	2992.38803
733.109	3002.69406
733.537	2992.63138
733.966	2968.85734
734.395	2992.34901
734.823	2950.14019
735.251	2977.65507
735.68	2946.80244
736.108	2930.83224
736.536	2844.41889
736.964	2883.40325
737.392	2893.79706
737.82	2846.55657
738.247	2793.49708
738.675	2875.48603
739.102	2807.82107
739.53	2811.91765
739.957	2743.95768
740.384	2700.58077
740.811	2776.79707
741.238	2693.62258
741.665	2685.31406
742.092	2645.47652
742.519	2651.69057
742.945	2553.49663
743.372	2603.69737
743.798	2632.89328
744.225	2615.45537
744.651	2529.70035
745.077	2612.70272
745.503	2526.5354
745.929	2493.45009
746.355	2558.63241
746.781	2524.63272
747.207	2505.46512
747.632	2464.63146
748.058	2492.66521
748.483	2522.28124
748.908	2456.6044
749.334	2382.55525
749.759	2383.27648
750.184	2380.42366
750.609	2361.54275
751.033	2350.29775
751.458	2367.07282
751.883	2293.50677
752.307	2308.33138
752.732	2359.69067
753.156	2269.55519
753.58	2305.35004
754.005	2262.57296
754.429	2262.2929
754.853	2146.43041
755.277	2133.16729
755.7	2225.50465
756.124	2146.45515
756.548	2156.29037
756.971	2149.2918
757.394	2157.65057
757.818	2123.57533
758.241	2078.49776
758.664	2010.45224
759.087	2051.98062
759.51	2026.33509
759.933	2020.25488
760.356	1999.44661
760.778	1989.34902
761.201	1960.21291
761.623	1942.1345
762.046	2021.14249
762.468	1942.05492
762.89	1879.16704
763.312	1957.27356
763.734	1885.10629
764.156	1942.26299
764.578	1871.95667
765	1945.23064
765.421	1831.30477
765.843	1861.41805
766.264	1862.08884
766.686	1794.14122
767.107	1718.9663
767.528	1770.22846
767.949	1785.24063
768.37	1670.92214
768.791	1708.97052
769.212	1649.07477
769.632	1631.78782
770.053	1644.22602
770.473	1601.87112
770.894	1599.93143
771.314	1591.73627
771.734	1600.74678
772.154	1513.91655
772.575	1473.54818
772.994	1485.53404
773.414	1480.67403
773.834	1495.8545
774.254	1529.86107
774.673	1425.65417
775.093	1384.67431
775.512	1332.57484
775.931	1397.75887
776.351	1358.64384
776.77	1370.62591
777.189	1382.53913
777.607	1372.75271
778.026	1379.70561
778.445	1276.58324
778.864	1243.56817
779.282	1295.47767
779.701	1220.47309
780.119	1264.64226
780.537	1190.43948
780.955	1119.32406
781.373	1082.22379
781.791	1134.08106
782.209	1126.10142
782.627	1152.54925
783.045	1120.13746
783.462	1073.31208
783.88	1045.28616
784.297	1038.21043
784.715	1065.31531
785.132	974.03195
785.549	994.13215
785.966	951.05247
786.383	892.9091
786.8	922.84344
787.217	909.86642
787.633	858.88598
788.05	853.74112
788.466	841.68248
788.883	810.82504
789.299	819.73356
789.715	782.70018
790.131	820.81674
790.547	708.57629
790.963	797.76467
791.379	689.58166
791.795	690.41221
792.21	694.45308
792.626	677.44336
793.041	674.52405
793.457	662.49811
793.872	623.33672
794.287	604.33678
794.702	593.33774
795.117	601.38665
795.532	587.37042
795.947	606.33341
796.362	604.32567
796.776	549.16913
797.191	525.20727
797.605	523.17772
798.02	488.11647
798.434	479.9907
798.848	489.14404
799.262	490.15868
799.676	482.09521
800.09	476.12422
800.504	468.06334
800.918	444.98994
801.331	441.07929
801.745	457.99551
802.158	394.94608
802.572	371.85641
802.985	372.86059
803.398	383.87777
803.811	349.85029
804.224	340.80838
804.637	343.79934
805.05	307.68836
805.462	298.71236
805.875	284.72291
806.288	314.74687
806.7	303.74431
807.112	264.595
807.525	284.68356
807.937	253.61507
808.349	287.70188
808.761	290.69774
809.173	273.64774
809.584	277.66508
809.996	267.64594
810.408	299.75692
810.819	322.74495
811.231	416.04819
811.642	459.06913
812.053	535.22392
812.464	457.04355
812.875	367.90413
813.286	301.75764
813.697	317.71925
814.108	240.5768
814.519	238.52169
814.929	236.59076
815.34	211.51624
815.75	204.51692
816.16	167.41405
816.571	187.4773
816.981	212.4938
817.391	231.5557
817.801	189.47474
818.211	137.3237
818.62	191.46418
819.03	147.35993
819.44	179.46122
819.849	184.45711
820.259	133.33697
820.668	165.40909
821.077	153.38501
821.486	147.35364
821.895	140.34298
822.304	142.37595
822.713	185.43964
823.122	163.40694
823.531	191.45582
823.939	125.30868
824.348	137.33707
824.756	168.42192
825.164	157.39153
825.573	168.42843
825.981	138.34222
826.389	131.3319
826.797	118.29423
827.205	120.28183
827.612	164.40654
828.02	106.25419
828.428	138.35391
828.835	132.34854
829.243	181.4351
829.65	114.28631
830.057	142.34814
830.464	109.26808
830.871	130.3128
831.278	81.19789
831.685	117.26602
832.092	124.30795
832.499	100.22262
832.905	102.25967
833.312	119.27582
833.718	99.24949
834.124	135.30956
834.531	138.34696
834.937	96.24431
835.343	109.26669
835.749	78.18233
836.155	72.19005
836.561	106.26517
836.966	113.27874
837.372	114.29196
837.777	111.28113
838.183	41.093
838.588	70.17435
838.993	94.23081
839.399	67.16679
839.804	55.13687
840.209	117.30315
840.613	59.13513
841.018	51.13041
841.423	94.24251
841.828	106.27213
842.232	67.1674
842.637	139.33186
843.041	67.17557
843.445	95.24095
843.849	43.10821
844.253	79.19121
844.657	117.29854
845.061	84.19551
845.465	105.2571
845.869	85.20185
846.272	83.20647
846.676	73.17762
847.079	48.12564
847.483	41.10329
847.886	27.06596
848.289	69.18643
848.692	68.17452
849.095	56.13811
849.498	68.17207
849.901	97.22448
850.304	112.27184
850.707	50.12855
851.109	67.16963
851.512	84.21112
851.914	71.18498
852.316	30.07645
852.718	50.13198
853.121	112.27724
853.523	105.25222
853.925	97.25694
854.326	-3.00767
854.728	50.13145
855.13	72.18992
855.531	86.21171
855.933	42.10148
856.334	68.17281
856.736	83.19124
857.137	9.02155
857.538	70.18028
857.939	91.23023
858.34	59.14602
858.741	50.13225
859.142	106.25796
859.542	77.20608
859.943	60.15123
860.343	51.12894
860.744	42.10416
861.144	7.01732
861.544	57.14164
861.945	64.16723
862.345	56.13882
862.745	95.24155
863.145	71.17133
863.544	59.15102
863.944	23.05525
864.344	60.15091
864.743	34.08524
865.143	55.14349
865.542	64.15224
865.941	77.19481
866.34	66.16026
866.74	75.20178
867.139	46.11395
867.537	76.19505
867.936	52.12829
868.335	43.11149
868.734	84.21986
869.132	105.24934
869.531	34.08283
869.929	58.13734
870.327	86.21062
870.726	13.03275
871.124	116.27541
871.522	28.07286
871.92	84.21067
872.318	55.13672
872.715	51.12654
873.113	60.14999
873.511	92.23462
873.908	57.14851
874.306	65.16597
874.703	36.09136
875.1	34.08817
875.497	83.20421
875.894	66.1666
876.291	55.13682
876.688	116.30434
877.085	65.15732
877.482	46.11682
877.878	69.1697
878.275	36.09375
878.671	72.16367
879.068	76.18592
879.464	56.13765
879.86	18.04367
880.256	58.14504
880.652	62.16012
881.048	62.15482
881.444	59.14113
881.84	38.0981
882.236	86.21747
882.631	104.26045
883.027	12.02952
883.422	56.14482
883.817	97.2509
884.213	67.17498
884.608	47.11857
885.003	85.20975
885.398	73.18771
885.793	54.13733
886.188	115.29188
886.582	61.15603
886.977	90.21672
887.371	34.08631
887.766	60.15275
888.16	78.19646
888.554	88.21727
888.949	54.13674
889.343	30.07429
889.737	59.16122
890.131	37.09371
890.525	85.21887
890.918	49.12415
891.312	42.10095
891.706	43.11245
892.099	27.06911
892.492	91.20128
892.886	41.10173
893.279	65.16865
893.672	1.00256
894.065	53.13419
894.458	119.30332
894.851	103.25351
895.244	39.10098
895.637	75.18426
896.029	37.09207
896.422	45.11153
896.814	34.08591
897.206	33.08053
897.599	32.07982
897.991	18.04434
898.383	56.13684
898.775	62.14282
899.167	46.11098
899.559	49.12534
899.951	81.19324
900.342	58.14786
900.734	45.11563
901.125	55.14579
901.517	38.09578
901.908	59.14291
902.299	87.21909
902.69	72.17377
903.082	55.13527
903.473	95.23279
903.863	41.10631
904.254	84.20036
904.645	76.19108
905.036	21.05249
905.426	40.09299
905.817	57.14293
906.207	44.10824
906.597	-6.01437
906.987	89.23227
907.378	16.04096
907.768	28.0753
908.158	38.09451
908.547	44.11599
908.937	21.05432
909.327	80.1981
909.717	34.08698
910.106	56.13664
910.495	78.19689
910.885	98.25116
911.274	53.13443
911.663	48.1222
912.052	50.12413
912.441	43.11026
912.83	75.17659
913.219	47.12392
913.608	32.07965
913.997	18.04645
914.385	65.15667
914.774	73.17981
915.162	96.23353
915.55	62.15184
915.939	8.02068
916.327	62.1546
916.715	15.039
917.103	72.1779
917.491	41.1021
917.878	42.10347
918.266	16.04171
918.654	76.19763
919.041	45.1198
919.429	87.20906
919.816	27.06921
920.203	84.20701
920.591	25.06291
920.978	20.04922
921.365	37.09854
921.752	60.14645
922.139	82.18353
922.525	80.19737
922.912	23.05703
923.299	52.13187
923.685	17.04532
924.072	37.086
924.458	54.13587
924.844	31.07863
925.231	72.17108
925.617	86.22195
926.003	50.12913
926.389	72.18401
926.774	63.1616
927.16	84.21074
927.546	72.18775
927.931	75.18928
928.317	80.18547
928.702	50.1194
929.088	39.09514
929.473	58.14901
929.858	31.07737
930.243	58.14231
930.628	87.21705
931.013	67.16891
931.398	75.17384
931.783	35.09262
932.167	84.21013
932.552	24.06065
932.937	65.16269
933.321	40.10259
933.705	51.13105
934.09	40.10136
934.474	57.13718
934.858	43.11303
935.242	70.16613
935.626	85.22108
936.009	-10.02679
936.393	31.07999
936.777	28.07309
937.16	27.07092
937.544	76.18016
937.927	56.14528
938.311	67.16466
938.694	34.09044
939.077	60.14623
939.46	-11.02698
939.843	98.21128
940.226	20.05229
940.609	123.29073
940.991	49.12674
941.374	31.07762
941.757	37.09218
942.139	95.22081
942.522	52.12384
942.904	67.16363
943.286	12.03083
943.668	78.20409
944.05	53.13299
944.432	67.16957
944.814	52.12853
945.196	84.21013
945.578	60.14863
945.959	67.16021
946.341	31.07571
946.722	55.13111
947.104	75.18235
947.485	38.0906
947.866	100.25799
948.247	-9.02307
948.628	39.09581
949.009	74.19263
949.39	60.15069
949.771	83.19626
950.152	65.1631
950.532	4.01023
950.913	91.22166
951.293	37.10159
951.674	104.25922
952.054	62.15801
952.434	7.01772
952.814	16.03908
953.194	39.10255
953.574	66.16248
953.954	32.07787
954.334	60.1521
954.714	43.10755
955.093	35.08694
955.473	13.03309
955.853	64.16649
956.232	2.00551
956.611	15.03674
956.99	114.29011
957.37	95.24428
957.749	80.19454
958.128	73.18778
958.506	105.27702
958.885	73.18725
959.264	84.21218
959.643	41.09507
960.021	27.06875
960.4	58.13531
960.778	124.30548
961.156	93.23671
961.535	59.13962
961.913	80.19023
962.291	58.15336
962.669	7.01801
963.047	29.07483
963.424	45.11616
963.802	49.12331
964.18	56.14287
964.557	77.18031
964.935	70.16844
965.312	60.1572
965.69	38.09578
966.067	39.09723
966.444	14.03497
966.821	24.06258
967.198	22.05428
967.575	49.12043
967.952	36.08639
968.329	55.13637
968.705	31.06797
969.082	68.17744
969.458	39.09716
969.835	35.08659
970.211	75.196
970.587	54.13596
970.963	17.0442
971.339	29.07703
971.715	68.1714
972.091	54.13509
972.467	86.21638
972.843	60.15123
973.219	15.03632
973.594	63.1685
973.97	74.17745
974.345	32.07869
974.721	55.13322
975.096	43.10591
975.471	98.23491
975.846	61.14831
976.221	60.15619
976.596	69.1692
976.971	53.13251
977.346	51.12008
977.72	55.14241
978.095	66.17281
978.469	56.13521
978.844	44.11098
979.218	52.12669
979.593	29.07069
979.967	55.13592
980.341	31.07291
980.715	40.10284
981.089	28.07055
981.463	107.25311
981.837	3.00757
982.21	117.27226
982.584	33.08161
982.957	57.14544
983.331	99.23681
983.704	-32.07968
984.078	66.16576
984.451	2.00502
984.824	10.0251
985.197	35.08634
985.57	77.19474
985.943	34.08447
986.316	74.18311
986.688	39.09528
987.061	79.18962
987.434	29.07674
987.806	54.13338
988.179	68.16449
988.551	41.1059
988.923	34.08524
989.295	18.04492
989.667	22.05452
990.039	77.19426
990.411	63.14776
990.783	63.14724
991.155	60.14972
991.527	42.10385
991.898	53.13481
992.27	28.0704
992.641	75.18874
993.012	73.17409
993.384	28.06778
993.755	79.20462
994.126	42.10255
994.497	20.05041
994.868	35.08289
995.239	27.06646
995.61	47.12086
995.98	61.15213
996.351	42.1059
996.722	73.17515
997.092	33.08044
997.462	71.17055
997.833	74.17691
998.203	43.10529
998.573	45.11349
998.943	36.08705
999.313	38.09365
999.683	51.12636
1000.053	54.12757
1000.423	29.07127
1000.792	106.27744
1001.162	43.10708
1001.531	71.17745
1001.901	75.19151
1002.27	52.11902
1002.639	40.10434
1003.009	23.05563
1003.378	21.05419
1003.747	87.21033
1004.116	-6.01485
1004.485	32.0775
1004.853	43.11042
1005.222	19.04841
1005.591	61.1467
1005.959	101.23447
1006.328	64.14761
1006.696	69.17083
1007.064	45.11438
1007.433	62.15616
1007.801	15.03719
1008.169	44.11146
1008.537	86.19423
1008.905	45.10805
1009.273	17.04238
1009.64	76.18654
1010.008	86.20858
1010.375	-11.02658
1010.743	74.1721
1011.11	15.03669
1011.478	43.10763
1011.845	41.09808
1012.212	76.17668
1012.579	-38.09558
1012.946	59.14216
1013.313	45.1081
1013.68	55.12571
1014.047	39.09581
1014.414	6.01467
1014.78	20.05039
1015.147	10.02442
1015.513	72.17626
1015.88	14.03599
1016.246	21.05188
1016.612	40.09244
1016.978	58.1442
1017.344	53.13385
1017.71	2.00491
1018.076	31.07427
1018.442	17.04403
1018.808	66.16725
1019.174	54.13806
1019.539	38.08736
1019.905	4.00971
1020.27	20.05077
1020.636	44.10724
1021.001	33.08023
1021.366	22.05426
1021.731	-2.00518
1022.096	21.05424
1022.461	56.13475
1022.826	40.09672
1023.191	4.01065
1023.556	38.09161
1023.92	44.10892
1024.285	9.02247
1024.649	26.06511
1025.014	55.13826
1025.378	34.08714
1025.742	34.08631
1026.107	30.06914
1026.471	24.05641
1026.835	73.18436
1027.199	96.23876
1027.562	49.11614
1027.926	45.11137
1028.29	64.16523
1028.654	56.13152
1029.017	30.07432
1029.381	26.0637
1029.744	2.00517
1030.107	48.11506
1030.471	-1.00243
1030.834	36.08339
1031.197	53.1278
1031.56	27.06481
1031.923	51.1331
1032.286	86.20324
1032.648	84.20465
1033.011	36.08405
1033.374	36.08531
1033.736	13.0349
1034.099	76.18882
1034.461	-26.0671
1034.823	7.01775
1035.185	55.14009
1035.548	43.10716
1035.91	57.13879
1036.272	1.00232
1036.634	37.09097
1036.995	45.10883
1037.357	53.13127
1037.719	-5.01231
1038.08	42.10095
1038.442	41.09886
1038.803	37.09009
1039.165	78.2006
1039.526	58.14199
1039.887	23.05646
1040.248	2.00504
1040.609	0
1040.97	28.0702
1041.331	13.03351
1041.692	48.11681
1042.053	65.15114
1042.413	24.05729
1042.774	56.1375
1043.134	61.14775
1043.495	21.05334
1043.855	34.08392
1044.215	44.1115
1044.576	65.16028
1044.936	65.1512
1045.296	46.1162
1045.656	9.02238
1046.016	7.01715
1046.375	16.03936
1046.735	42.0981
1047.095	42.10014
1047.454	74.15947
1047.814	39.09546
1048.173	14.03328
1048.533	8.01881
1048.892	60.14814
1049.251	92.23222
1049.61	23.05767
1049.969	84.20342
1050.328	49.10879
1050.687	32.0791
1051.046	5.01232
1051.405	71.18008
1051.763	44.10394
1052.122	20.0509
1052.48	-8.01984
1052.839	46.11035
1053.197	39.09422
1053.555	-25.05705
1053.914	60.14661
1054.272	18.04376
1054.63	67.16752
1054.988	50.12154
1055.345	74.16283
1055.703	49.11927
1056.061	15.03913
1056.419	1.00264
1056.776	36.08758
1057.134	39.09251
1057.491	-2.00509
1057.848	21.05262
1058.206	3.00726
1058.563	46.10364
1058.92	29.06738
1059.277	74.18324
1059.634	57.13557
1059.991	70.16978
1060.348	62.14402
1060.704	43.10505
1061.061	23.0542
1061.418	34.08361
1061.774	46.11545
1062.131	33.08893
1062.487	66.15706
1062.843	1.00253
1063.199	78.1971
1063.555	71.16886
1063.911	10.02545
1064.267	33.07028
1064.623	22.05472
1064.979	45.10781
1065.335	36.08676
1065.691	-13.03183
1066.046	-37.08239
1066.402	87.20317
1066.757	51.12935
1067.112	59.14516
1067.468	98.24054
1067.823	90.21935
1068.178	32.07814
1068.533	69.16945
1068.888	-4.00975
1069.243	51.12733
1069.598	60.14803
1069.952	52.12103
1070.307	75.19029
1070.662	15.03629
1071.016	-10.02325
1071.371	24.05575
1071.725	65.15673
1072.079	33.08017
1072.434	14.03498
1072.788	71.17204
1073.142	57.14251
1073.496	14.03394
1073.85	26.06097
1074.203	92.22856
1074.557	38.10232
1074.911	26.06242
1075.265	16.03805
1075.618	44.10784
1075.971	25.06062
1076.325	34.08796
1076.678	76.17898
1077.031	52.12103
1077.385	108.24292
1077.738	58.13425
1078.091	19.04479
1078.444	69.1624
1078.796	38.0941
1079.149	67.16721
1079.502	64.15645
1079.855	29.06971
1080.207	48.11969
1080.56	12.03149
1080.912	20.04929
1081.264	37.09073
1081.617	82.20439
1081.969	40.10348
1082.321	18.04456
1082.673	56.13209
1083.025	66.15953
1083.377	107.2339
1083.728	58.13617
1084.08	35.08843
1084.432	39.09613
1084.783	58.13734
1085.135	51.12967
1085.486	45.10703
1085.838	24.06043
1086.189	19.04676
1086.54	25.0606
1086.891	52.13406
1087.242	34.08339
1087.593	79.19315
1087.944	35.08026
1088.295	50.11573
1088.646	48.11908
1088.996	-1.00247
1089.347	22.05504
1089.698	32.07767
1090.048	-21.05488
1090.398	6.01415
1090.749	78.18897
1091.099	91.23538
1091.449	29.07335
1091.799	67.16981
1092.149	57.14426
1092.499	-11.02744
1092.849	33.08571
1093.199	48.12038
1093.548	57.13998
1093.898	1.00256
1094.248	39.10088
1094.597	35.09231
1094.947	14.03772
1095.296	30.07497
1095.645	37.09712
1095.994	63.15214
1096.343	14.0358
1096.692	72.19571
1097.041	-17.04653
1097.39	72.18427
1097.739	18.04743
1098.088	47.12699
1098.437	40.10686
1098.785	6.01622
1099.134	40.10661
1099.482	69.19059
1099.83	8.02115
1100.179	54.14393
1100.527	-9.02421
1100.875	42.1122
1101.223	9.02418
1101.571	37.10317
1101.919	60.1605
1102.267	31.08777
1102.615	15.04834
1102.962	10.03217
1103.31	19.06112
1103.658	16.05159
