Data from N2 R0 105C sample9_Subt2__4__12-47-33-687.txt Node

Date: Tue Aug 19 12:47:33 PDT 2025
User: uwsun
Spectrometer: HDX01956
Trigger mode: 0
Integration Time (sec): 5.000000E-1
Scans to average: 1
Nonlinearity correction enabled: true
Boxcar width: 0
Storing dark spectrum: false
XAxis mode: Wavelengths
Number of Pixels in Spectrum: 2068
>>>>>Begin Spectral Data<<<<<
194.03	183.5234
194.578	169.54094
195.127	185.58318
195.676	163.51712
196.225	232.62239
196.773	208.58179
197.321	312.86448
197.87	414.06131
198.418	412.04438
198.966	392.02086
199.513	359.89742
200.061	415.04846
200.609	410.0671
201.156	397.87254
201.704	470.17097
202.251	419.10338
202.798	404.04211
203.345	414.01478
203.892	387.97227
204.438	452.06704
204.985	464.10049
205.532	399.04108
206.078	431.04892
206.624	421.03102
207.17	430.99552
207.716	454.09078
208.262	369.73858
208.808	463.13951
209.354	451.08868
209.899	436.07551
210.445	466.14879
210.99	418.01097
211.535	484.12636
212.08	452.05342
212.625	445.10237
213.17	413.03449
213.715	461.04466
214.259	451.04056
214.804	433.0483
215.348	409.93095
215.892	382.91519
216.436	389.90402
216.98	442.98304
217.524	362.86167
218.068	460.14974
218.612	389.97519
219.155	387.91178
219.698	418.99148
220.242	404.99835
220.785	363.84927
221.328	372.91931
221.871	371.92707
222.414	387.95689
222.956	375.91634
223.499	352.80075
224.041	362.84676
224.583	323.69888
225.126	338.75427
225.668	316.77207
226.21	371.92841
226.751	349.78026
227.293	404.93015
227.835	402.98138
228.376	405.92668
228.918	381.95618
229.459	382.9492
230	334.79778
230.541	441.02027
231.082	327.78659
231.622	376.86328
232.163	395.95334
232.704	359.8841
233.244	356.88107
233.784	401.97073
234.324	430.95834
234.864	354.80953
235.404	409.96209
235.944	403.94503
236.484	357.87821
237.023	424.9995
237.563	389.89723
238.102	336.78965
238.641	388.97356
239.18	396.93062
239.719	399.98979
240.258	380.85813
240.797	404.9664
241.335	395.96017
241.874	410.8102
242.412	417.0004
242.95	366.87887
243.488	409.93621
244.026	312.72726
244.564	413.85382
245.102	373.84181
245.64	403.95499
246.177	410.92209
246.715	441.04323
247.252	392.90001
247.789	396.75721
248.326	425.01847
248.863	403.89502
249.4	405.91961
249.936	358.74493
250.473	414.96608
251.009	414.95583
251.546	371.82499
252.082	390.85878
252.618	398.88447
253.154	394.95111
253.69	381.8553
254.226	427.00421
254.761	412.93834
255.297	380.83185
255.832	406.94853
256.367	455.06021
256.903	379.82773
257.438	409.95198
257.972	441.98305
258.507	394.91292
259.042	402.88519
259.576	449.97602
260.111	390.89972
260.645	384.82676
261.179	381.88788
261.713	436.97452
262.247	401.92895
262.781	424.896
263.315	430.04434
263.849	420.0409
264.382	439.99396
264.915	477.11026
265.449	436.0696
265.982	429.97724
266.515	453.0758
267.048	437.93903
267.58	467.01016
268.113	394.86067
268.646	408.00004
269.178	405.90954
269.71	500.07684
270.243	451.01243
270.775	420.04469
271.307	432.02131
271.838	421.97604
272.37	409.9953
272.902	457.02383
273.433	400.86675
273.965	425.0204
274.496	461.107
275.027	478.15505
275.558	455.08346
276.089	416.02007
276.62	465.15157
277.15	394.95111
277.681	476.02594
278.211	398.94369
278.741	470.02814
279.272	448.00877
279.802	456.10636
280.332	416.97456
280.861	524.22246
281.391	404.91492
281.921	457.0799
282.45	435.06812
282.98	461.16943
283.509	406.90673
284.038	445.00344
284.567	429.97961
285.096	463.09959
285.625	462.04205
286.153	466.06435
286.682	475.06859
287.21	458.08457
287.739	486.13057
288.267	465.10265
288.795	455.14479
289.323	495.14634
289.851	465.07803
290.378	438.9802
290.906	505.19443
291.433	459.10927
291.961	486.07931
292.488	453.09639
293.015	512.18272
293.542	485.19986
294.069	483.14761
294.596	515.22281
295.122	484.12724
295.649	488.05095
296.175	575.35025
296.702	480.12931
297.228	529.2339
297.754	545.2088
298.28	552.21749
298.806	534.2385
299.332	539.16967
299.857	536.17377
300.383	494.20586
300.908	504.19184
301.433	485.13866
301.958	536.18709
302.483	543.3042
303.008	558.32021
303.533	489.21815
304.058	551.2535
304.582	515.1866
305.107	525.32399
305.631	554.20865
306.155	552.2459
306.679	503.13493
307.203	562.26076
307.727	544.2418
308.251	583.37171
308.775	551.26915
309.298	565.319
309.822	585.4073
310.345	653.47623
310.868	586.33672
311.391	619.43728
311.914	608.44858
312.437	630.36714
312.96	606.35848
313.482	593.33774
314.005	610.45391
314.527	625.55053
315.049	591.4024
315.571	684.45798
316.093	673.56705
316.615	628.44297
317.137	653.34996
317.659	706.61069
318.18	602.36552
318.702	649.41469
319.223	713.40701
319.744	641.37243
320.265	760.70399
320.786	705.63516
321.307	705.63323
321.828	695.48946
322.348	738.6255
322.869	769.70124
323.389	499.74927
323.909	772.62867
324.43	735.62193
324.95	751.59782
325.47	748.68599
325.989	798.72398
326.509	821.66741
327.029	803.65155
327.548	808.66595
328.067	843.86191
328.587	824.85432
329.106	777.59803
329.625	851.99165
330.144	810.72307
330.662	797.66786
331.181	884.85373
331.7	858.82445
332.218	897.76074
332.736	895.87969
333.255	898.86656
333.773	946.96727
334.291	961.08377
334.808	995.96893
335.326	982.95629
335.844	1009.0601
336.361	969.15527
336.879	1019.09928
337.396	1007.10598
337.913	1031.04633
338.43	1085.09092
338.947	1035.10566
339.464	1080.99093
339.981	1041.12936
340.497	1053.2023
341.014	1113.30648
341.53	998.93124
342.046	1119.30044
342.562	1118.35736
343.078	1122.23194
343.594	1113.237
344.11	1160.27998
344.626	1210.51712
345.141	1171.19907
345.657	1176.18209
346.172	1264.47322
346.687	1214.30842
347.202	1265.30553
347.717	1255.44235
348.232	1306.62013
348.747	1279.38494
349.261	1304.30843
349.776	1302.45713
350.29	1335.65456
350.805	1361.70509
351.319	1370.53702
351.833	1293.32958
352.347	1349.49615
352.861	1360.48118
353.374	1389.46402
353.888	1391.62876
354.401	1357.4565
354.915	1377.42759
355.428	1432.74634
355.941	1456.61855
356.454	1462.48727
356.967	1472.62736
357.48	1454.53163
357.993	1469.75917
358.505	1476.73266
359.018	1566.84577
359.53	1602.8722
360.042	1518.50628
360.554	1553.7804
361.066	1545.82501
361.578	1523.44389
362.09	1503.66451
362.602	1600.56065
363.113	1592.7344
363.625	1608.63432
364.136	1671.60877
364.647	1668.84473
365.158	1674.75846
365.669	1682.86119
366.18	1678.80137
366.691	1722.65317
367.201	1759.94805
367.712	1843.86258
368.222	1812.83562
368.733	1878.78355
369.243	1839.76312
369.753	1912.9925
370.263	1911.07788
370.773	1866.06879
371.282	1886.9916
371.792	2003.06082
372.301	2055.19075
372.811	2019.41091
373.32	2081.72257
373.829	2146.1371
374.338	2183.87139
374.847	2285.09025
375.356	2365.21219
375.865	2342.71707
376.373	2583.04535
376.882	2616.51135
377.39	2614.28458
377.898	2711.4162
378.407	2809.92855
378.915	2941.70272
379.423	3087.11883
379.93	3150.83077
380.438	3296.22983
380.946	3491.97436
381.453	3556.99655
381.96	3697.84018
382.468	4015.68681
382.975	4203.59665
383.482	4362.98275
383.989	4406.75979
384.495	4616.97214
385.002	4898.34343
385.509	5056.84825
386.015	5302.74817
386.521	5723.15468
387.028	5867.96189
387.534	5990.74462
388.04	6316.98539
388.546	6398.7374
389.051	6723.62616
389.557	7278.9577
390.063	7933.53388
390.568	8057.72145
391.073	8371.14416
391.578	8737.83249
392.084	8809.06607
392.589	9211.28572
393.093	9893.2954
393.598	10970.46776
394.103	11961.37628
394.607	13038.12533
395.112	14042.81869
395.616	14798.2119
396.12	16166.32734
396.624	17666.80144
397.128	19273.76728
397.632	21495.17194
398.136	23039.388
398.639	24485.37437
399.143	27286.71062
399.646	30404.90512
400.15	33668.91032
400.653	37031.82245
401.156	41818.78866
401.659	47946.77718
402.162	56564.59274
402.664	53954.91887
403.167	49329.08451
403.67	22278.45323
404.172	2696.20453
404.674	0
405.176	0
405.678	0
406.18	0
406.682	0
407.184	0
407.686	25783.58453
408.187	43316.52985
408.688	51225.60928
409.19	54389.01922
409.691	56215.4214
410.192	57270.57019
410.693	57845.40442
411.194	58219.2365
411.694	58633.01717
412.195	59215.68848
412.696	57303.95809
413.196	54244.60405
413.696	53410.69344
414.196	54541.0749
414.696	53899.39067
415.196	51180.6431
415.696	46338.71263
416.196	36983.17247
416.695	28418.67854
417.195	24754.83127
417.694	23841.91586
418.194	22320.51015
418.693	21068.89518
419.192	20335.52911
419.691	20073.37993
420.19	19490.40559
420.688	19084.05701
421.187	18395.19847
421.685	17020.92642
422.184	15419.40609
422.682	13218.11146
423.18	11263.95679
423.678	10068.95988
424.176	9531.97972
424.674	8773.97882
425.172	8440.27665
425.669	7979.69719
426.167	7458.13532
426.664	6708.82751
427.161	6220.82914
427.659	5708.42669
428.156	5344.8989
428.652	5180.12104
429.149	4879.03111
429.646	4665.65711
430.143	4418.28281
430.639	4193.40143
431.135	3930.96234
431.632	3760.54009
432.128	3555.94383
432.624	3309.43033
433.12	3221.74963
433.616	3176.59788
434.111	2965.04916
434.607	2840.15172
435.103	2784.52405
435.598	2810.52819
436.093	2590.07245
436.588	2461.7792
437.083	2424.85762
437.578	2259.96295
438.073	2215.33447
438.568	2075.11235
439.062	1996.61267
439.557	2056.98172
440.051	1894.72744
440.546	1866.75392
441.04	1843.96127
441.534	1821.15685
442.028	1761.84862
442.522	1683.806
443.015	1655.49486
443.509	1727.92664
444.002	1652.86205
444.496	1584.47652
444.989	1567.73733
445.482	1553.80722
445.975	1533.56515
446.468	1525.35674
446.961	1528.39225
447.454	1481.43471
447.947	1462.60278
448.439	1356.45777
448.931	1420.4257
449.424	1379.61988
449.916	1445.64147
450.408	1366.34784
450.9	1351.53937
451.392	1288.53089
451.884	1321.32722
452.375	1324.59206
452.867	1254.20697
453.358	1276.27845
453.849	1303.13906
454.341	1217.18103
454.832	1247.11678
455.323	1225.3816
455.814	1185.19287
456.304	1216.22315
456.795	1172.16713
457.285	1097.97053
457.776	1169.12035
458.266	1106.15231
458.756	1114.16075
459.247	1089.14767
459.737	1067.13067
460.226	1062.99376
460.716	1068.13806
461.206	1048.10373
461.695	980.05079
462.185	934.86057
462.674	1007.97695
463.163	981.81932
463.653	975.76607
464.142	984.01666
464.63	925.95465
465.119	919.82346
465.608	907.82637
466.096	930.7421
466.585	925.83452
467.073	852.76774
467.561	827.73755
468.05	833.70026
468.538	787.7078
469.026	835.75514
469.513	991.92999
470.001	783.57498
470.489	808.70765
470.976	803.65081
471.463	750.66297
471.951	717.60062
472.438	683.45742
472.925	716.5091
473.412	641.42554
473.899	650.35665
474.385	683.51275
474.872	650.41538
475.359	700.55976
475.845	641.24222
476.331	590.16693
476.817	632.40637
477.303	600.29367
477.789	615.36766
478.275	606.38461
478.761	574.29615
479.247	610.28713
479.732	566.3216
480.218	519.26626
480.703	548.27752
481.188	498.02194
481.673	470.03334
482.158	549.12857
482.643	458.09374
483.128	489.07001
483.612	492.09311
484.097	438.01352
484.581	492.08043
485.066	511.18251
485.55	475.01173
486.034	374.78931
486.518	430.98802
487.002	475.12814
487.486	431.01285
487.969	444.05176
488.453	379.91819
488.936	419.9317
489.42	392.84434
489.903	376.91315
490.386	383.63572
490.869	383.81805
491.352	412.97047
491.835	399.81527
492.318	387.88088
492.8	363.75618
493.283	408.01184
493.765	382.9218
494.247	344.79078
494.73	390.85085
495.212	329.78239
495.694	289.67617
496.175	313.74835
496.657	329.77095
497.139	346.61935
497.62	330.7813
498.102	298.73487
498.583	284.7037
499.064	356.8046
499.545	337.76896
500.026	310.70151
500.507	296.69106
500.988	341.84041
501.469	342.85077
501.949	299.73747
502.43	327.78002
502.91	351.74029
503.39	258.63999
503.87	305.72672
504.35	235.55759
504.83	265.59591
505.31	288.69476
505.79	269.65445
506.269	336.78781
506.749	266.61639
507.228	299.71079
507.707	285.64114
508.187	279.66045
508.666	292.72219
509.145	270.64519
509.623	252.5955
510.102	307.74436
510.581	312.74211
511.059	306.76622
511.538	292.74589
512.016	324.78218
512.494	337.81463
512.972	302.71944
513.45	318.74882
513.928	346.84535
514.406	376.91109
514.884	316.80888
515.361	352.84398
515.839	340.78221
516.316	376.89979
516.793	356.88783
517.27	335.79788
517.747	355.90054
518.224	391.904
518.701	388.87584
519.178	309.76016
519.654	385.90108
520.131	311.76423
520.607	339.82994
521.083	323.74474
521.56	353.84106
522.036	350.77653
522.512	309.74893
522.987	306.73539
523.463	343.82162
523.939	351.85293
524.414	309.71701
524.89	284.67994
525.365	345.79102
525.84	306.74431
526.315	280.68541
526.79	306.70091
527.265	338.78692
527.74	239.59016
528.215	282.67824
528.689	298.67518
529.164	246.54785
529.638	280.72353
530.112	253.613
530.587	290.63914
531.061	221.54652
531.534	241.58678
532.008	238.58607
532.482	198.46156
532.956	205.52985
533.429	281.68568
533.903	212.48172
534.376	206.47036
534.849	295.69426
535.322	237.57164
535.795	240.59426
536.268	195.47727
536.741	195.47851
537.213	224.53057
537.686	202.50676
538.158	200.4631
538.631	211.51873
539.103	246.57231
539.575	192.41447
540.047	249.56131
540.519	256.62318
540.991	224.55525
541.463	211.52256
541.934	252.59135
542.406	251.61181
542.877	279.64997
543.348	253.62059
543.82	189.46996
544.291	198.47316
544.762	215.52074
545.233	236.60012
545.703	258.58813
546.174	259.615
546.645	269.65763
547.115	271.66719
547.585	217.51251
548.056	301.74322
548.526	336.80471
548.996	273.6607
549.466	280.68413
549.935	302.72522
550.405	314.7013
550.875	305.72756
551.344	347.83658
551.814	350.81357
552.283	319.69465
552.752	376.87985
553.221	456.0046
553.69	385.85043
554.159	431.04814
554.628	381.86057
555.096	432.08159
555.565	425.95131
556.033	418.97005
556.502	392.94092
556.97	424.9348
557.438	393.92231
557.906	441.0239
558.374	434.98603
558.842	362.85935
559.31	453.00194
559.777	399.95244
560.245	498.14212
560.712	451.03519
561.18	524.15179
561.647	541.17551
562.114	504.12491
562.581	558.31156
563.048	580.28467
563.514	568.33457
563.981	607.3208
564.448	616.32537
564.914	645.42555
565.381	667.43062
565.847	774.67779
566.313	733.59459
566.779	711.4792
567.245	820.76021
567.711	833.82911
568.176	795.65415
568.642	847.9336
569.108	888.97475
569.573	1004.10661
570.038	995.87919
570.504	956.89299
570.969	1044.30738
571.434	1094.12187
571.899	1151.35469
572.363	1165.25509
572.828	1221.32792
573.293	1239.37822
573.757	1240.35572
574.222	1357.50481
574.686	1336.50438
575.15	1348.62187
575.614	1427.61625
576.078	1438.72505
576.542	1449.62109
577.006	1481.63071
577.469	1443.84195
577.933	1486.67951
578.396	1436.69634
578.86	1433.70181
579.323	1493.8534
579.786	1433.46169
580.249	1442.67081
580.712	1381.72975
581.175	1323.68153
581.637	1341.47028
582.1	1320.38625
582.563	1292.26472
583.025	1220.4921
583.487	1284.15717
583.95	1278.32055
584.412	1254.20239
584.874	1188.4125
585.336	1114.26612
585.797	1110.06537
586.259	1184.35875
586.721	1110.23861
587.182	1068.14003
587.643	991.98747
588.105	1017.12599
588.566	975.8028
589.027	942.0395
589.488	988.99646
589.949	969.07624
590.41	893.59016
590.87	913.84519
591.331	890.71786
591.791	881.86812
592.252	855.80115
592.712	811.77259
593.172	872.80365
593.632	912.81502
594.092	846.73111
594.552	803.60489
595.011	793.68579
595.471	794.61948
595.931	731.52153
596.39	818.81381
596.849	806.73237
597.308	784.58025
597.768	776.8363
598.227	755.66123
598.685	731.54108
599.144	787.69622
599.603	799.75295
600.062	832.63337
600.52	786.63069
600.978	786.70527
601.437	862.76944
601.895	800.56235
602.353	808.63837
602.811	919.86241
603.269	893.93956
603.727	881.92644
604.184	912.87804
604.642	919.02209
605.099	910.89152
605.557	971.09924
606.014	993.93206
606.471	1034.27581
606.928	1074.05636
607.385	1150.44385
607.842	1097.14131
608.299	1238.43132
608.755	1269.55103
609.212	1146.16198
609.668	1205.27635
610.125	1244.50698
610.581	1308.52595
611.037	1274.39365
611.493	1262.4612
611.949	1374.77181
612.405	1324.15398
612.861	1342.55738
613.316	1343.62502
613.772	1336.52392
614.227	1393.67837
614.683	1356.33426
615.138	1333.55055
615.593	1423.64913
616.048	1400.54039
616.503	1438.80122
616.958	1369.81365
617.412	1385.63764
617.867	1333.40437
618.321	1410.32165
618.776	1362.44509
619.23	1297.49219
619.684	1387.51228
620.138	1330.49675
620.592	1323.64278
621.046	1280.45535
621.5	1283.60977
621.954	1208.27595
622.407	1296.36046
622.861	1207.46054
623.314	1168.23573
623.768	1115.23181
624.221	1087.86501
624.674	1108.1847
625.127	1101.20071
625.58	1092.12701
626.033	1074.01494
626.485	1026.15001
626.938	1033.13575
627.39	1017.0802
627.843	973.98986
628.295	907.86064
628.747	934.97496
629.199	891.82122
629.651	896.83764
630.103	959.96033
630.555	855.63248
631.006	838.77882
631.458	824.77714
631.909	831.70843
632.361	815.73259
632.812	813.72534
633.263	738.46834
633.714	752.47402
634.165	738.67156
634.616	754.66353
635.067	665.36804
635.518	711.56828
635.968	690.28609
636.419	662.35178
636.869	648.43665
637.319	653.41681
637.769	674.42421
638.219	654.43373
638.669	568.29249
639.119	676.54716
639.569	578.31951
640.019	571.24868
640.468	584.23812
640.918	559.26814
641.367	599.27356
641.816	577.24002
642.265	551.21452
642.714	527.16591
643.163	603.33152
643.612	561.31734
644.061	625.28449
644.51	610.34896
644.958	558.1788
645.406	595.35427
645.855	572.33719
646.303	554.23261
646.751	584.28441
647.199	534.16692
647.647	549.21213
648.095	581.28876
648.543	620.20861
648.99	494.13022
649.438	588.31268
649.885	581.36647
650.333	609.13849
650.78	622.43657
651.227	640.48754
651.674	529.15573
652.121	539.25035
652.568	545.27574
653.015	551.31442
653.461	527.20608
653.908	576.28321
654.354	516.17543
654.801	515.17008
655.247	622.29928
655.693	557.38825
656.139	537.24031
656.585	568.28884
657.031	528.19796
657.477	572.19522
657.922	609.33862
658.368	576.34813
658.813	573.25148
659.259	548.26549
659.704	520.16164
660.149	572.2869
660.594	535.22441
661.039	578.25682
661.484	557.25746
661.929	573.27415
662.373	595.44164
662.818	588.39554
663.262	556.28094
663.707	561.35104
664.151	570.32574
664.595	519.19535
665.039	598.4084
665.483	606.45924
665.927	633.39434
666.371	610.34727
666.814	603.35811
667.258	651.47767
667.701	600.22112
668.145	630.46946
668.588	586.35442
669.031	621.40155
669.474	638.442
669.917	602.25522
670.36	665.55084
670.803	594.33864
671.245	646.28624
671.688	643.45301
672.13	668.4109
672.573	620.45517
673.015	707.58088
673.457	672.37036
673.899	639.43458
674.341	711.58657
674.783	665.48446
675.225	700.57903
675.666	750.685
676.108	690.38673
676.549	750.61676
676.991	777.58799
677.432	826.52869
677.873	729.54022
678.314	781.70196
678.755	822.80608
679.196	811.68448
679.637	829.80509
680.078	756.59906
680.518	834.73344
680.959	928.98105
681.399	899.9922
681.839	872.88632
682.28	869.91775
682.72	934.89327
683.16	910.98108
683.6	939.85281
684.039	954.72225
684.479	942.03864
684.919	987.01329
685.358	999.19187
685.798	989.25668
686.237	1066.19673
686.676	1027.0091
687.115	1090.15315
687.554	1059.12926
687.993	1096.02417
688.432	1145.18477
688.871	1143.18933
689.309	1131.25558
689.748	1234.03351
690.186	1230.37387
690.625	1227.33152
691.063	1251.45748
691.501	1294.55099
691.939	1267.55629
692.377	1274.50799
692.815	1337.56067
693.253	1416.66256
693.69	1462.47269
694.128	1481.79933
694.565	1451.66438
695.003	1484.92079
695.44	1458.65536
695.877	1530.75364
696.314	1520.40691
696.751	1627.67817
697.188	1619.74815
697.625	1639.72023
698.061	1667.95837
698.498	1730.99342
698.934	1714.01567
699.371	1778.00726
699.807	1797.99453
700.243	1749.05161
700.679	1856.90205
701.115	1881.01218
701.551	1920.08142
701.987	1930.9422
702.422	1882.13249
702.858	1936.11434
703.294	2022.98122
703.729	2018.33257
704.164	2013.26406
704.599	2098.98879
705.035	2125.10108
705.47	2117.46516
705.904	2248.33495
706.339	2148.06492
706.774	2180.24144
707.209	2204.21033
707.643	2270.42403
708.078	2283.56547
708.512	2305.68176
708.946	2296.32962
709.38	2313.33375
709.814	2255.13428
710.248	2355.46361
710.682	2433.45467
711.116	2386.51142
711.549	2325.74094
711.983	2392.28616
712.416	2455.39361
712.85	2394.6678
713.283	2438.43984
713.716	2384.625
714.149	2440.37324
714.582	2392.19561
715.015	2375.56426
715.448	2349.64994
715.881	2391.94685
716.313	2397.35224
716.746	2451.42806
717.178	2400.45533
717.61	2410.65913
718.043	2419.60658
718.475	2378.43931
718.907	2435.69693
719.339	2397.23444
719.77	2339.40074
720.202	2342.66046
720.634	2438.62183
721.065	2478.44249
721.497	2383.54534
721.928	2380.59379
722.359	2408.58872
722.79	2431.56354
723.221	2320.59683
723.652	2362.69857
724.083	2401.2359
724.514	2361.24119
724.945	2321.34155
725.375	2378.40006
725.806	2252.49333
726.236	2219.62467
726.666	2293.33416
727.096	2328.54204
727.526	2236.64987
727.956	2274.14076
728.386	2297.49286
728.816	2267.63205
729.246	2278.52242
729.675	2303.56894
730.105	2236.38934
730.534	2191.22068
730.964	2217.53102
731.393	2185.3981
731.822	2289.68407
732.251	2206.56889
732.68	2217.19775
733.109	2179.41555
733.537	2318.4453
733.966	2274.6063
734.395	2250.18283
734.823	2201.99273
735.251	2232.41848
735.68	2210.52458
736.108	2187.53478
736.536	2217.22874
736.964	2192.20011
737.392	2208.52524
737.82	2219.34256
738.247	2165.2691
738.675	2238.29234
739.102	2212.56111
739.53	2239.65782
739.957	2185.66933
740.384	2105.31442
740.811	2201.5402
741.238	2194.40751
741.665	2136.11654
742.092	2152.26898
742.519	2123.42794
742.945	2166.31737
743.372	2155.46891
743.798	2137.61252
744.225	2122.23939
744.651	2104.45952
745.077	2093.42722
745.503	2057.28697
745.929	2053.22216
746.355	2166.4341
746.781	2106.40478
747.207	2067.24082
747.632	2028.36738
748.058	2044.39791
748.483	2103.10151
748.908	2032.35053
749.334	2053.35356
749.759	1908.00749
750.184	2004.20377
750.609	1994.30672
751.033	1965.07852
751.458	2007.90659
751.883	1960.27951
752.307	2004.1521
752.732	1920.37047
753.156	1895.27767
753.58	1969.14443
754.005	1905.30538
754.429	1909.0678
754.853	1847.19397
755.277	1898.01012
755.7	1845.21208
756.124	1774.14599
756.548	1811.0351
756.971	1813.04174
757.394	1788.31809
757.818	1759.24571
758.241	1778.22866
758.664	1776.23465
759.087	1756.77519
759.51	1710.05344
759.933	1720.9993
760.356	1641.0911
760.778	1663.04062
761.201	1756.03619
761.623	1639.86535
762.046	1646.83075
762.468	1527.68232
762.89	1582.87641
763.312	1649.98456
763.734	1456.67824
764.156	1521.8419
764.578	1578.69735
765	1547.84417
765.421	1466.88799
765.843	1474.96566
766.264	1444.66531
766.686	1449.76249
767.107	1391.60588
767.528	1406.79659
767.949	1404.79132
768.37	1320.51777
768.791	1319.52491
769.212	1300.63069
769.632	1296.41021
770.053	1248.67501
770.473	1249.43866
770.894	1178.3846
771.314	1208.28591
771.734	1240.32959
772.154	1128.37226
772.575	1171.18512
772.994	1145.12912
773.414	1173.28245
773.834	1136.35472
774.254	1129.31792
774.673	1077.1764
775.093	1012.12714
775.512	1026.12645
775.931	1034.21329
776.351	983.08191
776.77	951.00444
777.189	951.9352
777.607	957.1014
778.026	936.02564
778.445	936.04023
778.864	888.98044
779.282	918.91577
779.701	840.85027
780.119	851.94117
780.537	840.85798
780.955	797.77418
781.373	782.716
781.791	788.5716
782.209	800.61328
782.627	763.8253
783.045	742.54548
783.462	720.66898
783.88	728.69949
784.297	711.62177
784.715	670.57871
785.132	682.51523
785.549	706.60875
785.966	613.41885
786.383	582.32811
786.8	632.3476
787.217	610.33605
787.633	581.35056
788.05	536.17179
788.466	525.12617
788.883	563.33179
789.299	536.20384
789.715	572.29845
790.131	538.26106
790.547	478.11412
790.963	473.11691
791.379	488.16461
791.795	424.9211
792.21	470.03204
792.626	439.98547
793.041	476.11901
793.457	438.03553
793.872	414.92956
794.287	382.88583
794.702	404.94793
795.117	395.9501
795.532	377.9178
795.947	344.79962
796.362	432.98388
796.776	322.72065
797.191	391.92478
797.605	392.90793
798.02	283.67534
798.434	277.59884
798.848	341.82243
799.262	327.79909
799.676	326.76556
800.09	304.74331
800.504	254.60325
800.918	292.67153
801.331	219.55916
801.745	276.62433
802.158	279.6846
802.572	232.55037
802.985	255.60364
803.398	217.5139
803.811	177.44508
804.224	204.49772
804.637	221.52741
805.05	218.49776
805.462	251.60541
805.875	159.41367
806.288	204.4955
806.7	203.50789
807.112	187.4281
807.525	143.35338
807.937	155.38374
808.349	149.37374
808.761	169.41594
809.173	169.40903
809.584	168.41173
809.996	162.39967
810.408	145.37712
810.819	177.42128
811.231	201.52705
811.642	224.54692
812.053	273.65846
812.464	235.56167
812.875	184.46857
813.286	135.34991
813.697	181.42201
814.108	117.28776
814.519	115.25861
814.929	173.43799
815.34	147.36393
815.75	126.3237
816.16	103.25836
816.571	76.19777
816.981	108.25671
817.391	137.33545
817.801	137.34735
818.211	62.14862
818.62	128.31475
819.03	114.28084
819.44	123.32001
819.849	76.19252
820.259	78.19955
820.668	99.24842
821.077	107.27148
821.486	101.2451
821.895	76.1884
822.304	105.27972
822.713	117.28169
823.122	126.31668
823.531	129.31152
823.939	103.25538
824.348	155.38008
824.756	127.32131
825.164	104.26186
825.573	141.36129
825.981	63.15837
826.389	121.30711
826.797	5.01272
827.205	104.24502
827.612	106.26555
828.02	69.16663
828.428	86.22256
828.835	54.14445
829.243	101.24648
829.65	53.13457
830.057	92.22765
830.464	48.11938
830.871	124.29871
831.278	31.07644
831.685	109.24823
832.092	78.19534
832.499	53.11914
832.905	65.16656
833.312	69.16152
833.718	66.16731
834.124	63.14655
834.531	54.13781
834.937	6.01551
835.343	86.21132
835.749	44.10354
836.155	37.09824
836.561	79.19859
836.966	58.14452
837.372	75.19339
837.777	83.21126
838.183	56.12663
838.588	-9.02274
838.993	47.11641
839.399	72.17907
839.804	-3.00754
840.209	84.21889
840.613	60.13739
841.018	50.12787
841.423	70.18134
841.828	115.29478
842.232	73.18219
842.637	61.14781
843.041	25.06598
843.445	77.19592
843.849	-1.00254
844.253	95.22924
844.657	30.07772
845.061	51.11948
845.465	50.12368
845.869	89.21119
846.272	23.05784
846.676	-10.02471
847.079	43.11264
847.483	67.168
847.886	7.01717
848.289	39.10589
848.692	61.15674
849.095	89.21816
849.498	87.21941
849.901	71.16516
850.304	45.1106
850.707	35.09022
851.109	39.09923
851.512	67.16891
851.914	62.16178
852.316	-45.1162
852.718	33.08736
853.121	60.14993
853.523	56.13577
853.925	37.09899
854.326	-13.03328
854.728	46.12101
855.13	61.16121
855.531	103.25276
855.933	-5.01219
856.334	18.04615
856.736	54.12514
857.137	26.06204
857.538	59.15224
857.939	66.16773
858.34	76.18751
858.741	27.07169
859.142	57.13998
859.542	72.19286
859.943	54.13626
860.343	30.07613
860.744	65.16052
861.144	12.02966
861.544	39.09723
861.945	66.1724
862.345	38.09451
862.745	59.15097
863.145	65.15703
863.544	48.1231
863.944	37.08864
864.344	55.13846
864.743	43.10763
865.143	29.076
865.542	28.06707
865.941	83.20977
866.34	58.14104
866.74	35.09478
867.139	67.16533
867.537	49.12635
867.936	43.10627
868.335	62.16023
868.734	82.2147
869.132	76.18148
869.531	33.08041
869.929	45.10682
870.327	32.07915
870.726	57.14246
871.124	62.14873
871.522	16.04172
871.92	86.2156
872.318	22.05502
872.715	3.00751
873.113	76.18943
873.511	98.24966
873.908	45.11748
874.306	40.10259
874.703	10.02549
875.1	55.14212
875.497	82.20179
875.894	33.08379
876.291	0
876.688	47.12475
877.085	40.09727
877.482	24.06119
877.878	58.14294
878.275	84.21693
878.671	55.12546
879.068	33.08137
879.464	53.13035
879.86	10.0243
880.256	47.11777
880.652	29.07532
881.048	63.15729
881.444	26.06259
881.84	26.06726
882.236	23.05881
882.631	46.1164
883.027	64.15592
883.422	-3.00784
883.817	56.14588
884.213	35.09191
884.608	14.03553
885.003	39.09705
885.398	62.15973
885.793	8.02051
886.188	47.12073
886.582	-3.00776
886.977	79.19063
887.371	-21.05383
887.766	48.12246
888.16	33.08379
888.554	27.06741
888.949	66.16677
889.343	57.14045
889.737	44.12052
890.131	24.06093
890.525	32.08316
890.918	-4.01023
891.312	30.07227
891.706	-28.07411
892.099	24.06147
892.492	82.18172
892.886	25.06221
893.279	43.11199
893.672	-40.10327
894.065	19.0484
894.458	56.14432
894.851	38.09465
895.244	11.02862
895.637	51.12585
896.029	38.09455
896.422	62.15319
896.814	37.09345
897.206	7.01717
897.599	29.07238
897.991	18.04434
898.383	67.16338
898.775	6.01398
899.167	31.075
899.559	53.13547
899.951	28.06748
900.342	-9.02322
900.734	38.09776
901.125	54.14316
901.517	73.18285
901.908	21.05123
902.299	83.20917
902.69	65.15709
903.082	7.01737
903.473	65.16016
903.863	39.10116
904.254	23.0555
904.645	68.17121
905.036	23.05746
905.426	26.06061
905.817	92.22923
906.207	41.10091
906.597	-2.00479
906.987	41.10788
907.378	15.03841
907.768	23.0619
908.158	27.06729
908.547	4.01062
908.937	22.0569
909.327	37.09234
909.717	66.1679
910.106	3.00739
910.495	47.11929
910.885	43.11126
911.274	27.0688
911.663	5.01283
912.052	38.09455
912.441	10.02579
912.83	49.11596
913.219	32.08458
913.608	-7.01755
913.997	14.03616
914.385	25.06071
914.774	34.08435
915.162	81.1976
915.55	53.13002
915.939	32.08236
916.327	11.02768
916.715	26.06747
917.103	28.06974
917.491	57.14153
917.878	-9.02238
918.266	-18.04719
918.654	84.21814
919.041	3.00804
919.429	12.02925
919.816	42.10738
920.203	72.17783
920.591	23.0579
920.978	-19.04709
921.365	27.07202
921.752	42.10286
922.139	85.19013
922.525	78.19251
922.912	-5.01246
923.299	39.09913
923.685	41.10886
924.072	23.05361
924.458	33.08334
924.844	14.03562
925.231	45.10748
925.617	46.11954
926.003	39.10091
926.389	14.03614
926.774	23.05941
927.16	36.0911
927.546	59.15419
927.931	22.05605
928.317	63.14655
928.702	44.10519
929.088	32.07817
929.473	17.04399
929.858	26.06495
930.243	36.08869
930.628	66.16529
931.013	57.14396
931.398	59.13719
931.783	22.05835
932.167	58.14577
932.552	22.05561
932.937	49.123
933.321	27.0694
933.705	74.18939
934.09	28.07111
934.474	33.07978
934.858	34.08951
935.242	34.08125
935.626	57.14896
936.009	-21.05635
936.393	3.00778
936.777	66.17116
937.16	33.08659
937.544	21.05031
937.927	49.12727
938.311	54.13303
938.694	26.06925
939.077	16.03932
939.46	8.01956
939.843	128.27418
940.226	55.14295
940.609	96.2281
940.991	53.137
941.374	16.04017
941.757	49.1218
942.139	68.15889
942.522	54.12856
942.904	44.10792
943.286	33.08447
943.668	35.09225
944.05	17.04293
944.432	61.15455
944.814	31.07692
945.196	33.08331
945.578	68.1682
945.959	17.04104
946.341	16.03918
946.722	58.13818
947.104	61.1487
947.485	62.14715
947.866	86.22241
948.247	11.0281
948.628	22.05422
949.009	41.10733
949.39	37.09331
949.771	91.21485
950.152	60.15069
950.532	17.04339
950.913	42.10324
951.293	63.17226
951.674	105.26167
952.054	55.14034
952.434	-9.02285
952.814	61.14775
953.194	23.06064
953.574	40.09894
953.954	22.05364
954.334	60.1521
954.714	35.08767
955.093	59.14591
955.473	-3.00766
955.853	19.04981
956.232	-17.04696
956.611	24.05869
956.99	27.06977
957.37	51.13214
957.749	43.10529
958.128	69.17761
958.506	77.2041
958.885	60.15426
959.264	68.17226
959.643	7.01634
960.021	9.02299
960.4	20.04701
960.778	55.13722
961.156	42.10787
961.535	56.1326
961.913	18.04331
962.291	72.18992
962.669	-23.05947
963.047	29.07483
963.424	-11.02867
963.802	37.09331
964.18	46.11756
964.557	78.18262
964.935	53.12794
965.312	-9.02386
965.69	16.04049
966.067	61.15147
966.444	7.01751
966.821	34.08851
967.198	37.09103
967.575	11.02722
967.952	9.02171
968.329	24.05984
968.705	27.05925
969.082	31.0814
969.458	10.02504
969.835	21.05209
970.211	55.14423
970.587	15.03803
970.963	27.07008
971.339	38.10078
971.715	30.07613
972.091	42.1053
972.467	46.11657
972.843	10.02543
973.219	26.06282
973.594	74.19756
973.97	67.16088
974.345	46.11282
974.721	-1.00245
975.096	39.09613
975.471	72.17345
975.846	39.09521
976.221	43.11226
976.596	28.06918
976.971	64.1597
977.346	19.04502
977.72	41.10642
978.095	24.06329
978.469	67.16143
978.844	34.08591
979.218	-7.01724
979.593	0
979.967	10.02492
980.341	-14.03321
980.715	32.08238
981.089	-2.00507
981.463	64.15265
981.837	49.12265
982.21	51.12022
982.584	37.09144
982.957	16.04112
983.331	74.17786
983.704	-45.11231
984.078	12.03043
984.451	31.07745
984.824	37.09241
985.197	40.09858
985.57	27.06889
985.943	-8.02003
986.316	17.0425
986.688	13.03191
987.061	54.13023
987.434	39.10303
987.806	19.04723
988.179	72.17404
988.551	76.19512
988.923	36.09022
989.295	7.0175
989.667	28.06931
990.039	52.13177
990.411	25.05907
990.783	28.06589
991.155	57.14231
991.527	53.13079
991.898	56.14236
992.27	29.0729
992.641	57.1439
993.012	74.17644
993.384	46.11098
993.755	48.12499
994.126	31.07585
994.497	36.09048
994.868	51.12041
995.239	32.07869
995.61	29.0748
995.98	37.09268
996.351	33.08334
996.722	57.13718
997.092	22.05374
997.462	48.11581
997.833	-8.01942
998.203	56.13679
998.573	-4.01018
998.943	78.18712
999.313	39.0961
999.683	57.14107
1000.053	55.1299
1000.423	27.06638
1000.792	80.21032
1001.162	4.01003
1001.531	17.0429
1001.901	76.19403
1002.27	71.16189
1002.639	67.17396
1003.009	24.05803
1003.378	-5.01296
1003.747	41.09998
1004.116	35.08595
1004.485	29.07027
1004.853	55.14093
1005.222	8.02042
1005.591	23.05571
1005.959	70.1635
1006.328	54.12479
1006.696	66.16349
1007.064	28.07138
1007.433	19.04822
1007.801	41.10117
1008.169	1.00255
1008.537	94.21195
1008.905	3.00726
1009.273	25.06224
1009.64	49.12087
1010.008	55.13417
1010.375	-2.00483
1010.743	38.089
1011.11	50.1215
1011.478	19.04776
1011.845	44.10519
1012.212	34.0797
1012.579	-25.06273
1012.946	89.21322
1013.313	23.05548
1013.68	28.06435
1014.047	47.1153
1014.414	43.10443
1014.78	-3.00759
1015.147	14.03416
1015.513	28.06911
1015.88	13.03343
1016.246	0
1016.612	29.06717
1016.978	57.14174
1017.344	77.19363
1017.71	-28.06913
1018.076	33.07903
1018.442	13.0337
1018.808	69.17476
1019.174	11.02833
1019.539	46.10559
1019.905	62.14879
1020.27	34.0861
1020.636	20.04896
1021.001	36.08748
1021.366	39.09588
1021.731	-9.02334
1022.096	2.00518
1022.461	49.11806
1022.826	33.0799
1023.191	-13.0347
1023.556	55.13217
1023.92	42.104
1024.285	19.04735
1024.649	50.12467
1025.014	52.13079
1025.378	20.05138
1025.742	47.11904
1026.107	38.08743
1026.471	-9.02129
1026.835	47.11925
1027.199	76.18971
1027.562	27.06427
1027.926	57.14076
1028.29	69.17798
1028.654	36.08488
1029.017	21.05211
1029.381	3.00738
1029.744	0
1030.107	40.09603
1030.471	2.00486
1030.834	18.04185
1031.197	11.02673
1031.56	30.07197
1031.923	-1.00263
1032.286	32.07642
1032.648	66.16134
1033.011	14.03283
1033.374	13.03094
1033.736	-2.00538
1034.099	55.13717
1034.461	-19.04898
1034.823	-11.02799
1035.185	24.06147
1035.548	61.15152
1035.91	21.05148
1036.272	17.03929
1036.634	20.04933
1036.995	82.19694
1037.357	22.0548
1037.719	5.01229
1038.08	5.0121
1038.442	14.03393
1038.803	44.107
1039.165	56.14457
1039.526	34.08361
1039.887	53.12939
1040.248	-13.03286
1040.609	30.07437
1040.97	84.20846
1041.331	59.15086
1041.692	72.17443
1042.053	58.13505
1042.413	78.18426
1042.774	6.01487
1043.134	77.18595
1043.495	53.13385
1043.855	27.06672
1044.215	48.12155
1044.576	62.15297
1044.936	17.03992
1045.296	60.15118
1045.656	11.02734
1046.016	9.02204
1046.375	-2.00494
1046.735	32.07489
1047.095	32.07644
1047.454	63.13609
1047.814	40.09789
1048.173	-18.04305
1048.533	26.06092
1048.892	50.12368
1049.251	49.12463
1049.61	-28.07085
1049.969	53.1291
1050.328	16.03577
1050.687	14.03472
1051.046	-16.03958
1051.405	58.14745
1051.763	26.06164
1052.122	15.03821
1052.48	3.00742
1052.839	2.00484
1053.197	19.04607
1053.555	-16.03645
1053.914	-8.0198
1054.272	-11.02688
1054.63	7.01769
1054.988	77.18623
1055.345	39.08644
1055.703	22.05382
1056.061	28.07289
1056.419	37.09696
1056.776	19.04637
1057.134	57.13473
1057.491	25.06334
1057.848	-7.01763
1058.206	62.14845
1058.563	-17.03879
1058.92	2.00467
1059.277	42.10461
1059.634	39.09308
1059.991	83.20081
1060.348	31.07245
1060.704	13.03194
1061.061	17.04011
1061.418	-1.00247
1061.774	-20.05079
1062.131	24.06477
1062.487	-7.01689
1062.843	38.0954
1063.199	44.11186
1063.555	23.05521
1063.911	12.03053
1064.267	-11.02365
1064.623	24.05967
1064.979	60.14333
1065.335	35.08436
1065.691	35.08494
1066.046	-13.0288
1066.402	94.21922
1066.757	-12.03078
1067.112	18.04462
1067.468	75.18487
1067.823	68.16641
1068.178	-18.04436
1068.533	48.11834
1068.888	26.06299
1069.243	-4.01009
1069.598	1.00249
1069.952	66.15319
1070.307	31.07927
1070.662	17.04112
1071.016	32.07377
1071.371	27.06268
1071.725	27.06557
1072.079	8.01953
1072.434	39.09702
1072.788	-1.00246
1073.142	19.04783
1073.496	17.04119
1073.85	36.08425
1074.203	71.17707
1074.557	26.07015
1074.911	45.10764
1075.265	17.04042
1075.618	1.00247
1075.971	12.02917
1076.325	13.03375
1076.678	81.19057
1077.031	53.12333
1077.385	68.15421
1077.738	13.03036
1078.091	4.00946
1078.444	50.11812
1078.796	-4.00998
1079.149	22.05535
1079.502	44.10796
1079.855	45.10785
1080.207	38.09492
1080.56	-1.00263
1080.912	16.03946
1081.264	53.12958
1081.617	35.08798
1081.969	80.20553
1082.321	-12.02987
1082.673	25.05932
1083.025	42.10198
1083.377	-144.33145
1083.728	2.00475
1084.08	42.10598
1084.432	54.13274
1084.783	66.15604
1085.135	6.01538
1085.486	40.09523
1085.838	43.1079
1086.189	35.08589
1086.54	32.07747
1086.891	2.0052
1087.242	-53.13208
1087.593	51.12534
1087.944	-25.05802
1088.295	61.14089
1088.646	63.15586
1088.996	13.03197
1089.347	50.12445
1089.698	25.06076
1090.048	-25.06538
1090.398	-2.00472
1090.749	55.13382
1091.099	70.18172
1091.449	11.02791
1091.799	71.17982
1092.149	57.14426
1092.499	-30.0751
1092.849	31.08055
1093.199	2.00506
1093.548	5.0124
1093.898	5.01279
1094.248	61.15718
1094.597	38.10017
1094.947	28.07527
1095.296	32.07994
1095.645	51.13356
1095.994	20.04869
1096.343	22.05619
1096.692	89.24125
1097.041	-42.11541
1097.39	71.18174
1097.739	22.05794
1098.088	58.15643
1098.437	-18.04855
1098.785	-1.00271
1099.134	39.10397
1099.482	12.03344
1099.83	12.03171
1100.179	50.13335
1100.527	5.01342
1100.875	-5.01346
1101.223	22.05899
1101.571	32.08929
1101.919	35.09401
1102.267	13.03691
1102.615	0
1102.962	0
1103.31	2.00645
1103.658	16.05159
