Data from N2 R0 105C sample1_Subt2__6__11-48-51-169.txt Node

Date: Tue Aug 19 11:48:51 PDT 2025
User: uwsun
Spectrometer: HDX01956
Trigger mode: 0
Integration Time (sec): 5.000000E-1
Scans to average: 1
Nonlinearity correction enabled: true
Boxcar width: 0
Storing dark spectrum: false
XAxis mode: Wavelengths
Number of Pixels in Spectrum: 2068
>>>>>Begin Spectral Data<<<<<
194.03	516.3984
194.578	531.62029
195.127	531.59673
195.676	539.6256
196.225	544.38098
196.773	606.58597
197.321	901.25467
197.87	1207.65935
198.418	1186.58873
198.966	1238.74963
199.513	1160.46936
200.061	1195.59472
200.609	1179.65788
201.156	1130.09855
201.704	1196.58323
202.251	1247.81671
202.798	1192.64861
203.345	1262.60457
203.892	1180.5314
204.438	1261.50951
204.985	1232.48841
205.532	1228.7431
206.078	1236.55313
206.624	1297.65727
207.17	1311.49996
207.716	1259.5609
208.262	1196.94019
208.808	1280.6722
209.354	1264.58092
209.899	1263.63843
210.445	1316.73295
210.99	1297.61571
211.535	1286.51988
212.08	1289.50983
212.625	1288.6948
213.17	1296.72459
213.715	1251.38182
214.259	1301.49513
214.804	1271.58999
215.348	1261.37205
215.892	1266.51426
216.436	1251.40704
216.98	1286.35746
217.524	1192.37799
218.068	1301.75234
218.612	1245.62816
219.155	1173.33518
219.698	1158.34831
220.242	1175.48355
220.785	1092.18419
221.328	1043.25217
221.871	1075.33509
222.414	1102.35895
222.956	1107.32856
223.499	1079.08925
224.041	1132.24251
224.583	1106.99231
225.126	1089.04966
225.668	1071.24097
226.21	1127.4254
226.751	1067.02871
227.293	1101.17745
227.835	1133.38122
228.376	1143.2229
228.918	1119.42559
229.459	1103.3717
230	1106.24474
230.541	1154.29253
231.082	1047.16762
231.622	1146.22086
232.163	1114.31622
232.704	1099.32885
233.244	1072.29666
233.784	1100.30525
234.324	1126.14481
234.864	1109.14645
235.404	1148.30588
235.944	1067.17184
236.484	1114.34892
237.023	1131.294
237.563	1141.23262
238.102	1098.19117
238.641	1119.42866
239.18	1116.24868
239.719	1126.41345
240.258	1186.23439
240.797	1166.37632
241.335	1208.48085
241.874	1190.92609
242.412	1167.39924
242.95	1135.31984
243.488	1177.27405
244.026	1150.23285
244.564	1158.99626
245.102	1135.15939
245.64	1090.23425
246.177	1143.18094
246.715	1186.40082
247.252	1170.26318
247.789	1193.84738
248.326	1196.44412
248.863	1204.22648
249.4	1226.31669
249.936	1178.00499
250.473	1231.4057
251.009	1250.4011
251.546	1172.17035
252.082	1206.19929
252.618	1170.18057
253.154	1206.45684
253.69	1182.21383
254.226	1162.34151
254.761	1295.4196
255.297	1113.05719
255.832	1117.23992
256.367	1228.42628
256.903	1141.0882
257.438	1247.41761
257.972	1225.28507
258.507	1241.38775
259.042	1267.28256
259.576	1270.27813
260.111	1237.36757
260.645	1261.20382
261.179	1264.42806
261.713	1277.35666
262.247	1236.38434
262.781	1209.11585
263.315	1233.54185
263.849	1270.6548
264.382	1207.30227
264.915	1295.52865
265.449	1274.63752
265.982	1285.41732
266.515	1289.56768
267.048	1261.22912
267.58	1309.32747
268.113	1260.24746
268.646	1282.63062
269.178	1292.37086
269.71	1273.29109
270.243	1270.37449
270.775	1297.70712
271.307	1279.52781
271.838	1222.37856
272.37	1328.66676
272.902	1325.44191
273.433	1309.2869
273.965	1282.57544
274.496	1260.56466
275.027	1339.70786
275.558	1321.62185
276.089	1358.74571
276.62	1329.76664
277.15	1301.594
277.681	1365.3877
278.211	1279.51024
278.741	1316.36938
279.272	1319.44408
279.802	1311.66798
280.332	1389.62877
280.861	1375.67134
281.391	1312.41967
281.921	1380.67792
282.45	1341.73767
282.98	1385.93004
283.509	1381.46235
284.038	1364.5022
284.567	1306.45156
285.096	1420.75052
285.625	1426.58776
286.153	1372.56454
286.682	1445.60987
287.21	1405.71819
287.739	1383.64899
288.267	1414.73887
288.795	1379.88839
289.323	1487.76868
289.851	1531.80349
290.378	1425.53986
290.906	1389.72273
291.433	1464.86533
291.961	1478.61259
292.488	1434.82747
293.015	1504.79153
293.542	1472.97776
294.069	1464.82122
294.596	1525.9161
295.122	1567.87395
295.649	1469.50657
296.175	1603.00905
296.702	1539.87564
297.228	1504.83676
297.754	1620.79893
298.28	1553.71556
298.806	1622.95535
299.332	1605.70392
299.857	1584.71197
300.383	1620.11988
300.908	1554.92852
301.433	1570.90732
301.958	1588.75481
302.483	1637.1118
303.008	1637.0642
303.533	1553.11284
304.058	1596.86863
304.582	1653.94986
305.107	1641.30142
305.631	1685.80936
306.155	1608.85383
306.679	1672.88181
307.203	1684.91633
307.727	1651.9343
308.251	1692.12229
308.775	1706.02927
309.298	1829.21532
309.822	1759.28714
310.345	1822.14793
310.868	1789.09933
311.391	1755.16364
311.914	1824.33244
312.437	1841.98437
312.96	1840.0916
313.482	1833.10031
314.005	1881.39218
314.527	1939.64776
315.049	1849.32577
315.571	1986.06697
316.093	2024.46927
316.615	1959.31554
317.137	1997.92521
317.659	2027.40826
318.18	1987.25859
318.702	2036.16348
319.223	2104.85457
319.744	2079.10747
320.265	2107.4392
320.786	2188.60536
321.307	2168.58545
321.828	2152.2046
322.348	2177.38351
322.869	2268.48869
323.389	1975.75024
323.909	2207.23894
324.43	2311.466
324.95	2315.31053
325.47	2329.59367
325.989	2348.44588
326.509	2472.22617
327.029	2438.25512
327.548	2447.27493
328.067	2570.70103
328.587	2435.72034
329.106	2479.24096
329.625	2529.01063
330.144	2595.47647
330.662	2568.37206
331.181	2667.50448
331.7	2693.55392
332.218	2741.20211
332.736	2721.5373
333.255	2804.50107
333.773	2845.56595
334.291	2901.8301
334.808	2893.36816
335.326	2939.38944
335.844	2954.55768
336.361	3045.01289
336.879	3106.62441
337.396	3123.69568
337.913	3210.42465
338.43	3212.33231
338.947	3194.57005
339.464	3293.07659
339.981	3259.60392
340.497	3322.74619
341.014	3327.7698
341.53	3307.22524
342.046	3336.72874
342.562	3425.87315
343.078	3530.5034
343.594	3519.55521
344.11	3572.47402
344.626	3561.8943
345.141	3710.1845
345.657	3653.14323
346.172	3739.54511
346.687	3699.31847
347.202	3864.08832
347.717	3880.45232
348.232	3913.70619
348.747	3881.23135
349.261	3972.93559
349.776	4007.28416
350.29	4134.60741
350.805	4190.62013
351.319	4158.20342
351.833	4106.95689
352.347	4139.17689
352.861	4248.0578
353.374	4204.95902
353.888	4197.33973
354.401	4307.97803
354.915	4430.79087
355.428	4363.41594
355.941	4502.98388
356.454	4513.67
356.967	4479.97511
357.48	4562.76078
357.993	4590.22368
358.505	4655.10873
359.018	4683.11504
359.53	4727.06318
360.042	4810.42197
360.554	4700.99468
361.066	4829.04052
361.578	4797.28754
362.09	4872.76446
362.602	4863.34532
363.113	5051.61146
363.625	5005.39918
364.136	5073.20059
364.647	5285.55237
365.158	5231.39945
365.669	5307.54622
366.18	5369.40102
366.691	5356.05183
367.201	5247.60997
367.712	5410.23424
368.222	5494.18437
368.733	5581.96519
369.243	5758.89371
369.753	5800.17643
370.263	5786.33248
370.773	5740.4024
371.282	5920.15446
371.792	6107.0562
372.301	6223.16402
372.811	6370.5069
373.32	6405.41526
373.829	6681.89211
374.338	6922.52709
374.847	7057.74681
375.356	7203.87018
375.865	7611.5766
376.373	7888.98554
376.882	7990.41175
377.39	8070.29932
377.898	8334.62189
378.407	8866.14959
378.915	9139.66463
379.423	9543.58557
379.93	9917.64896
380.438	10203.39844
380.946	10842.80349
381.453	11326.89055
381.96	11795.35926
382.468	12646.46579
382.975	13382.66756
383.482	13731.54302
383.989	13718.75996
384.495	14214.37592
385.002	15204.24449
385.509	16023.07436
386.015	17008.40222
386.521	17877.80783
387.028	18599.0194
387.534	19092.74454
388.04	19752.32846
388.546	20246.78465
389.051	21228.00342
389.557	23144.03528
390.063	24765.22867
390.568	25393.2807
391.073	26137.76052
391.578	27274.82176
392.084	27830.01494
392.589	28755.0664
393.093	31298.83415
393.598	34186.94175
394.103	37056.91531
394.607	40861.80301
395.112	43605.43323
395.616	45558.76308
396.12	49544.84917
396.624	54540.29503
397.128	59035.11581
397.632	61256.0056
398.136	61720.94214
398.639	61850.40973
399.143	61679.31033
399.646	61269.15804
400.15	60904.11498
400.653	60560.14334
401.156	60136.25446
401.659	59550.50961
402.162	58431.12733
402.664	54480.21957
403.167	49329.08451
403.67	22278.45323
404.172	2696.20453
404.674	0
405.176	0
405.678	0
406.18	0
406.682	0
407.184	0
407.686	25783.58453
408.187	43316.52985
408.688	51225.60928
409.19	54389.01922
409.691	56215.4214
410.192	57270.57019
410.693	57845.40442
411.194	58219.2365
411.694	58633.01717
412.195	59215.68848
412.696	59364.60701
413.196	59341.61941
413.696	59632.46864
414.196	59367.6054
414.696	59763.40624
415.196	59913.34014
415.696	60584.13941
416.196	61381.18813
416.695	61808.38326
417.195	62018.52935
417.694	61837.40139
418.194	62001.51623
418.693	62262.74355
419.192	62296.58864
419.691	62124.90497
420.19	61428.26767
420.688	60435.2864
421.187	57247.56938
421.685	53997.70969
422.184	48050.34756
422.682	41217.05886
423.18	35035.58779
423.678	31553.2326
424.176	29434.54717
424.674	27558.66772
425.172	26359.62122
425.669	24568.869
426.167	23021.72157
426.664	20993.10061
427.161	19375.99478
427.659	17849.29877
428.156	16857.78802
428.652	15791.52972
429.149	15250.6648
429.646	14566.36342
430.143	13817.51405
430.639	12985.11157
431.135	12066.60333
431.632	11585.56103
432.128	10823.73306
432.624	10371.87766
433.12	10102.25288
433.616	9695.06631
434.111	9406.26209
434.607	9170.76399
435.103	8858.0772
435.598	8627.65583
436.093	8175.2595
436.588	7681.65335
437.083	7397.56024
437.578	7207.64491
438.073	6738.10089
438.568	6539.93871
439.062	6455.31387
439.557	6121.8763
440.051	6022.66871
440.546	5835.81343
441.04	5803.21283
441.534	5561.7295
442.028	5562.24877
442.522	5404.38209
443.015	5326.86964
443.509	5284.60452
444.002	5196.66909
444.496	4974.14143
444.989	4929.74125
445.482	5009.87956
445.975	4992.41243
446.468	4822.08864
446.961	4860.13482
447.454	4754.37823
447.947	4562.9007
448.439	4532.86615
448.931	4496.6414
449.424	4467.22352
449.916	4463.08614
450.408	4360.67121
450.9	4259.21828
451.392	4246.41037
451.884	4161.8446
452.375	4039.52941
452.867	4051.79819
453.358	3924.96491
453.849	3860.59457
454.341	3797.95618
454.832	3812.70734
455.323	3770.44159
455.814	3777.09685
456.304	3695.10166
456.795	3649.12002
457.285	3664.85529
457.776	3577.03549
458.266	3561.34536
458.756	3493.35451
459.247	3428.43067
459.737	3361.48549
460.226	3334.13984
460.716	3175.52245
461.206	3173.51235
461.695	3130.66496
462.185	3080.32906
462.674	3160.33545
463.163	3004.02733
463.653	3088.89715
464.142	2959.54822
464.63	2954.64091
465.119	2891.29202
465.608	2835.3498
466.096	2845.02228
466.585	2755.28582
467.073	2648.40994
467.561	2700.45736
468.05	2737.32233
468.538	2603.55658
469.026	2559.43287
469.513	2518.22658
470.001	2451.13607
470.489	2534.42296
470.976	2433.25133
471.463	2336.51765
471.951	2332.51557
472.438	2255.22837
472.925	2187.17064
473.412	2149.31835
473.899	2210.07673
474.385	2083.29585
474.872	2128.2187
475.359	2035.30383
475.845	2049.69547
476.331	2002.70406
476.817	1897.13138
477.303	1937.00648
477.789	1918.13126
478.275	1769.10272
478.761	1820.07731
479.247	1804.83261
479.732	1757.14662
480.218	1725.25775
480.703	1670.03607
481.188	1682.55331
481.673	1635.72828
482.158	1584.51347
482.643	1545.92207
483.128	1585.67714
483.612	1499.64104
484.097	1479.71869
484.581	1529.63453
485.066	1452.73443
485.55	1380.36952
486.034	1392.28677
486.518	1423.61668
487.002	1358.67614
487.486	1385.65029
487.969	1326.60569
488.453	1259.53667
488.936	1276.3309
489.42	1232.17483
489.903	1229.49868
490.386	1234.5816
490.869	1207.11784
491.352	1208.39889
491.835	1140.94016
492.318	1259.35675
492.8	1203.03953
493.283	1192.52987
493.765	1135.34171
494.247	1082.11544
494.73	1082.01212
495.212	1075.18321
495.694	1101.16025
496.175	1043.13921
496.657	1019.05994
497.139	1025.51851
497.62	1037.11354
498.102	994.12941
498.583	949.05772
499.064	947.87995
499.545	991.9601
500.026	967.89298
500.507	1000.00629
500.988	972.10987
501.469	952.09783
501.949	939.03602
502.43	914.93097
502.91	946.73385
503.39	845.86632
503.87	957.9906
504.35	919.88866
504.83	926.79769
505.31	869.86185
505.79	864.86345
506.269	929.92206
506.749	901.82175
507.228	873.8423
507.707	888.74837
508.187	852.78972
508.666	900.97253
509.145	858.81577
509.623	825.72955
510.102	851.84831
510.581	866.83669
511.059	852.91811
511.538	873.99613
512.016	963.03773
512.494	926.98529
512.972	875.85136
513.45	860.80812
513.928	922.00461
514.406	903.96709
514.884	938.13042
515.361	907.94079
515.839	937.89547
516.316	934.993
516.793	948.10289
517.27	865.84691
517.747	949.14546
518.224	920.90046
518.701	973.93162
519.178	936.02907
519.654	920.92418
520.131	883.93568
520.607	922.0063
521.083	903.83828
521.56	947.99506
522.036	882.73817
522.512	845.83761
522.987	930.96565
523.463	884.89522
523.939	858.88283
524.414	814.69709
524.89	843.79914
525.365	858.76201
525.84	866.8813
526.315	857.86844
526.79	836.70831
527.265	846.76932
527.74	805.77648
528.215	833.79005
528.689	777.58656
529.164	723.4488
529.638	818.91109
530.112	805.74392
530.587	809.58704
531.061	783.73222
531.534	692.53938
532.008	731.63257
532.482	729.51871
532.956	721.69202
533.429	738.64381
533.903	697.42559
534.376	714.46074
534.849	743.59311
535.322	763.65358
535.795	727.63564
536.268	719.58462
536.741	715.58171
537.213	757.60502
537.686	740.67202
538.158	729.50795
538.631	715.59025
539.103	752.57188
539.575	741.40969
540.047	727.47629
540.519	793.7325
540.991	777.72679
541.463	792.74814
541.934	765.61212
542.406	801.74777
542.877	858.76755
543.348	820.79566
543.82	787.73891
544.291	793.67556
544.762	805.72911
545.233	844.90938
545.703	862.72255
546.174	937.92999
546.645	900.93698
547.115	1051.2068
547.585	1007.00786
548.056	991.12889
548.526	1133.2939
548.996	1116.26405
549.466	1180.39082
549.935	1187.3631
550.405	1231.22647
550.875	1238.41771
551.344	1287.54247
551.814	1359.52465
552.283	1326.2715
552.752	1419.63648
553.221	1518.60927
553.69	1506.55032
554.159	1566.99684
554.628	1629.74612
555.096	1660.2258
555.565	1693.80604
556.033	1663.90756
556.502	1593.94211
556.97	1619.6824
557.438	1656.92448
557.906	1689.96094
558.374	1651.82822
558.842	1658.94756
559.31	1809.88985
559.777	1761.10131
560.245	1898.14579
560.712	1960.15869
561.18	1940.02241
561.647	2040.05618
562.114	2169.21807
562.581	2181.52493
563.048	2349.34621
563.514	2427.67601
563.981	2421.31586
564.448	2561.31349
564.914	2655.51055
565.381	2816.40181
565.847	2806.58372
566.313	2928.57033
566.779	3043.29392
567.245	3114.60655
567.711	3287.75451
568.176	3277.37769
568.642	3377.02315
569.108	3518.88484
569.573	3710.62468
570.038	3747.95919
570.504	3756.17672
570.969	3938.97177
571.434	4042.13604
571.899	4134.52014
572.363	4215.14733
572.828	4332.07831
573.293	4412.10647
573.757	4412.04355
574.222	4568.95753
574.686	4501.05717
575.15	4585.26648
575.614	4639.98247
576.078	4729.15794
576.542	4606.952
577.006	4642.872
577.469	4712.4306
577.933	4688.9434
578.396	4638.14561
578.86	4681.1439
579.323	4673.32865
579.786	4574.64817
580.249	4440.17357
580.712	4354.54003
581.175	4386.60538
581.637	4238.09209
582.1	4249.94559
582.563	4179.76723
583.025	4081.63502
583.487	4048.59627
583.95	3938.05512
584.412	3934.84054
584.874	3775.65725
585.336	3772.56347
585.797	3596.08848
586.259	3523.5983
586.721	3532.56883
587.182	3443.49215
587.643	3364.40556
588.105	3352.69211
588.566	3292.95982
589.027	3203.81913
589.488	3162.46969
589.949	3120.79046
590.41	2966.7389
590.87	2876.37898
591.331	2971.11793
591.791	2992.60913
592.252	2827.52554
592.712	2720.65471
593.172	2745.43598
593.632	2779.29086
594.092	2709.34531
594.552	2614.16592
595.011	2577.44918
595.471	2611.25311
595.931	2603.28216
596.39	2595.7035
596.849	2509.49675
597.308	2450.14621
597.768	2444.94558
598.227	2376.50461
598.685	2415.28865
599.144	2387.44127
599.603	2545.60786
600.062	2476.08439
600.52	2526.30602
600.978	2391.47422
601.437	2435.30636
601.895	2471.02674
602.353	2513.2167
602.811	2603.35703
603.269	2552.66106
603.727	2559.68579
604.184	2622.4327
604.642	2650.79953
605.099	2656.48599
605.557	2687.77484
606.014	2779.27242
606.471	2802.98236
606.928	2905.29965
607.385	3058.96851
607.842	3139.42307
608.299	3195.63199
608.755	3142.80371
609.212	3129.3056
609.668	3195.38016
610.125	3211.7849
610.581	3255.62523
611.037	3280.42923
611.493	3200.62395
611.949	3257.9608
612.405	3203.80524
612.861	3233.59831
613.316	3223.73994
613.772	3301.53639
614.227	3269.71087
614.683	3262.09291
615.138	3323.59967
615.593	3321.56814
616.048	3246.41287
616.503	3245.8443
616.958	3280.06497
617.412	3165.65393
617.867	3287.29074
618.321	3245.95495
618.776	3219.31357
619.23	3146.59045
619.684	3177.39467
620.138	3093.51091
620.592	3057.83354
621.046	3089.56133
621.5	3109.88774
621.954	2963.3804
622.407	2959.31989
622.861	2853.77552
623.314	2873.40726
623.768	2861.57045
624.221	2812.80865
624.674	2719.46343
625.127	2654.50804
625.58	2627.36717
626.033	2598.16947
626.485	2482.60055
626.938	2561.57177
627.39	2490.47689
627.843	2456.41303
628.295	2382.32958
628.747	2373.4949
629.199	2285.25455
629.651	2264.26428
630.103	2201.27817
630.555	2169.88609
631.006	2153.29804
631.458	2096.31767
631.909	2080.11174
632.361	2031.20333
632.812	1989.16442
633.263	1999.85266
633.714	1895.74643
634.165	1888.28669
634.616	1846.15486
635.067	1798.77978
635.518	1840.11309
635.968	1786.45936
636.419	1690.66522
636.869	1691.94459
637.319	1654.83414
637.769	1634.73913
638.219	1574.78889
638.669	1580.86414
639.119	1640.02888
639.569	1475.76105
640.019	1570.7177
640.468	1511.565
640.918	1463.71317
641.367	1419.48521
641.816	1482.57258
642.265	1404.5464
642.714	1478.62737
643.163	1481.67517
643.612	1478.84961
644.061	1467.45265
644.51	1452.65101
644.958	1424.4455
645.406	1442.72212
645.855	1371.70243
646.303	1490.67726
646.751	1396.55093
647.199	1364.46237
647.647	1418.56672
648.095	1419.60282
648.543	1457.28861
648.99	1366.57951
649.438	1411.61771
649.885	1408.77741
650.333	1422.13816
650.78	1379.70561
651.227	1422.79468
651.674	1384.48222
652.121	1371.65729
652.568	1385.70854
653.015	1392.78398
653.461	1370.60587
653.908	1443.64175
654.354	1395.61595
654.801	1354.55555
655.247	1356.37744
655.693	1349.8736
656.139	1323.57859
656.585	1280.48583
657.031	1319.51404
657.477	1322.30912
657.922	1303.44889
658.368	1287.59198
658.813	1276.37524
659.259	1297.5492
659.704	1272.40269
660.149	1295.4836
660.594	1279.49032
661.039	1208.27706
661.484	1217.37829
661.929	1246.38541
662.373	1195.56631
662.818	1237.5671
663.262	1207.41959
663.707	1155.46665
664.151	1216.4672
664.595	1095.23194
665.039	1166.44155
665.483	1163.5029
665.927	1214.34959
666.371	1207.33436
666.814	1099.22396
667.258	1153.35033
667.701	1184.093
668.145	1180.45358
668.588	1087.26152
669.031	1119.2686
669.474	1096.24555
669.917	1156.11627
670.36	1201.50444
670.803	1119.25113
671.245	1135.00552
671.688	1161.34641
672.13	1102.10707
672.573	1073.29438
673.015	1111.27684
673.457	1126.06117
673.899	1114.25691
674.341	1169.36153
674.783	1080.2038
675.225	1097.27329
675.666	1097.28839
676.108	1089.99007
676.549	1129.23604
676.991	1181.1941
677.432	1160.97116
677.873	1099.13412
678.314	1120.26497
678.755	1107.28591
679.196	1130.18045
679.637	1147.32861
680.078	1090.13713
680.518	1126.18822
680.959	1150.33629
681.399	1119.36511
681.839	1121.2953
682.28	1108.32203
682.72	1115.16628
683.16	1165.39833
683.6	1079.05852
684.039	1081.88926
684.479	1091.28687
684.919	1134.23711
685.358	1107.37423
685.798	1120.48867
686.237	1103.25435
686.676	1134.16321
687.115	1071.12489
687.554	1128.2325
687.993	1085.00926
688.432	1144.18338
688.871	1089.11265
689.309	1086.18813
689.748	1060.83064
690.186	1121.21914
690.625	1101.1552
691.063	1106.24576
691.501	1124.303
691.939	1100.30323
692.377	1131.30023
692.815	1127.26622
693.253	1153.30588
693.69	1131.08124
694.128	1163.36647
694.565	1179.31037
695.003	1178.48288
695.44	1154.26075
695.877	1170.29646
696.314	1127.98331
696.751	1116.09294
697.188	1167.21829
697.625	1157.17059
698.061	1130.28004
698.498	1130.26137
698.934	1222.42225
699.371	1088.17917
699.807	1178.29057
700.243	1176.35681
700.679	1201.22807
701.115	1169.24462
701.551	1183.28892
701.987	1159.16372
702.422	1196.35966
702.858	1159.26791
703.294	1189.19049
703.729	1185.40042
704.164	1155.31731
704.599	1257.25414
705.035	1139.15866
705.47	1198.4548
705.904	1232.38112
706.339	1182.18892
706.774	1165.25616
707.209	1137.19242
707.643	1228.41953
708.078	1240.51255
708.512	1168.45965
708.946	1172.28103
709.38	1129.21738
709.814	1157.16528
710.248	1138.28681
710.682	1187.33588
711.116	1134.29749
711.549	1156.46508
711.983	1090.1201
712.416	1122.20721
712.85	1171.43109
713.283	1083.17461
713.716	1099.29962
714.149	1095.16053
714.582	1155.16576
715.015	1104.28021
715.448	1080.29005
715.881	1050.90274
716.313	1115.18778
716.746	1056.12564
717.178	1057.14952
717.61	979.11117
718.043	1028.16836
718.475	1029.10289
718.907	1086.30079
719.339	1028.00397
719.77	1031.09656
720.202	970.11175
720.634	1045.19898
721.065	1030.08742
721.497	997.09786
721.928	963.06249
722.359	942.01875
722.79	1036.15957
723.221	933.02556
723.652	899.99879
724.083	927.85131
724.514	969.92546
724.945	921.89956
725.375	953.9656
725.806	880.90768
726.236	903.01001
726.666	953.9542
727.096	910.96269
727.526	870.95704
727.956	880.75856
728.386	853.84952
728.816	859.92167
729.246	893.93628
729.675	807.79349
730.105	783.69768
730.534	850.75889
730.964	820.82276
731.393	834.80409
731.822	820.86334
732.251	773.75121
732.68	819.69205
733.109	811.77109
733.537	783.702
733.966	839.87308
734.395	830.69834
734.823	763.52343
735.251	800.74007
735.68	822.8257
736.108	759.71671
736.536	780.63693
736.964	735.55223
737.392	802.78936
737.82	770.66062
738.247	736.58385
738.675	756.61369
739.102	769.73933
739.53	685.60064
739.957	751.74943
740.384	751.64138
740.811	722.6439
741.238	734.62276
741.665	752.56286
742.092	757.62454
742.519	718.61571
742.945	746.61912
743.372	702.59127
743.798	728.69617
744.225	660.44204
744.651	704.60419
745.077	699.58606
745.503	687.52351
745.929	676.48138
746.355	713.59823
746.781	701.57904
747.207	694.51831
747.632	748.67639
748.058	679.54936
748.483	702.47632
748.908	657.49311
749.334	730.63
749.759	624.34606
750.184	663.46232
750.609	689.55072
751.033	737.56326
751.458	667.366
751.883	603.38078
752.307	677.4708
752.732	640.49689
753.156	676.54468
753.58	664.45262
754.005	629.45707
754.429	693.49538
754.853	593.36438
755.277	597.29847
755.7	655.49576
756.124	610.40604
756.548	634.40209
756.971	576.29062
757.394	636.51534
757.818	636.50029
758.241	595.40214
758.664	630.47751
759.087	581.22719
759.51	563.30043
759.933	570.29286
760.356	589.39336
760.778	570.3273
761.201	591.33594
761.623	555.24479
762.046	596.31028
762.468	526.16442
762.89	590.34044
763.312	599.37161
763.734	550.23987
764.156	564.30094
764.578	567.23052
765	501.16071
765.421	546.3057
765.843	524.28203
766.264	470.07695
766.686	493.15567
767.107	465.06824
767.528	478.15375
767.949	497.19448
768.37	426.98899
768.791	564.27509
769.212	433.04791
769.632	446.00303
770.053	445.1168
770.473	476.09813
770.894	407.96967
771.314	397.90072
771.734	427.96326
772.154	385.94252
772.575	403.89576
772.994	383.84778
773.414	434.99362
773.834	390.94358
774.254	403.96345
774.673	391.91511
775.093	372.89293
775.512	352.84012
775.931	366.89718
776.351	352.84911
776.77	325.78
777.189	345.79926
777.607	343.85124
778.026	368.89406
778.445	306.75681
778.864	342.84922
779.282	372.87083
779.701	291.7151
780.119	360.90301
780.537	341.83329
780.955	301.73939
781.373	287.69588
781.791	281.62696
782.209	269.60912
782.627	348.89918
783.045	258.59572
783.462	245.62179
783.88	254.64862
784.297	301.74403
784.715	279.70806
785.132	277.66785
785.549	242.60359
785.966	258.63999
786.383	251.61181
786.8	258.59548
787.217	237.5606
787.633	245.60808
788.05	241.56057
788.466	177.40879
788.883	192.48738
789.299	181.43675
789.715	251.60769
790.131	254.62938
790.547	163.40413
790.963	241.59575
791.379	184.46542
791.795	223.50517
792.21	170.39754
792.626	170.40268
793.041	172.42902
793.457	201.49798
793.872	162.38254
794.287	133.3236
794.702	136.33578
795.117	146.36773
795.532	167.4225
795.947	194.46431
796.362	224.5316
796.776	108.25236
797.191	160.39532
797.605	170.41106
798.02	121.2977
798.434	137.30505
798.848	173.43049
799.262	177.4446
799.676	155.37614
800.09	191.47683
800.504	137.33271
800.918	166.39138
801.331	80.20925
801.745	130.30281
802.158	138.34746
802.572	128.30974
802.985	122.29622
803.398	109.26352
803.811	113.28742
804.224	97.24138
804.637	116.2824
805.05	75.17618
805.462	110.27239
805.875	111.29117
806.288	125.30811
806.7	122.3097
807.112	96.22379
807.525	99.24663
807.937	120.29899
808.349	86.21816
808.761	85.21244
809.173	102.24998
809.584	122.30155
809.996	82.20528
810.408	123.32111
810.819	163.389
811.231	261.67736
811.642	258.62593
812.053	399.93931
812.464	331.77654
812.875	263.66035
813.286	147.38022
813.697	163.38139
814.108	107.26365
814.519	82.18565
814.929	102.2615
815.34	161.39757
815.75	96.24792
816.16	76.19156
816.571	83.21573
816.981	97.23105
817.391	116.28514
817.801	126.32008
818.211	78.1864
818.62	80.19846
819.03	96.23728
819.44	81.21226
819.849	79.20001
820.259	65.16667
820.668	119.29753
821.077	78.19892
821.486	79.1925
821.895	82.20305
822.304	82.21928
822.713	122.29344
823.122	67.17018
823.531	107.25946
823.939	83.20654
824.348	77.19154
824.756	78.19906
825.164	78.19731
825.573	101.26061
825.981	85.21283
826.389	126.31952
826.797	8.02034
827.205	76.18003
827.612	109.27292
828.02	51.12358
828.428	98.25309
828.835	82.21834
829.243	131.3179
829.65	79.19966
830.057	106.26162
830.464	44.10951
830.871	83.20149
831.278	82.2003
831.685	102.23262
832.092	116.2885
832.499	44.09909
832.905	78.19941
833.312	66.15458
833.718	74.18732
834.124	50.11661
834.531	106.26804
834.937	-2.00518
835.343	77.18952
835.749	62.14539
836.155	55.14559
836.561	55.13885
836.966	101.24969
837.372	81.20864
837.777	56.14322
838.183	73.1645
838.588	25.06278
838.993	76.18723
839.399	25.06271
839.804	32.07997
840.209	100.25986
840.613	52.11926
841.018	63.16075
841.423	81.20944
841.828	100.257
842.232	104.25809
842.637	61.14781
843.041	51.13401
843.445	53.13543
843.849	47.11819
844.253	108.25997
844.657	48.12396
845.061	63.14724
845.465	79.19437
845.869	115.27151
846.272	43.10774
846.676	52.12702
847.079	75.1954
847.483	59.14815
847.886	43.10474
848.289	27.07345
848.692	85.2175
849.095	79.19401
849.498	73.18456
849.901	30.07035
850.304	87.21216
850.707	14.03622
851.109	57.14457
851.512	37.09378
851.914	99.25669
852.316	18.04597
852.718	57.15028
853.121	63.15735
853.523	106.25457
853.925	57.152
854.326	36.09136
854.728	62.16266
855.13	67.17688
855.531	73.18014
855.933	29.07024
856.334	34.08692
856.736	60.13888
857.137	49.11641
857.538	48.12409
857.939	71.18027
858.34	65.16069
858.741	68.17931
859.142	56.13755
859.542	67.17961
859.943	59.14874
860.343	47.11891
860.744	72.17757
861.144	-8.01985
861.544	65.16128
861.945	76.19818
862.345	68.1682
862.745	96.24405
863.145	80.19272
863.544	59.15102
863.944	64.15254
864.344	71.17822
864.743	38.0952
865.143	83.2155
865.542	45.10744
865.941	93.23462
866.34	66.16026
866.74	43.1163
867.139	89.21873
867.537	52.13401
867.936	71.17456
868.335	83.21372
868.734	115.29941
869.132	106.25167
869.531	40.09734
869.929	86.20253
870.327	61.15008
870.726	68.16962
871.124	100.23815
871.522	59.15272
871.92	98.24516
872.318	70.17353
872.715	48.11917
873.113	72.17959
873.511	105.26716
873.908	103.26623
874.306	75.19117
874.703	70.17657
875.1	75.19312
875.497	97.23804
875.894	93.23361
876.291	48.11956
876.688	88.23197
877.085	45.10933
877.482	41.10421
877.878	111.27088
878.275	67.17354
878.671	85.19272
879.068	44.10828
879.464	73.17888
879.86	49.1182
880.256	51.1277
880.652	45.11656
881.048	-5.01264
881.444	27.06498
881.84	3.00779
882.236	35.08931
882.631	112.28008
883.027	18.04423
883.422	7.01826
883.817	56.14588
884.213	76.19818
884.608	74.18579
885.003	73.18054
885.398	54.13931
885.793	67.17
886.188	80.20431
886.582	19.04896
886.977	67.16204
887.371	17.04329
887.766	26.06659
888.16	46.11653
888.554	42.10457
888.949	73.18423
889.343	42.10377
889.737	94.25542
890.131	15.03814
890.525	39.10123
890.918	15.03823
891.312	29.06987
891.706	9.02367
892.099	37.09454
892.492	84.18607
892.886	49.1214
893.279	37.09646
893.672	30.07651
894.065	33.08385
894.458	112.28583
894.851	60.14885
895.244	21.05454
895.637	43.10627
896.029	19.04744
896.422	42.10416
896.814	48.12099
897.206	75.1816
897.599	52.12924
897.991	24.05906
898.383	65.15857
898.775	66.15192
899.167	39.09422
899.559	42.10756
899.951	57.13661
900.342	39.09976
900.734	48.12328
901.125	38.10101
901.517	83.20752
901.908	29.07064
902.299	96.24137
902.69	63.15231
903.082	73.17894
903.473	84.20625
903.863	77.19841
904.254	81.19331
904.645	95.23804
905.036	9.02254
905.426	15.03504
905.817	63.1578
906.207	35.08624
906.597	12.02863
906.987	54.14177
907.378	22.05626
907.768	56.1499
908.158	63.15598
908.547	48.12645
908.937	43.1108
909.327	76.18833
909.717	54.13767
910.106	38.09303
910.495	79.19937
910.885	58.14969
911.274	46.11682
911.663	56.14236
912.052	39.09702
912.441	-8.0207
912.83	40.09482
913.219	74.19421
913.608	25.0623
913.997	51.13087
914.385	64.15429
914.774	72.17738
915.162	85.2072
915.55	55.13487
915.939	30.07724
916.327	25.06276
916.715	42.10869
917.103	73.18034
917.491	43.10704
917.878	39.09613
918.266	-7.01832
918.654	64.16677
919.041	65.17247
919.429	72.17351
919.816	9.02314
920.203	75.18514
920.591	55.13766
920.978	-18.04461
921.365	29.07733
921.752	43.10529
922.139	112.24913
922.525	33.08212
922.912	37.0915
923.299	58.14693
923.685	43.11413
924.072	35.08138
924.458	67.16818
924.844	62.15639
925.231	38.09088
925.617	15.03919
926.003	43.11119
926.389	83.21171
926.774	56.14382
927.16	59.14869
927.546	80.20832
927.931	78.19674
928.317	19.04458
928.702	9.02166
929.088	51.12414
929.473	49.12609
929.858	3.00753
930.243	31.07644
930.628	64.16033
931.013	38.0963
931.398	23.05386
931.783	60.15811
932.167	55.13831
932.552	21.05309
932.937	48.12051
933.321	10.02578
933.705	37.09531
934.09	51.12899
934.474	77.18461
934.858	31.08165
935.242	11.0264
935.626	44.11524
936.009	-30.08062
936.393	38.09793
936.777	58.15062
937.16	27.07092
937.544	23.05508
937.927	71.18371
938.311	26.06438
938.694	49.13002
939.077	54.13176
939.46	-1.00245
939.843	59.12827
940.226	16.04186
940.609	76.18128
940.991	24.06235
941.374	15.03767
941.757	55.13657
942.139	93.21624
942.522	41.09785
942.904	35.08599
943.286	19.04875
943.668	86.22471
944.05	48.12055
944.432	87.21941
944.814	-5.01249
945.196	56.1408
945.578	105.25796
945.959	76.18142
946.341	3.00736
946.722	64.1523
947.104	75.18235
947.485	64.15183
947.866	98.25291
948.247	12.03065
948.628	33.08116
949.009	24.06301
949.39	24.06067
949.771	43.10247
950.152	71.17797
950.532	28.07133
950.913	32.07881
951.293	23.06329
951.674	121.30066
952.054	67.1706
952.434	21.05304
952.814	86.20733
953.194	48.12602
953.574	14.03479
953.954	35.08513
954.334	58.14708
954.714	36.09016
955.093	34.08447
955.473	-7.01788
955.853	79.20498
956.232	22.0604
956.611	81.19598
956.99	44.11336
957.37	83.21387
957.749	62.15128
958.128	62.15979
958.506	90.23804
958.885	44.11344
959.264	99.2494
959.643	24.05584
960.021	77.19433
960.4	58.13531
960.778	80.19868
961.156	40.10277
961.535	71.16763
961.913	73.17382
962.291	94.24704
962.669	24.06155
963.047	33.08509
963.424	28.07249
963.802	53.13328
964.18	79.20073
964.557	50.11771
964.935	65.15655
965.312	11.02906
965.69	46.11578
966.067	37.09228
966.444	6.01501
966.821	33.08592
967.198	56.1373
967.575	-7.01738
967.952	66.15749
968.329	32.07968
968.705	9.01982
969.082	58.1516
969.458	23.05746
969.835	72.17692
970.211	33.08686
970.587	42.10598
970.963	35.09072
971.339	12.03196
971.715	36.09126
972.091	40.10032
972.467	76.19156
972.843	33.08358
973.219	25.06042
973.594	57.1526
973.97	77.18454
974.345	56.1371
974.721	28.06817
975.096	18.04454
975.471	45.10896
975.846	61.14831
976.221	60.15619
976.596	30.0741
976.971	5.01261
977.346	71.16652
977.72	60.15522
978.095	50.13127
978.469	45.10888
978.844	63.15837
979.218	-12.02958
979.593	64.15499
979.967	31.07695
980.341	22.05183
980.715	62.15879
981.089	2.00506
981.463	46.1101
981.837	78.19421
982.21	41.09684
982.584	7.01739
982.957	49.12521
983.331	80.19206
983.704	-22.05468
984.078	70.17568
984.451	4.01004
984.824	-7.01762
985.197	32.07898
985.57	54.13713
985.943	50.12386
986.316	88.21719
986.688	17.0417
987.061	97.23203
987.434	26.06884
987.806	41.10151
988.179	36.08761
988.551	38.09821
988.923	20.05027
989.295	-3.00751
989.667	33.08161
990.039	68.17183
990.411	30.07082
990.783	37.08692
991.155	62.15465
991.527	18.0447
991.898	35.08931
992.27	40.10035
992.641	6.01529
993.012	32.07691
993.384	35.08462
993.755	51.13274
994.126	33.08071
994.497	35.08798
994.868	92.21548
995.239	47.11525
995.61	45.11575
995.98	43.10759
996.351	27.06826
996.722	75.17988
997.092	32.07802
997.462	36.08705
997.833	47.11294
998.203	53.12953
998.573	-2.00509
998.943	61.14681
999.313	54.13269
999.683	90.22139
1000.053	30.0712
1000.423	45.11027
1000.792	44.11638
1001.162	34.08481
1001.531	33.08305
1001.901	86.21917
1002.27	53.12129
1002.639	4.0105
1003.009	21.05081
1003.378	9.02327
1003.747	69.16738
1004.116	19.0468
1004.485	5.01217
1004.853	58.14854
1005.222	5.01277
1005.591	19.04606
1005.959	54.12653
1006.328	43.09959
1006.696	37.09214
1007.064	39.09923
1007.433	27.06843
1007.801	51.12562
1008.169	17.04327
1008.537	98.22079
1008.905	44.10567
1009.273	47.11653
1009.64	59.14527
1010.008	73.17748
1010.375	-16.0387
1010.743	28.06571
1011.11	19.04644
1011.478	13.03271
1011.845	23.05521
1012.212	64.14914
1012.579	39.09673
1012.946	23.05579
1013.313	33.07945
1013.68	44.10079
1014.047	27.06648
1014.414	39.09479
1014.78	35.08795
1015.147	-2.00489
1015.513	38.09362
1015.88	11.0283
1016.246	9.02228
1016.612	36.08326
1016.978	44.10967
1017.344	63.15882
1017.71	26.06356
1018.076	49.11699
1018.442	21.05436
1018.808	36.09171
1019.174	60.15323
1019.539	53.12148
1019.905	28.06763
1020.27	55.13876
1020.636	42.1024
1021.001	34.08265
1021.366	37.091
1021.731	10.02585
1022.096	35.09019
1022.461	56.13475
1022.826	39.09432
1023.191	10.02659
1023.556	74.17718
1023.92	12.02988
1024.285	55.13617
1024.649	65.16163
1025.014	99.2469
1025.378	28.07184
1025.742	69.17407
1026.107	11.02545
1026.471	23.05407
1026.835	40.10162
1027.199	65.16258
1027.562	58.13723
1027.926	49.12118
1028.29	48.12426
1028.654	34.0802
1029.017	29.07185
1029.381	63.15329
1029.744	25.06435
1030.107	22.053
1030.471	29.07011
1030.834	33.07649
1031.197	0
1031.56	30.07197
1031.923	40.10459
1032.286	76.17996
1032.648	76.18544
1033.011	18.04218
1033.374	26.06173
1033.736	17.0456
1034.099	84.20839
1034.461	-9.02316
1034.823	-12.03054
1035.185	40.10216
1035.548	26.065
1035.91	7.0172
1036.272	11.02546
1036.634	47.11534
1036.995	68.16375
1037.357	51.12636
1037.719	13.0319
1038.08	9.02177
1038.442	37.08928
1038.803	-5.01227
1039.165	75.19299
1039.526	21.05176
1039.887	50.12213
1040.248	8.02014
1040.609	39.09652
1040.97	54.13475
1041.331	39.10007
1041.692	80.19352
1042.053	56.13044
1042.413	84.19821
1042.774	56.1375
1043.134	96.231
1043.495	51.12885
1043.855	61.14981
1044.215	55.1391
1044.576	65.16028
1044.936	53.12358
1045.296	46.1162
1045.656	13.0323
1046.016	36.08771
1046.375	19.04671
1046.735	5.01176
1047.095	50.11903
1047.454	55.11901
1047.814	33.08086
1048.173	18.04275
1048.533	15.03522
1048.892	61.15058
1049.251	52.13219
1049.61	44.10991
1049.969	109.26272
1050.328	57.12634
1050.687	29.07172
1051.046	0
1051.405	68.17256
1051.763	44.10394
1052.122	5.01276
1052.48	-1.00248
1052.839	8.01933
1053.197	44.1062
1053.555	-8.01819
1053.914	6.01481
1054.272	25.06069
1054.63	47.11794
1054.988	18.04402
1055.345	38.08425
1055.703	32.07814
1056.061	20.05213
1056.419	29.0761
1056.776	12.02932
1057.134	25.05946
1057.491	38.09606
1057.848	3.00754
1058.206	70.16735
1058.563	19.04304
1058.92	38.08813
1059.277	48.11943
1059.634	46.10964
1059.991	27.06601
1060.348	38.08869
1060.704	61.14853
1061.061	56.13111
1061.418	-14.03473
1061.774	17.04289
1062.131	50.13437
1062.487	3.00723
1062.843	-3.00759
1063.199	17.04342
1063.555	75.17824
1063.911	16.04068
1064.267	76.16033
1064.623	2.00499
1064.979	53.12678
1065.335	73.17469
1065.691	26.0632
1066.046	-10.02214
1066.402	36.08491
1066.757	53.13438
1067.112	42.10366
1067.468	87.21397
1067.823	89.21695
1068.178	19.04651
1068.533	32.07912
1068.888	33.07984
1069.243	50.12485
1069.598	55.13582
1069.952	61.14173
1070.307	40.10212
1070.662	12.02905
1071.016	14.03239
1071.371	34.07882
1071.725	50.1209
1072.079	6.01465
1072.434	30.07475
1072.788	75.1816
1073.142	101.25051
1073.496	6.01457
1073.85	50.1167
1074.203	78.19428
1074.557	41.11035
1074.911	49.11712
1075.265	54.12747
1075.618	31.07616
1075.971	-14.0342
1076.325	9.02338
1076.678	60.14174
1077.031	58.13484
1077.385	92.20761
1077.738	48.11132
1078.091	23.05418
1078.444	84.19713
1078.796	15.0373
1079.149	40.10032
1079.502	67.16369
1079.855	28.06732
1080.207	24.0601
1080.56	-14.03691
1080.912	10.02469
1081.264	28.06878
1081.617	61.15263
1081.969	53.13681
1082.321	-9.02239
1082.673	51.12041
1083.025	51.12362
1083.377	-152.35042
1083.728	39.0919
1084.08	19.04814
1084.432	79.19329
1084.783	46.10917
1085.135	56.14226
1085.486	61.14463
1085.838	49.12282
1086.189	12.02957
1086.54	11.02673
1086.891	47.12128
1087.242	-8.01977
1087.593	69.16901
1087.944	9.02075
1088.295	31.07202
1088.646	34.08456
1088.996	27.06623
1089.347	52.12938
1089.698	24.05834
1090.048	11.02859
1090.398	6.01415
1090.749	58.14104
1091.099	93.24047
1091.449	34.08591
1091.799	20.05111
1092.149	89.22397
1092.499	32.07921
1092.849	27.0702
1093.199	39.09797
1093.548	28.06913
1093.898	24.06121
1094.248	8.0208
1094.597	59.15498
1094.947	27.0726
1095.296	1.00251
1095.645	44.11536
1095.994	14.03412
1096.343	63.15973
1096.692	105.28388
1097.041	-13.03556
1097.39	103.26217
1097.739	22.05794
1098.088	60.16177
1098.437	13.03488
1098.785	3.00812
1099.134	45.11984
1099.482	44.12202
1099.83	-3.00795
1100.179	69.18345
1100.527	25.06689
1100.875	0
1101.223	23.06166
1101.571	26.07262
1101.919	23.0619
1102.267	15.04257
1102.615	16.05155
1102.962	9.02896
1103.31	12.03864
1103.658	17.05481
