Data from N2 R0 105C sample8_Subt2__3__12-14-16-033.txt Node

Date: Tue Aug 19 12:14:16 PDT 2025
User: uwsun
Spectrometer: HDX01956
Trigger mode: 0
Integration Time (sec): 5.000000E-1
Scans to average: 1
Nonlinearity correction enabled: true
Boxcar width: 0
Storing dark spectrum: false
XAxis mode: Wavelengths
Number of Pixels in Spectrum: 2068
>>>>>Begin Spectral Data<<<<<
194.03	180.51505
194.578	168.53781
195.127	171.53999
195.676	164.52023
196.225	192.51848
196.773	198.55468
197.321	313.86711
197.87	415.06369
198.418	447.12624
198.966	440.13671
199.513	335.84108
200.061	387.98481
200.609	422.09614
201.156	402.8826
201.704	451.12742
202.251	411.08373
202.798	418.07568
203.345	448.09138
203.892	377.94886
204.438	448.05839
204.985	431.02856
205.532	459.18567
206.078	413.0084
206.624	452.10073
207.17	467.07113
207.716	417.00873
208.262	422.8343
208.808	454.11917
209.354	446.0776
209.899	461.13207
210.445	499.22282
210.99	465.11493
211.535	499.1579
212.08	450.04916
212.625	455.12513
213.17	454.129
213.715	444.00953
214.259	458.05528
214.804	450.08606
215.348	461.0362
215.892	409.97481
216.436	441.0122
216.98	462.02124
217.524	439.02728
218.068	465.16121
218.612	433.07454
219.155	450.04505
219.698	376.8991
220.242	423.03937
220.785	376.87743
221.328	388.95602
221.871	346.86853
222.414	408.00263
222.956	395.96161
223.499	393.88658
224.041	372.86844
224.583	352.75689
225.126	353.7853
225.668	344.83608
226.21	365.91439
226.751	380.84412
227.293	383.88551
227.835	402.98138
228.376	395.90563
228.918	443.097
229.459	398.98605
230	415.97582
230.541	404.94349
231.082	348.83375
231.622	388.88869
232.163	391.9444
232.704	381.93446
233.244	400.98194
233.784	410.99083
234.324	417.93187
234.864	380.86443
235.404	395.9317
235.944	385.90601
236.484	372.91256
237.023	412.97348
237.563	358.83084
238.102	379.88322
238.641	381.95721
239.18	415.97164
239.719	392.97368
240.258	386.87061
240.797	435.03219
241.335	431.03836
241.874	399.79049
242.412	451.07515
242.95	367.8811
243.488	443.00502
244.026	420.9581
244.564	464.94829
245.102	416.9306
245.64	374.89125
246.177	409.92003
246.715	394.94249
247.252	464.04785
247.789	440.83239
248.326	451.07556
248.863	454.99757
249.4	413.93625
249.936	425.87115
250.473	429.99812
251.009	442.01267
251.546	407.89827
252.082	404.88699
252.618	423.93513
253.154	457.08781
253.69	385.86357
254.226	444.04082
254.761	457.02929
255.297	375.82177
255.832	394.92267
256.367	434.01536
256.903	399.86772
257.438	447.0305
257.972	477.05336
258.507	408.94273
259.042	464.00644
259.576	420.91862
260.111	403.92729
260.645	381.82083
261.179	436.0029
261.713	462.02507
262.247	445.01977
262.781	437.92084
263.315	451.09114
263.849	424.05007
264.382	460.035
264.915	496.15024
265.449	475.15705
265.982	503.12661
266.515	432.02997
267.048	447.95845
267.58	477.02963
268.113	484.03517
268.646	465.12802
269.178	487.07325
269.71	487.05171
270.243	451.01243
270.775	429.06537
271.307	479.12236
271.838	458.05192
272.37	473.135
272.902	514.13829
273.433	421.90816
273.965	509.20298
274.496	418.01173
275.027	476.15064
275.558	455.08346
276.089	437.06751
276.62	486.19905
277.15	474.12468
277.681	483.03949
278.211	367.87541
278.741	458.00437
279.272	416.94477
279.802	448.08854
280.332	470.08728
280.861	463.09284
281.391	482.07219
281.921	547.27044
282.45	507.22868
282.98	503.26664
283.509	501.09493
284.038	445.00344
284.567	472.06638
285.096	517.21531
285.625	530.17914
286.153	437.0038
286.682	543.20486
287.21	482.13622
287.739	530.22242
288.267	504.18632
288.795	434.09596
289.323	550.26005
289.851	542.23772
290.378	488.07882
290.906	465.10816
291.433	524.25113
291.961	465.03708
292.488	483.16254
293.015	553.26718
293.542	556.35789
294.069	468.11511
294.596	522.23779
295.122	539.24197
295.649	504.08175
296.175	543.28295
296.702	514.20145
297.228	500.17278
297.754	570.25777
298.28	520.15447
298.806	506.17995
299.332	576.24026
299.857	550.20092
300.383	544.31574
300.908	545.27873
301.433	522.21683
301.958	571.25552
302.483	538.2934
303.008	603.41441
303.533	512.27021
304.058	578.30785
304.582	517.19074
305.107	603.49972
305.631	601.29832
306.155	623.38604
306.679	531.19137
307.203	594.32391
307.727	580.3145
308.251	596.39879
308.775	581.33035
309.298	644.48035
309.822	615.47115
310.345	678.52502
310.868	638.44024
311.391	588.37356
311.914	621.47591
312.437	634.37466
312.96	598.34272
313.482	568.2878
314.005	691.6216
314.527	635.57248
315.049	643.51066
315.571	726.53354
316.093	697.61533
316.615	664.51481
317.137	646.33755
317.659	737.67098
318.18	650.4602
318.702	640.3977
319.223	703.3905
319.744	759.58407
320.265	683.55537
320.786	755.73392
321.307	760.74158
321.828	759.60437
322.348	740.62923
322.869	763.69006
323.389	476.71966
323.909	743.57736
324.43	784.71246
324.95	793.67191
325.47	792.76922
325.989	773.67883
326.509	826.67567
327.029	831.69847
327.548	830.70293
328.067	863.89817
328.587	914.01736
329.106	812.65698
329.625	864.01501
330.144	911.8957
330.662	869.78983
331.181	889.86217
331.7	933.95181
332.218	895.75763
332.736	900.88813
333.255	918.89971
333.773	881.85838
334.291	907.99079
334.808	998.9735
335.326	1032.03076
335.844	977.00903
336.361	1032.26574
336.879	1032.11993
337.396	1060.19117
337.913	1067.10027
338.43	1077.07943
338.947	1070.15977
339.464	1098.01378
339.981	1033.11677
340.497	1087.25653
341.014	1072.24159
341.53	1124.10902
342.046	1134.32351
342.562	1160.42366
343.078	1161.28888
343.594	1201.36568
344.11	1149.26412
344.626	1152.42699
345.141	1197.23378
345.657	1217.23556
346.172	1210.39732
346.687	1215.30977
347.202	1304.35365
347.717	1304.50866
348.232	1305.61872
348.747	1331.45058
349.261	1321.32843
349.776	1333.49691
350.29	1363.69287
350.805	1431.79867
351.319	1409.58441
351.833	1347.3941
352.347	1367.51834
352.861	1410.54062
353.374	1362.43267
353.888	1396.63504
354.401	1438.5507
354.915	1484.54511
355.428	1476.8013
355.941	1516.68561
356.454	1490.51631
356.967	1465.61948
357.48	1488.5682
357.993	1497.79282
358.505	1522.78625
359.018	1583.86457
359.53	1559.8252
360.042	1549.53619
360.554	1591.82134
361.066	1589.87403
361.578	1563.48054
362.09	1570.7362
362.602	1601.56155
363.113	1640.78183
363.625	1629.65362
364.136	1694.62767
364.647	1727.90019
365.158	1739.81579
365.669	1724.90055
366.18	1720.83958
366.691	1750.67501
367.201	1771.95878
367.712	1782.81516
368.222	1815.83795
368.733	1810.73578
369.243	1879.79087
369.753	1908.98955
370.263	1904.07242
370.773	1906.10122
371.282	1982.06069
371.792	1995.05546
372.301	2097.21812
372.811	2018.41011
373.32	2066.71577
373.829	2210.17101
374.338	2272.9056
374.847	2314.10182
375.356	2375.216
375.865	2443.73744
376.373	2568.04277
376.882	2708.53448
377.39	2678.29709
377.898	2705.41508
378.407	2881.92688
378.915	2973.69852
379.423	3005.12569
379.93	3167.82745
380.438	3375.21418
380.946	3443.98825
381.453	3581.98848
381.96	3766.81302
382.468	4053.66863
382.975	4276.55873
383.482	4306.01445
383.989	4437.74326
384.495	4622.96873
385.002	4813.38997
385.509	5162.7906
386.015	5421.69988
386.521	5851.11056
387.028	6006.92555
387.534	6120.72254
388.04	6364.98084
388.546	6704.76584
389.051	6930.69446
389.557	7418.0523
390.063	7929.52902
390.568	8116.79932
391.073	8348.10424
391.578	8888.14531
392.084	8926.34907
392.589	9251.40691
393.093	9851.14238
393.598	10885.02238
394.103	11855.68225
394.607	13099.63679
395.112	13794.49
395.616	14709.27715
396.12	15913.25732
396.624	17420.49734
397.128	18852.78505
397.632	20929.96369
398.136	22556.58409
398.639	24017.11893
399.143	26846.70326
399.646	30178.87234
400.15	33190.10468
400.653	36728.08867
401.156	41138.89552
401.659	47627.47762
402.162	56578.82531
402.664	54047.9785
403.167	49329.08451
403.67	22278.45323
404.172	2696.20453
404.674	0
405.176	0
405.678	0
406.18	0
406.682	0
407.184	0
407.686	25783.58453
408.187	43316.52985
408.688	51225.60928
409.19	54389.01922
409.691	56215.4214
410.192	57270.57019
410.693	57845.40442
411.194	58219.2365
411.694	58633.01717
412.195	59215.68848
412.696	57778.77528
413.196	54810.89289
413.696	54549.63634
414.196	55904.80492
414.696	54864.95015
415.196	52405.75703
415.696	46954.79374
416.196	36828.84696
416.695	28397.45537
417.195	24982.8175
417.694	24152.10081
418.194	22611.65228
418.693	21042.51154
419.192	20737.36859
419.691	20546.23997
420.19	19968.28573
420.688	19301.14611
421.187	18439.82352
421.685	17316.79442
422.184	15328.3817
422.682	13231.22437
423.18	11400.74026
423.678	10118.15259
424.176	9354.4431
424.674	8743.91036
425.172	8422.24579
425.669	7812.52102
426.167	7310.03562
426.664	6763.83779
427.161	6147.83899
427.659	5727.41901
428.156	5386.88098
428.652	5157.13372
429.149	4890.02489
429.646	4632.67582
430.143	4432.27507
430.639	4140.42895
431.135	3965.94712
431.632	3701.56514
432.128	3488.96476
432.624	3307.43063
433.12	3212.75174
433.616	3139.60665
434.111	3028.04443
434.607	2913.15273
435.103	2863.51551
435.598	2810.52819
436.093	2641.08035
436.588	2520.78815
437.083	2403.85284
437.578	2322.9858
438.073	2208.3305
438.568	2157.16015
439.062	2068.64539
439.557	2101.0064
440.051	1938.75453
440.546	1847.74096
441.04	1884.99344
441.534	1849.18248
442.028	1789.87195
442.522	1664.78831
443.015	1723.54666
443.509	1760.95687
444.002	1673.88279
444.496	1693.56644
444.989	1685.85493
445.482	1585.84229
445.975	1603.63256
446.468	1565.39118
446.961	1567.42652
447.454	1502.45526
447.947	1487.6306
448.439	1426.5397
448.931	1473.48141
449.424	1442.69843
449.916	1487.69012
450.408	1411.3968
450.9	1384.58072
451.392	1297.54326
451.884	1305.30843
452.375	1332.60287
452.867	1340.30657
453.358	1299.30606
453.849	1270.10355
454.341	1259.23246
454.832	1245.1145
455.323	1170.30397
455.814	1238.26124
456.304	1224.23335
456.795	1179.17633
457.285	1233.13781
457.776	1180.13444
458.266	1159.2275
458.756	1090.12611
459.247	1133.21173
459.737	1102.18297
460.226	1152.1142
460.716	1079.15467
461.206	1086.16119
461.695	1024.1223
462.185	958.89784
462.674	1072.07123
463.163	980.81792
463.653	1003.80403
464.142	977.00543
464.63	1045.14908
465.119	928.83749
465.608	988.95279
466.096	926.7363
466.585	968.90074
467.073	860.78118
467.561	843.76498
468.05	877.77237
468.538	870.85479
469.026	834.75342
469.513	989.927
470.001	825.64358
470.489	822.73196
470.976	783.61688
471.463	782.72247
471.951	770.70027
472.438	713.51164
472.925	668.42261
473.412	709.55474
473.899	722.48312
474.385	685.51655
474.872	732.56647
475.359	681.52333
475.845	703.34247
476.331	625.22617
476.817	653.44685
477.303	614.31993
477.789	664.46178
478.275	582.33611
478.761	618.38314
479.247	650.35965
479.732	654.50096
480.218	625.49508
480.703	550.28169
481.188	555.12452
481.673	533.15663
482.158	546.12315
482.643	560.31166
483.128	591.26579
483.612	574.25393
484.097	514.17181
484.581	502.10012
485.066	519.19915
485.55	491.04224
486.034	443.92076
486.518	488.10618
487.002	549.28562
487.486	462.0793
487.969	502.17611
488.453	438.04709
488.936	525.13973
489.42	477.00675
489.903	425.0204
490.386	411.67694
490.869	400.85121
491.352	417.98129
491.835	451.91065
492.318	477.0639
492.8	416.85636
493.283	444.09407
493.765	377.9106
494.247	388.88405
494.73	375.82073
495.212	390.91652
495.694	386.88588
496.175	403.94688
496.657	399.92212
497.139	382.67746
497.62	372.87355
498.102	363.88439
498.583	345.84525
499.064	364.82134
499.545	377.85327
500.026	364.81463
500.507	372.85547
500.988	402.97955
501.469	338.84143
501.949	398.96366
502.43	378.89283
502.91	359.75583
503.39	345.84212
503.87	403.94208
504.35	364.84209
504.83	373.82014
505.31	363.86322
505.79	378.90078
506.269	406.93885
506.749	365.82914
507.228	372.87185
507.707	398.87455
508.187	378.87759
508.666	411.99418
509.145	421.97681
509.623	366.84571
510.102	437.03136
510.581	417.97174
511.059	424.03665
511.538	449.1127
512.016	528.22311
512.494	488.14371
512.972	458.05611
513.45	516.16596
513.928	564.3195
514.406	531.24681
514.884	556.36041
515.361	576.31968
515.839	583.27389
516.316	617.40609
516.793	641.51297
517.27	611.37559
517.747	646.55092
518.224	661.44392
518.701	699.47549
519.178	606.40623
519.654	631.40328
520.131	630.45391
520.607	683.56225
521.083	635.37069
521.56	651.45976
522.036	624.30346
522.512	587.34572
522.987	623.40435
523.463	601.36629
523.939	579.34431
524.414	567.24619
524.89	482.10802
525.365	556.21865
525.84	556.28653
526.315	532.23872
526.79	476.05093
527.265	527.17899
527.74	476.12162
528.215	485.11915
528.689	449.98597
529.164	442.94425
529.638	438.09821
530.112	462.07296
530.587	439.93724
531.061	414.98729
531.534	362.86134
532.008	383.91775
532.482	353.79766
532.956	366.91937
533.429	352.84751
533.903	353.77911
534.376	358.79229
534.849	356.82784
535.322	371.87206
535.795	329.80128
536.268	316.75595
536.741	338.80733
537.213	349.8066
537.686	323.79254
538.158	346.77786
538.631	301.72763
539.103	375.85013
539.575	307.64636
540.047	339.75009
540.519	323.77638
540.991	291.71246
541.463	310.75375
541.934	331.7647
542.406	291.70399
542.877	348.79965
543.348	341.82274
543.82	317.76976
544.291	309.72267
544.762	279.66758
545.233	323.80863
545.703	289.65466
546.174	349.81428
546.645	354.85168
547.115	375.90543
547.585	351.80735
548.056	326.80123
548.526	424.99834
548.996	343.81912
549.466	382.91553
549.935	348.82835
550.405	365.8066
550.875	379.8912
551.344	397.94803
551.814	417.95643
552.283	385.8266
552.752	410.95299
553.221	445.98458
553.69	416.91294
554.159	440.06827
554.628	442.98589
555.096	443.10699
555.565	468.03625
556.033	466.06905
556.502	438.03992
556.97	414.91467
557.438	445.03158
557.906	407.95329
558.374	371.85368
558.842	411.96642
559.31	414.92498
559.777	375.89928
560.245	460.06284
560.712	435.00159
561.18	470.04458
561.647	438.97414
562.114	404.92198
562.581	450.07952
563.048	496.11751
563.514	508.20733
563.981	474.06002
564.448	565.22878
564.914	563.26534
565.381	578.26321
565.847	605.35818
566.313	575.29234
566.779	619.31385
567.245	627.40129
567.711	695.56997
568.176	679.44888
568.642	668.57947
569.108	726.66829
569.573	775.70882
570.038	785.558
570.504	800.64132
570.969	905.05749
571.434	907.83807
571.899	997.10976
572.363	964.95591
572.828	975.96972
573.293	951.95184
573.757	986.98878
574.222	1091.1456
574.686	1070.13519
575.15	1086.24199
575.614	1134.22982
576.078	1113.27379
576.542	1172.26706
577.006	1226.31894
577.469	1202.49936
577.933	1284.43247
578.396	1155.31625
578.86	1267.48432
579.323	1330.64035
579.786	1267.27099
580.249	1288.47545
580.712	1224.50701
581.175	1283.62386
581.637	1162.23488
582.1	1260.31194
582.563	1244.20745
583.025	1251.53773
583.487	1228.09387
583.95	1324.37659
584.412	1295.25054
584.874	1211.4465
585.336	1194.38528
585.797	1229.22059
586.259	1264.47206
586.721	1199.36944
587.182	1230.37387
587.643	1264.37597
588.105	1268.50546
588.566	1170.05853
589.027	1249.52909
589.488	1260.38804
589.949	1308.6002
590.41	1223.99586
590.87	1282.37354
591.331	1352.32488
591.791	1350.57143
592.252	1363.55327
592.712	1412.69628
593.172	1441.60524
593.632	1565.6502
594.092	1555.67961
594.552	1554.57598
595.011	1637.84997
595.471	1724.79049
595.931	1724.81216
596.39	1850.23168
596.849	1883.12657
597.308	2019.95449
597.768	2033.6462
598.227	2104.34732
598.685	2152.16682
599.144	2317.40835
599.603	2429.56053
600.062	2610.11277
600.52	2765.35603
600.978	2829.60639
601.437	2936.40379
601.895	3164.04962
602.353	3297.24255
602.811	3609.31282
603.269	3847.64914
603.727	3815.68839
604.184	4104.21904
604.642	4303.60685
605.099	4533.06745
605.557	4764.32346
606.014	5075.4542
606.471	5253.28618
606.928	5660.16473
607.385	6015.799
607.842	6181.0912
608.299	6572.20766
608.755	6916.33084
609.212	7132.84734
609.668	7465.99767
610.125	7795.46279
610.581	8263.66831
611.037	8548.86526
611.493	8800.28118
611.949	9100.87044
612.405	9399.25257
612.861	9845.32479
613.316	10174.20743
613.772	10522.34476
614.227	10749.07542
614.683	10959.24108
615.138	11157.72195
615.593	11449.0236
616.048	11580.78777
616.503	11891.92801
616.958	12025.4033
617.412	12202.78477
617.867	12381.2727
618.321	12488.45372
618.776	12557.33387
619.23	12484.49844
619.684	12624.64071
620.138	12552.02314
620.592	12555.59391
621.046	12618.35888
621.5	12674.24144
621.954	12533.10331
622.407	12388.31145
622.861	12462.0842
623.314	12485.76404
623.768	12237.0646
624.221	12268.41426
624.674	12313.62166
625.127	12128.48768
625.58	12175.94197
626.033	12138.01351
626.485	12203.69927
626.938	12018.77265
627.39	12344.68576
627.843	12300.5089
628.295	12209.06886
628.747	12422.03142
629.199	12441.48787
629.651	12528.98467
630.103	12781.48471
630.555	12823.60534
631.006	12988.74788
631.458	13304.80056
631.909	13734.54448
632.361	13814.80751
632.812	14177.7781
633.263	14567.32555
633.714	14948.06647
634.165	15346.57516
634.616	15650.00175
635.067	16041.77856
635.518	16646.891
635.968	17348.846
636.419	18054.89113
636.869	18514.91435
637.319	19126.5666
637.769	20167.52305
638.219	20807.71247
638.669	21774.06009
639.119	22458.18204
639.569	23358.92896
640.019	24605.08079
640.468	25541.90593
640.918	26756.59098
641.367	27974.46331
641.816	29150.27621
642.265	30449.15879
642.714	31802.84109
643.163	33177.32752
643.612	34407.13091
644.061	35600.53225
644.51	36831.43256
644.958	38131.60614
645.406	39562.40595
645.855	40903.03669
646.303	42151.23458
646.751	43276.48916
647.199	44611.7583
647.647	46197.39479
648.095	46950.80013
648.543	48013.23844
648.99	49173.43678
649.438	49949.1829
649.885	51168.52198
650.333	51524.73023
650.78	52583.39759
651.227	53202.24553
651.674	53807.92109
652.121	53890.17452
652.568	54217.05688
653.015	54675.62001
653.461	54360.2098
653.908	54485.7466
654.354	54058.64546
654.801	54196.9427
655.247	53674.57318
655.693	53564.18902
656.139	53471.56666
656.585	53164.9641
657.031	52539.9557
657.477	52432.62693
657.922	51772.7458
658.368	51389.4034
658.813	51210.86703
659.259	50958.92856
659.704	50486.45961
660.149	50125.92355
660.594	49332.70653
661.039	48800.6043
661.484	48349.46353
661.929	47786.18847
662.373	47885.81661
662.818	47920.05794
663.262	47825.78779
663.707	47390.84434
664.151	47287.36442
664.595	47559.01052
665.039	47823.7907
665.483	47884.94014
665.927	48190.28464
666.371	48386.39121
666.814	48509.7376
667.258	48468.53232
667.701	49017.97475
668.145	49202.3382
668.588	49454.99546
669.031	50111.23791
669.474	50896.0119
669.917	51038.32435
670.36	51914.64976
670.803	52457.3638
671.245	52806.78032
671.688	52924.64422
672.13	53701.34498
672.573	53790.61978
673.015	54690.98758
673.457	54930.71483
673.899	55289.53149
674.341	55421.26468
674.783	55947.39588
675.225	56125.48738
675.666	56510.89159
676.108	56946.36212
676.549	56974.59526
676.991	57027.56555
677.432	56921.22604
677.873	56853.5631
678.314	55969.72461
678.755	55913.40465
679.196	55586.22726
679.637	55068.88723
680.078	54583.71861
680.518	53907.01946
680.959	53596.54132
681.399	53201.07441
681.839	52320.53311
682.28	51533.80523
682.72	51067.35369
683.16	50221.25101
683.6	49144.62091
684.039	48398.13306
684.479	47938.97422
684.919	47412.47042
685.358	47105.84578
685.798	46174.69339
686.237	45790.70987
686.676	45039.21789
687.115	44257.89524
687.554	43957.06291
687.993	43236.16739
688.432	42332.51357
688.871	41775.7336
689.309	41337.81974
689.748	41014.09205
690.186	40940.17159
690.625	40249.03554
691.063	39624.00408
691.501	39330.31379
691.939	39392.62369
692.377	38640.62226
692.815	38024.74934
693.253	37956.18996
693.69	37420.92527
694.128	36930.75997
694.565	36374.74409
695.003	36068.43155
695.44	35654.06246
695.877	34973.48364
696.314	34560.51857
696.751	33971.87095
697.188	33768.81489
697.625	33346.35436
698.061	32779.37611
698.498	32243.53235
698.934	31975.81232
699.371	31513.63374
699.807	30675.28059
700.243	30316.97839
700.679	29577.16755
701.115	29385.53188
701.551	28690.27809
701.987	28253.88348
702.422	27938.71729
702.858	27507.68445
703.294	26827.09926
703.729	26611.14789
704.164	25795.5554
704.599	25161.88878
705.035	24989.87832
705.47	24536.18574
705.904	24190.5489
706.339	23800.30221
706.774	23350.80776
707.209	22823.43446
707.643	22220.56738
708.078	22192.35287
708.512	21670.17265
708.946	21426.70482
709.38	21017.84026
709.814	20302.67661
710.248	20064.6901
710.682	19770.84138
711.116	19370.93686
711.549	18799.92795
711.983	18420.46642
712.416	18020.91355
712.85	17804.77668
713.283	17497.14994
713.716	17283.62697
714.149	16718.23704
714.582	16469.09561
715.015	15935.76842
715.448	15552.49028
715.881	15284.47309
716.313	14970.96971
716.746	14821.40051
717.178	14470.10837
717.61	14053.06694
718.043	13918.13948
718.475	13567.81257
718.907	13194.63106
719.339	13075.74664
719.77	12759.239
720.202	12542.4488
720.634	12201.63155
721.065	11939.48065
721.497	11858.88272
721.928	11489.05026
722.359	11309.27064
722.79	10970.90829
723.221	10905.60486
723.652	10663.70383
724.083	10430.11319
724.514	10222.42832
724.945	9961.63765
725.375	9919.52059
725.806	9498.53315
726.236	9351.29224
726.666	9223.93783
727.096	9092.77692
727.526	9048.78972
727.956	8942.37302
728.386	8634.10351
728.816	8554.12608
729.246	8414.89171
729.675	8233.75498
730.105	7971.4322
730.534	7941.27726
730.964	7889.53707
731.393	7741.34304
731.822	7623.54682
732.251	7559.45574
732.68	7497.0066
733.109	7303.2351
733.537	7257.16841
733.966	7112.38988
734.395	7182.88905
734.823	6944.66342
735.251	6947.18054
735.68	6901.34586
736.108	6741.40575
736.536	6615.97469
736.964	6588.9584
737.392	6465.44071
737.82	6465.16498
738.247	6486.09886
738.675	6437.08673
739.102	6198.58666
739.53	6250.68712
739.957	6147.80759
740.384	6194.31541
740.811	6003.64984
741.238	5962.46823
741.665	5922.09053
742.092	5974.28793
742.519	5882.61171
742.945	5765.44708
743.372	5752.70698
743.798	5907.88563
744.225	5800.34951
744.651	5688.78364
745.077	5696.73892
745.503	5672.56039
745.929	5674.45636
746.355	5689.67128
746.781	5679.69501
747.207	5555.5331
747.632	5633.7533
748.058	5534.83773
748.483	5690.20246
748.908	5693.68775
749.334	5702.66148
749.759	5645.28327
750.184	5617.51278
750.609	5632.69484
751.033	5735.28907
751.458	5677.98701
751.883	5705.65686
752.307	5653.40696
752.732	5577.9501
753.156	5721.74464
753.58	5650.43848
754.005	5731.77376
754.429	5761.32968
754.853	5616.72499
755.277	5627.31003
755.7	5659.7396
756.124	5750.69561
756.548	5797.39858
756.971	5791.41043
757.394	5729.01573
757.818	5872.85889
758.241	5769.83877
758.664	5865.80584
759.087	5760.02548
759.51	5824.60316
759.933	5837.46934
760.356	5845.82211
760.778	5875.65192
761.201	5838.47489
761.623	5756.40352
762.046	5877.26357
762.468	5845.22553
762.89	5887.4878
763.312	5952.53007
763.734	5940.34704
764.156	5941.53817
764.578	5910.11856
765	5894.4996
765.421	5904.81476
765.843	5783.03538
766.264	5715.4568
766.686	5788.63018
767.107	5690.48143
767.528	5717.88156
767.949	5718.87472
768.37	5703.48091
768.791	5780.4638
769.212	5570.91269
769.632	5631.32577
770.053	5608.22999
770.473	5487.63663
770.894	5561.7295
771.314	5478.38126
771.734	5395.42875
772.154	5324.05305
772.575	5380.2943
772.994	5371.24042
773.414	5349.57457
773.834	5375.93186
774.254	5268.91334
774.673	5222.74955
775.093	4990.05586
775.512	5031.95392
775.931	5013.21024
776.351	4979.07149
776.77	4885.04016
777.189	4796.84069
777.607	4685.46084
778.026	4760.27842
778.445	4621.40639
778.864	4640.48773
779.282	4610.06573
779.701	4466.40823
780.119	4578.63692
780.537	4362.49004
780.955	4292.50455
781.373	4285.38013
781.791	4340.71923
782.209	4207.87366
782.627	4257.03182
783.045	4122.03917
783.462	4015.8074
783.88	3971.88889
784.297	3875.72181
784.715	3869.9065
785.132	3848.50113
785.549	3766.74064
785.966	3640.75353
786.383	3615.61597
786.8	3642.22609
787.217	3492.40875
787.633	3507.76709
788.05	3479.30146
788.466	3373.19372
788.883	3342.88689
789.299	3273.51094
789.715	3214.63088
790.131	3164.79866
790.547	3102.68539
790.963	3089.76402
791.379	3030.84911
791.795	3027.17997
792.21	2991.3101
792.626	2909.38814
793.041	2875.71899
793.457	2838.70321
793.872	2804.35146
794.287	2734.48928
794.702	2704.57713
795.117	2612.68699
795.532	2619.74117
795.947	2550.41487
796.362	2539.39631
796.776	2529.18237
797.191	2448.52432
797.605	2429.4047
798.02	2409.44253
798.434	2285.89647
798.848	2302.50769
799.262	2277.54991
799.676	2174.28391
800.09	2292.53845
800.504	2127.24247
800.918	2122.12174
801.331	2022.4966
801.745	1995.95738
802.158	2023.35266
802.572	1954.10014
802.985	1941.10085
803.398	1880.02314
803.811	1826.21084
804.224	1786.06111
804.637	1797.9913
805.05	1715.74117
805.462	1733.00003
805.875	1658.17219
806.288	1650.91084
806.7	1655.03493
807.112	1575.60183
807.525	1558.83542
807.937	1541.83169
808.349	1540.87681
808.761	1449.71091
809.173	1418.61456
809.584	1330.54541
809.996	1374.62103
810.408	1375.79834
810.819	1307.42775
811.231	1364.84762
811.642	1347.58973
812.053	1328.55493
812.464	1310.47947
812.875	1266.59196
813.286	1224.5586
813.697	1164.18322
814.108	1128.24597
814.519	1075.93978
814.929	1056.24202
815.34	1025.12013
815.75	1015.19073
816.16	963.03154
816.571	953.09436
816.981	937.86698
817.391	951.97023
817.801	914.98979
818.211	913.82837
818.62	873.84552
819.03	816.74486
819.44	832.89365
819.849	759.68329
820.259	786.75437
820.668	713.58645
821.077	771.71982
821.486	715.53105
821.895	698.52899
822.304	715.70527
822.713	661.42383
823.122	649.47372
823.531	643.39864
823.939	644.43488
824.348	646.43637
824.756	615.41673
825.164	568.30758
825.573	600.40983
825.981	521.19853
826.389	565.31746
826.797	486.12791
827.205	518.11949
827.612	532.22704
828.02	496.09836
828.428	510.21951
828.835	469.16488
829.243	490.10622
829.65	462.08478
830.057	474.08786
830.464	435.00278
830.871	430.97537
831.278	378.87204
831.685	383.82372
832.092	409.96247
832.499	356.75034
832.905	379.91715
833.312	395.86522
833.718	400.95318
834.124	354.77592
834.531	332.80542
834.937	271.66818
835.343	327.76746
835.749	274.61576
836.155	279.71057
836.561	289.69889
836.966	312.74126
837.372	290.71961
837.777	268.65969
838.183	246.53467
838.588	239.5769
838.993	250.59604
839.399	248.59693
839.804	212.51241
840.209	269.67857
840.613	202.44931
841.018	187.46668
841.423	242.60818
841.828	252.63035
842.232	212.5157
842.637	224.52606
843.041	219.55896
843.445	196.48816
843.849	166.40849
844.253	208.49116
844.657	152.38544
845.061	203.46136
845.465	161.39011
845.869	181.42185
846.272	200.48687
846.676	173.41303
847.079	207.52704
847.483	161.39684
847.886	144.34412
848.289	151.40252
848.692	189.47474
849.095	160.38703
849.498	167.41511
849.901	124.28542
850.304	176.42204
850.707	131.33202
851.109	147.36686
851.512	142.35316
851.914	169.43288
852.316	86.217
852.718	133.34615
853.121	101.25051
853.523	158.3757
853.925	144.37843
854.326	79.19895
854.728	134.34725
855.13	139.36251
855.531	110.26959
855.933	73.17535
856.334	123.30953
856.736	112.25656
857.137	83.19588
857.538	108.2763
857.939	101.25508
858.34	131.31992
858.741	97.25453
859.142	92.22447
859.542	92.24561
859.943	80.20092
860.343	94.23583
860.744	69.17027
861.144	58.14215
861.544	105.25862
861.945	141.36356
862.345	101.24831
862.745	116.29385
863.145	139.3311
863.544	80.20402
863.944	70.16665
864.344	84.21036
864.743	90.22335
865.143	107.27667
865.542	80.18972
865.941	93.23462
866.34	67.16265
866.74	81.21771
867.139	121.29561
867.537	86.22033
867.936	94.23012
868.335	77.19848
868.734	92.24047
869.132	132.31183
869.531	57.13827
869.929	113.26472
870.327	78.19131
870.726	47.11768
871.124	110.26147
871.522	76.19614
871.92	119.29656
872.318	16.04005
872.715	106.26037
873.113	71.17713
873.511	129.32683
873.908	73.18967
874.306	105.26622
874.703	72.18155
875.1	70.1804
875.497	82.20179
875.894	57.14411
876.291	87.21516
876.688	138.3607
877.085	41.09968
877.482	20.05102
877.878	74.18183
878.275	70.18122
878.671	61.13898
879.068	88.21479
879.464	97.23663
879.86	72.17292
880.256	83.20662
880.652	64.16523
881.048	74.18438
881.444	27.06498
881.84	83.2126
882.236	63.15996
882.631	91.22843
883.027	62.15111
883.422	35.09084
883.817	81.21009
884.213	54.14134
884.608	66.16594
885.003	94.23157
885.398	70.18009
885.793	67.17
886.188	66.16897
886.582	27.06948
886.977	107.25683
887.371	4.01021
887.766	45.11486
888.16	69.17407
888.554	72.17829
888.949	34.0864
889.343	70.17207
889.737	59.16122
890.131	-3.00765
890.525	37.09607
890.918	40.10151
891.312	51.12237
891.706	10.0263
892.099	44.11229
892.492	69.15332
892.886	38.09434
893.279	43.11199
893.672	-4.01026
894.065	28.07121
894.458	97.2482
894.851	71.17578
895.244	11.02862
895.637	75.18426
896.029	53.13151
896.422	47.11645
896.814	46.11599
897.206	32.07811
897.599	70.1734
897.991	24.05906
898.383	104.25186
898.775	56.12916
899.167	41.09901
899.559	11.02832
899.951	30.07227
900.342	28.07176
900.734	29.07473
901.125	73.19292
901.517	65.16304
901.908	98.23563
902.299	82.20669
902.69	47.11397
903.082	61.14986
903.473	72.17718
903.863	39.10116
904.254	32.07709
904.645	118.29444
905.036	45.11198
905.426	49.11371
905.817	35.08811
906.207	58.14231
906.597	6.01433
906.987	31.08171
907.378	28.07153
907.768	17.0458
908.158	53.13146
908.547	68.17853
908.937	17.044
909.327	78.19322
909.717	67.17042
910.106	30.07355
910.495	57.14442
910.885	75.19299
911.274	62.157
911.663	28.07153
912.052	69.17071
912.441	54.1382
912.83	60.14169
913.219	27.07143
913.608	74.18277
913.997	45.11559
914.385	49.11846
914.774	41.10158
915.162	69.1687
915.55	14.03459
915.939	29.07467
916.327	-1.00252
916.715	36.09326
917.103	84.20709
917.491	48.11938
917.878	23.05686
918.266	-12.03143
918.654	72.18736
919.041	49.13036
919.429	17.04139
919.816	39.09976
920.203	40.09938
920.591	39.0979
920.978	38.0932
921.365	56.14866
921.752	37.0907
922.139	123.27297
922.525	68.16814
922.912	54.13313
923.299	51.12935
923.685	36.09567
924.072	6.01403
924.458	47.1184
924.844	49.12388
925.231	60.14289
925.617	69.1786
926.003	48.12401
926.389	42.1079
926.774	41.10557
927.16	47.1187
927.546	47.12308
927.931	91.229
928.317	29.06791
928.702	75.17824
929.088	63.153
929.473	8.02073
929.858	35.08729
930.243	46.11312
930.628	65.16281
931.013	46.1164
931.398	56.13029
931.783	32.08472
932.167	63.1582
932.552	-2.00508
932.937	68.17011
933.321	35.08984
933.705	54.13869
934.09	31.07868
934.474	6.01458
934.858	18.04751
935.242	23.05508
935.626	50.13083
936.009	-15.04021
936.393	43.11072
936.777	59.15319
937.16	34.0892
937.544	46.10968
937.927	55.14271
938.311	40.0988
938.694	24.06395
939.077	51.12451
939.46	5.01223
939.843	98.21128
940.226	61.15838
940.609	82.19536
940.991	64.16511
941.374	35.08757
941.757	-18.04529
942.139	79.1842
942.522	33.07888
942.904	62.15156
943.286	42.10734
943.668	41.10795
944.05	36.09061
944.432	68.17207
944.814	44.10892
945.196	54.13582
945.578	27.06729
945.959	28.06745
946.341	3.00736
946.722	38.09088
947.104	58.14146
947.485	23.055
947.866	95.2453
948.247	29.07384
948.628	22.05422
949.009	55.14364
949.39	43.10833
949.771	72.17062
950.152	49.12331
950.532	14.03575
950.913	43.10568
951.293	32.08793
951.674	126.3128
952.054	51.13023
952.434	51.12811
952.814	89.21444
953.194	61.1598
953.574	19.04718
953.954	0
954.334	42.10681
954.714	69.17177
955.093	20.04982
955.473	37.09378
955.853	47.12262
956.232	15.04122
956.611	44.1072
956.99	48.12358
957.37	50.12958
957.749	18.04428
958.128	52.13425
958.506	87.23022
958.885	46.11855
959.264	95.2395
959.643	72.16593
960.021	29.07382
960.4	31.07271
960.778	52.1298
961.156	40.10277
961.535	58.13728
961.913	77.1832
962.291	73.19253
962.669	-16.04132
963.047	21.05426
963.424	5.013
963.802	28.07073
964.18	45.11503
964.557	104.24225
964.935	62.14941
965.312	1.00265
965.69	5.01268
966.067	43.10712
966.444	32.07968
966.821	40.10402
967.198	32.07881
967.575	-20.04978
967.952	44.10543
968.329	36.08957
968.705	41.0897
969.082	64.16711
969.458	55.13662
969.835	51.1258
970.211	57.14942
970.587	50.12598
970.963	26.0675
971.339	64.16899
971.715	17.04324
972.091	16.0403
972.467	66.16666
972.843	0
973.219	35.08443
973.594	73.19492
973.97	43.10372
974.345	47.11525
974.721	43.10439
975.096	27.0667
975.471	71.17107
975.846	14.03434
976.221	33.0863
976.596	37.09127
976.971	57.14241
977.346	8.01899
977.72	72.18588
978.095	56.14687
978.469	56.13521
978.844	50.12598
979.218	-14.03453
979.593	48.11659
979.967	27.06707
980.341	44.10322
980.715	58.14865
981.089	-21.05338
981.463	37.08871
981.837	50.12513
982.21	44.10386
982.584	33.08161
982.957	15.03856
983.331	65.15649
983.704	6.01484
984.078	44.11095
984.451	28.06999
984.824	35.08745
985.197	41.10103
985.57	54.13713
985.943	19.04733
986.316	71.17578
986.688	26.06368
987.061	86.20615
987.434	41.10828
987.806	51.12604
988.179	37.09003
988.551	42.10847
988.923	10.02518
989.295	25.0623
989.667	30.07423
990.039	50.12675
990.411	13.03079
990.783	41.09624
991.155	59.14725
991.527	57.14055
991.898	20.05117
992.27	-2.00506
992.641	-1.00255
993.012	101.23957
993.384	34.08222
993.755	47.12241
994.126	41.10013
994.497	43.10794
994.868	39.09229
995.239	-9.0223
995.61	55.14123
995.98	78.19393
996.351	43.1084
996.722	54.13004
997.092	64.15511
997.462	39.09425
997.833	22.05312
998.203	29.07119
998.573	35.08843
998.943	76.18239
999.313	44.10832
999.683	57.14107
1000.053	54.12757
1000.423	34.08348
1000.792	51.13473
1001.162	2.00502
1001.531	20.05045
1001.901	69.17637
1002.27	44.10087
1002.639	54.14052
1003.009	20.0484
1003.378	14.03617
1003.747	61.1482
1004.116	51.12488
1004.485	7.01703
1004.853	46.11806
1005.222	35.08893
1005.591	49.11811
1005.959	20.04717
1006.328	38.0881
1006.696	51.12668
1007.064	44.11186
1007.433	40.10115
1007.801	40.09872
1008.169	14.03565
1008.537	77.17422
1008.905	47.11281
1009.273	7.01748
1009.64	37.09147
1010.008	22.054
1010.375	2.00482
1010.743	65.15144
1011.11	56.13592
1011.478	52.12994
1011.845	52.12413
1012.212	63.14684
1012.579	35.08688
1012.946	22.05338
1013.313	29.06987
1013.68	44.10079
1014.047	0
1014.414	55.13327
1014.78	-6.01519
1015.147	-6.01469
1015.513	45.11072
1015.88	4.0103
1016.246	-3.00744
1016.612	20.0464
1016.978	20.05007
1017.344	40.10126
1017.71	-6.01475
1018.076	23.05519
1018.442	43.11088
1018.808	29.07397
1019.174	15.03861
1019.539	56.12828
1019.905	29.07003
1020.27	3.00764
1020.636	33.08059
1021.001	30.07298
1021.366	11.02718
1021.731	-7.01815
1022.096	25.06453
1022.461	52.12522
1022.826	41.09912
1023.191	34.09005
1023.556	28.06763
1023.92	39.09663
1024.285	8.01998
1024.649	39.09744
1025.014	41.10333
1025.378	21.05394
1025.742	34.08631
1026.107	24.05538
1026.471	15.03532
1026.835	50.12679
1027.199	58.14525
1027.562	23.05479
1027.926	44.10892
1028.29	77.19834
1028.654	10.0237
1029.017	-24.06004
1029.381	31.07588
1029.744	21.05409
1030.107	40.09603
1030.471	-4.00973
1030.834	15.03489
1031.197	43.10388
1031.56	36.08626
1031.923	25.06554
1032.286	65.15424
1032.648	63.15409
1033.011	21.04918
1033.374	20.04754
1033.736	11.02954
1034.099	33.08263
1034.461	-9.02316
1034.823	19.04809
1035.185	25.06402
1035.548	51.12691
1035.91	0
1036.272	-15.03489
1036.634	39.09585
1036.995	56.13516
1037.357	11.02745
1037.719	-13.03206
1038.08	32.07706
1038.442	9.02183
1038.803	34.08283
1039.165	67.17264
1039.526	29.07138
1039.887	42.10275
1040.248	27.06775
1040.609	25.06203
1040.97	8.02013
1041.331	41.10517
1041.692	88.21255
1042.053	45.10505
1042.413	35.08337
1042.774	17.04204
1043.134	48.11655
1043.495	23.0584
1043.855	-13.03236
1044.215	33.08379
1044.576	43.10646
1044.936	41.09582
1045.296	43.10868
1045.656	13.0323
1046.016	59.14312
1046.375	-3.00741
1046.735	60.13965
1047.095	15.03595
1047.454	36.07821
1047.814	23.05646
1048.173	-25.05987
1048.533	0
1048.892	19.04726
1049.251	36.09178
1049.61	-25.06323
1049.969	100.24144
1050.328	44.09779
1050.687	-1.00249
1051.046	-19.04702
1051.405	91.22999
1051.763	-1.00238
1052.122	32.08126
1052.48	-26.06469
1052.839	-9.02182
1053.197	44.1062
1053.555	-7.01592
1053.914	24.05904
1054.272	38.09203
1054.63	21.05294
1054.988	21.05132
1055.345	38.08425
1055.703	-32.07907
1056.061	5.01307
1056.419	3.00791
1056.776	-9.02208
1057.134	63.14874
1057.491	45.11361
1057.848	0
1058.206	10.02418
1058.563	10.0227
1058.92	1.00234
1059.277	50.12436
1059.634	36.08597
1059.991	39.09514
1060.348	38.08869
1060.704	14.03439
1061.061	86.20017
1061.418	-15.03722
1061.774	30.07551
1062.131	12.03245
1062.487	63.15001
1062.843	13.03279
1063.199	61.15461
1063.555	58.13829
1063.911	24.06093
1064.267	52.11028
1064.623	31.07698
1064.979	50.11967
1065.335	25.06037
1065.691	-2.00489
1066.046	-42.09362
1066.402	88.20547
1066.757	3.00767
1067.112	10.02483
1067.468	89.21881
1067.823	54.13249
1068.178	17.04163
1068.533	45.111
1068.888	23.05575
1069.243	42.10503
1069.598	28.06949
1069.952	-22.05195
1070.307	73.18528
1070.662	-25.06094
1071.016	-7.01626
1071.371	28.06499
1071.725	41.09931
1072.079	-19.04661
1072.434	12.03
1072.788	43.10474
1073.142	44.11027
1073.496	27.0653
1073.85	13.03056
1074.203	85.21144
1074.557	22.05939
1074.911	3.00723
1075.265	35.08292
1075.618	-6.01484
1075.971	56.135
1076.325	6.0156
1076.678	25.05946
1077.031	48.11181
1077.385	57.12955
1077.738	35.08138
1078.091	23.05418
1078.444	22.05225
1078.796	-1.00249
1079.149	20.05034
1079.502	56.1371
1079.855	21.05056
1080.207	30.07505
1080.56	0
1080.912	12.02962
1081.264	25.06144
1081.617	55.13776
1081.969	26.06743
1082.321	7.01736
1082.673	17.0404
1083.025	45.1092
1083.377	58.1281
1083.728	12.02843
1084.08	36.09094
1084.432	64.15703
1084.783	16.03819
1085.135	25.06386
1085.486	61.14463
1085.838	65.16246
1086.189	-7.01731
1086.54	43.10388
1086.891	11.02856
1087.242	52.12711
1087.593	69.16901
1087.944	-22.05102
1088.295	58.13404
1088.646	44.10923
1088.996	-13.03213
1089.347	-2.00502
1089.698	7.01707
1090.048	-22.0575
1090.398	-7.01655
1090.749	45.1097
1091.099	97.25064
1091.449	65.16334
1091.799	53.13466
1092.149	49.12419
1092.499	26.06443
1092.849	36.09346
1093.199	2.00506
1093.548	58.14241
1093.898	17.04341
1094.248	-6.01564
1094.597	7.01855
1094.947	-5.01351
1095.296	-4.01006
1095.645	-3.00793
1095.994	48.11624
1096.343	47.1195
1096.692	116.31306
1097.041	-22.06026
1097.39	77.19689
1097.739	31.08151
1098.088	43.11626
1098.437	25.06695
1098.785	2.00541
1099.134	51.13568
1099.482	42.11651
1099.83	-6.0159
1100.179	27.07229
1100.527	19.05088
1100.875	-2.00538
1101.223	19.05097
1101.571	5.01401
1101.919	37.09935
1102.267	2.00569
1102.615	10.03224
1102.962	10.03217
1103.31	6.01933
1103.658	10.03227
