Data from N2 R0 105C sample9_Subt2__2__12-47-31-687.txt Node

Date: Tue Aug 19 12:47:31 PDT 2025
User: uwsun
Spectrometer: HDX01956
Trigger mode: 0
Integration Time (sec): 5.000000E-1
Scans to average: 1
Nonlinearity correction enabled: true
Boxcar width: 0
Storing dark spectrum: false
XAxis mode: Wavelengths
Number of Pixels in Spectrum: 2068
>>>>>Begin Spectral Data<<<<<
194.03	175.50112
194.578	159.50955
195.127	168.53071
195.676	178.56367
196.225	222.59655
196.773	179.50292
197.321	309.85657
197.87	406.04221
198.418	408.03495
198.966	410.06455
199.513	351.8787
200.061	399.01082
200.609	365.9595
201.156	384.84627
201.704	422.0603
202.251	396.04673
202.798	398.02767
203.345	443.08018
203.892	435.08108
204.438	460.08428
204.985	400.9623
205.532	378.99215
206.078	441.0713
206.624	432.05586
207.17	425.98492
207.716	419.0132
208.262	351.70548
208.808	435.07598
209.354	450.08647
209.899	394.98149
210.445	425.05542
210.99	463.11055
211.535	419.98944
212.08	463.07677
212.625	421.04737
213.17	434.08309
213.715	450.02196
214.259	442.02158
214.804	413.00353
215.348	407.92677
215.892	432.02289
216.436	421.97218
216.98	454.0052
217.524	379.89918
218.068	438.099
218.612	406.01236
219.155	350.83055
219.698	421.99801
220.242	411.01206
220.785	404.93757
221.328	385.94915
221.871	375.93639
222.414	357.88758
222.956	398.96836
223.499	338.77108
224.041	359.84024
224.583	347.74695
225.126	346.77085
225.668	349.84744
226.21	384.95868
226.751	329.73859
227.293	379.87696
227.835	372.91324
228.376	357.82475
228.918	388.97251
229.459	385.95612
230	343.81786
230.541	409.95423
231.082	359.8583
231.622	366.84201
232.163	359.87236
232.704	374.91848
233.244	335.8323
233.784	375.91225
234.324	398.89291
234.864	372.8476
235.404	353.83944
235.944	340.80714
236.484	389.95125
237.023	421.99301
237.563	377.87164
238.102	335.78746
238.641	409.02004
239.18	374.8827
239.719	359.8971
240.258	353.80156
240.797	390.93541
241.335	372.90817
241.874	442.86688
242.412	408.98266
242.95	368.88333
243.488	437.99466
244.026	381.87599
244.564	422.87067
245.102	390.87712
245.64	388.92212
246.177	400.90145
246.715	412.98214
247.252	366.8447
247.789	430.81546
248.326	402.96968
248.863	434.95764
249.4	431.97347
249.936	387.80008
250.473	422.98319
251.009	407.94098
251.546	462.00593
252.082	377.83242
252.618	411.91089
253.154	418.00223
253.69	367.82625
254.226	406.9608
254.761	471.05785
255.297	378.82782
255.832	353.83331
256.367	381.90253
256.903	348.76502
257.438	402.93698
257.972	463.02537
258.507	400.92572
259.042	445.97102
259.576	426.93056
260.111	427.97779
260.645	378.81489
261.179	419.9691
261.713	435.97249
262.247	460.05104
262.781	412.87293
263.315	397.97224
263.849	434.07292
264.382	384.87918
264.915	480.11659
265.449	480.16816
265.982	487.09429
266.515	422.00801
267.048	358.78237
267.58	477.02963
268.113	437.9459
268.646	497.19855
269.178	436.97291
269.71	445.97143
270.243	379.86512
270.775	440.09056
271.307	472.10744
271.838	432.99935
272.37	454.09325
272.902	470.0502
273.433	392.85087
273.965	401.96927
274.496	416.00725
275.027	442.07514
275.558	453.0791
276.089	448.09219
276.62	469.16065
277.15	426.0199
277.681	497.06647
278.211	412.97424
278.741	449.98845
279.272	455.0231
279.802	468.13297
280.332	445.03443
280.861	451.06693
281.391	434.97685
281.921	468.10359
282.45	467.14007
282.98	451.14604
283.509	430.95556
284.038	451.01575
284.567	460.04176
285.096	482.14061
285.625	490.09902
286.153	416.96159
286.682	477.07266
287.21	479.12979
287.739	482.12214
288.267	482.1393
288.795	460.15636
289.323	526.21077
289.851	525.20294
290.378	509.12041
290.906	462.10163
291.433	490.17741
291.961	485.07731
292.488	480.15597
293.015	504.16606
293.542	531.30278
294.069	479.13896
294.596	505.20134
295.122	516.19433
295.649	472.01991
296.175	524.24254
296.702	510.19301
297.228	545.26728
297.754	554.2265
298.28	505.1246
298.806	518.20513
299.332	515.1232
299.857	562.22406
300.383	534.29395
300.908	502.18756
301.433	471.10874
301.958	562.23803
302.483	535.28691
303.008	494.183
303.533	534.31955
304.058	534.21894
304.582	548.25445
305.107	536.34911
305.631	585.26802
306.155	595.33133
306.679	523.17532
307.203	554.24483
307.727	572.29845
308.251	569.34237
308.775	588.34451
309.298	557.30234
309.822	588.41372
310.345	604.37892
310.868	632.42842
311.391	569.33407
311.914	602.43592
312.437	625.35772
312.96	601.34864
313.482	583.31783
314.005	578.38598
314.527	647.59871
315.049	582.38341
315.571	649.39377
316.093	676.57312
316.615	608.40254
317.137	639.32511
317.659	717.63218
318.18	629.41904
318.702	667.44844
319.223	737.44628
319.744	689.46008
320.265	671.53171
320.786	699.62316
321.307	711.64519
321.828	771.62549
322.348	742.63295
322.869	747.66009
323.389	513.76707
323.909	677.45771
324.43	784.71246
324.95	775.64036
325.47	738.66682
325.989	717.57559
326.509	839.69704
327.029	790.62953
327.548	805.66087
328.067	870.91077
328.587	818.84306
329.106	775.59462
329.625	824.93861
330.144	831.75974
330.662	848.75475
331.181	903.8857
331.7	895.88793
332.218	948.83871
332.736	902.8915
333.255	931.92106
333.773	939.95573
334.291	948.0612
334.808	1014.99771
335.326	1017.0082
335.844	949.96521
336.361	1013.23281
336.879	1069.17788
337.396	1019.12549
337.913	1084.12534
338.43	1021.99883
338.947	1039.1119
339.464	1019.9068
339.981	1073.17915
340.497	1048.19424
341.014	1123.32207
341.53	1111.09118
342.046	1092.2584
342.562	1128.37329
343.078	1159.28599
343.594	1156.30075
344.11	1167.29002
344.626	1183.47555
345.141	1213.25484
345.657	1190.20051
346.172	1229.42432
346.687	1198.2867
347.202	1239.27271
347.717	1249.43408
348.232	1263.55863
348.747	1251.3486
349.261	1309.31434
349.776	1312.47006
350.29	1262.5514
350.805	1407.76707
351.319	1394.56634
351.833	1366.4162
352.347	1354.50234
352.861	1393.52065
353.374	1417.49587
353.888	1432.67966
354.401	1355.4541
354.915	1478.53878
355.428	1405.71177
355.941	1482.64799
356.454	1500.52652
356.967	1487.64412
357.48	1547.62932
357.993	1509.80703
358.505	1458.71118
359.018	1541.81767
359.53	1566.83296
360.042	1586.57085
360.554	1523.74721
361.066	1532.81021
361.578	1599.51239
362.09	1591.75788
362.602	1573.53615
363.113	1611.75341
363.625	1651.67345
364.136	1615.56096
364.647	1732.90476
365.158	1703.78447
365.669	1741.91606
366.18	1720.83958
366.691	1693.62988
367.201	1737.92807
367.712	1758.79569
368.222	1726.7659
368.733	1953.83205
369.243	1839.76312
369.753	1900.98361
370.263	1922.08639
370.773	1845.05125
371.282	1881.98777
371.792	2057.09573
372.301	2060.19408
372.811	2015.40769
373.32	2058.71208
373.829	2145.13655
374.338	2240.89394
374.847	2334.10945
375.356	2335.20034
375.865	2462.74055
376.373	2583.04535
376.882	2642.51845
377.39	2654.29271
377.898	2693.41275
378.407	2872.92725
378.915	2996.69518
379.423	3030.12397
379.93	3181.82462
380.438	3302.22874
380.946	3536.9605
381.453	3593.98452
381.96	3796.80075
382.468	4099.64619
382.975	4272.56083
383.482	4382.97157
383.989	4441.74111
384.495	4600.98122
385.002	4802.39605
385.509	5143.80083
386.015	5439.69297
386.521	5699.1636
387.028	5886.95645
387.534	6116.7231
388.04	6229.99664
388.546	6418.73754
389.051	6721.62564
389.557	7320.98462
390.063	8009.62914
390.568	8116.79932
391.073	8457.29844
391.578	8873.1129
392.084	8923.34161
392.589	9126.03475
393.093	9992.66516
393.598	10792.55161
394.103	11879.83952
394.607	13054.25899
395.112	14111.47628
395.616	14692.09765
396.12	16076.22743
396.624	17788.44768
397.128	19169.27665
397.632	21344.99396
398.136	23103.28162
398.639	24359.70773
399.143	27283.67657
399.646	30884.12942
400.15	33526.78136
400.653	37437.56073
401.156	41847.16898
401.659	48017.95643
402.162	56569.67573
402.664	54027.52159
403.167	49329.08451
403.67	22278.45323
404.172	2696.20453
404.674	0
405.176	0
405.678	0
406.18	0
406.682	0
407.184	0
407.686	25783.58453
408.187	43316.52985
408.688	51225.60928
409.19	54389.01922
409.691	56215.4214
410.192	57270.57019
410.693	57845.40442
411.194	58219.2365
411.694	58633.01717
412.195	59215.68848
412.696	57707.55818
413.196	54178.75349
413.696	53722.85034
414.196	54569.43978
414.696	53725.08076
415.196	51221.2614
415.696	46345.82829
416.196	36773.37312
416.695	28480.325
417.195	24890.61356
417.694	23715.19157
418.194	22445.28871
418.693	20906.53391
419.192	20515.13772
419.691	20125.12928
420.19	19581.71587
420.688	19089.12899
421.187	18306.96532
421.685	17174.93162
422.184	15570.12167
422.682	13140.44737
423.18	11381.62924
423.678	10064.94429
424.176	9401.58181
424.674	8887.24598
425.172	8513.40531
425.669	7918.62987
426.167	7524.18562
426.664	6845.85684
427.161	6135.84086
427.659	5827.38051
428.156	5450.85467
428.652	5142.14201
429.149	4863.04016
429.646	4684.64636
430.143	4492.24167
430.639	4207.39408
431.135	3998.93247
431.632	3783.53005
432.128	3521.95467
432.624	3335.4263
433.12	3251.74237
433.616	3111.61289
434.111	2968.04899
434.607	2918.15269
435.103	2867.515
435.598	2788.53026
436.093	2731.09039
436.588	2516.78761
437.083	2368.84424
437.578	2290.97453
438.073	2220.33728
438.568	2083.11724
439.062	2117.66553
439.557	1928.90153
440.051	1919.74302
440.546	1803.70984
441.04	1825.94672
441.534	1828.16332
442.028	1787.87031
442.522	1682.80507
443.015	1711.53779
443.509	1699.90029
444.002	1680.88962
444.496	1606.49545
444.989	1566.73629
445.482	1596.85415
445.975	1628.65564
446.468	1531.36199
446.961	1552.41348
447.454	1497.4504
447.947	1459.59941
448.439	1357.45897
448.931	1424.42999
449.424	1417.66768
449.916	1465.66483
450.408	1391.37525
450.9	1315.49317
451.392	1336.59603
451.884	1301.30369
452.375	1337.6096
452.867	1274.2307
453.358	1261.26019
453.849	1277.11116
454.341	1227.19341
454.832	1221.08687
455.323	1228.38576
455.814	1235.25744
456.304	1209.21418
456.795	1192.19331
457.285	1084.95358
457.776	1146.09056
458.266	1087.12474
458.756	1105.14782
459.247	1052.09244
459.737	1089.16367
460.226	1115.06499
460.716	1001.03453
461.206	1029.07451
461.695	979.04914
462.185	957.8963
462.674	999.9649
463.163	916.72594
463.653	982.77563
464.142	922.91733
464.63	968.02475
465.119	913.81406
465.608	921.84865
466.096	869.65204
466.585	912.81418
467.073	828.72707
467.561	842.76327
468.05	850.72833
468.538	841.80415
469.026	812.71537
469.513	988.9255
470.001	789.58488
470.489	782.66203
470.976	750.56008
471.463	738.64042
471.951	720.60633
472.438	678.4483
472.925	643.37672
473.412	661.46398
473.899	677.40464
474.385	683.51275
474.872	649.4135
475.359	663.48851
475.845	654.26353
476.331	585.15838
476.817	600.34391
477.303	598.2899
477.789	632.40056
478.275	546.26237
478.761	585.31807
479.247	619.30357
479.732	552.2924
480.218	534.29927
480.703	564.31074
481.188	528.0763
481.673	536.16241
482.158	523.08132
482.643	523.23373
483.128	466.02452
483.612	496.1011
484.097	456.05149
484.581	425.94818
485.066	496.15115
485.55	436.93829
486.034	401.84127
486.518	490.11027
487.002	467.11081
487.486	431.01285
487.969	481.13145
488.453	360.87528
488.936	445.98417
489.42	388.83645
489.903	361.87919
490.386	350.58622
490.869	301.65434
491.352	398.94005
491.835	369.7591
492.318	429.96816
492.8	388.80376
493.283	403.00032
493.765	341.82926
494.247	371.84823
494.73	348.76599
495.212	351.83116
495.694	350.80907
496.175	369.87276
496.657	322.75558
497.139	387.68543
497.62	379.88877
498.102	314.77203
498.583	294.72714
499.064	307.7008
499.545	316.7241
500.026	345.77514
500.507	313.7283
500.988	321.79404
501.469	329.82037
501.949	338.82765
502.43	283.68077
502.91	340.71882
503.39	235.58539
503.87	283.67715
504.35	225.5349
504.83	272.61077
505.31	263.63746
505.79	289.70047
506.269	299.70614
506.749	281.64921
507.228	298.70855
507.707	288.64749
508.187	247.58832
508.666	318.78273
509.145	258.61793
509.623	280.65807
510.102	288.70079
510.581	270.64741
511.059	338.84143
511.538	296.75558
512.016	339.81606
512.494	332.8033
512.972	269.64489
513.45	329.77306
513.928	353.86132
514.406	314.76975
514.884	307.78709
515.361	381.90844
515.839	381.86933
516.316	378.90423
516.793	334.83631
517.27	341.81123
517.747	348.88389
518.224	373.86547
518.701	405.91103
519.178	325.79715
519.654	349.82259
520.131	336.82184
520.607	316.77695
521.083	365.83451
521.56	325.77852
522.036	335.74557
522.512	322.77852
522.987	337.8051
523.463	376.89498
523.939	322.78673
524.414	315.73006
524.89	310.73849
525.365	307.70927
525.84	339.81946
526.315	307.74771
526.79	329.7501
527.265	275.64821
527.74	238.5878
528.215	310.7416
528.689	245.56109
529.164	226.5054
529.638	319.8187
530.112	270.65209
530.587	238.53026
531.061	236.582
531.534	209.51192
532.008	237.58371
532.482	184.43011
532.956	215.55473
533.429	244.59951
533.903	252.56796
534.376	228.51828
534.849	272.64301
535.322	262.62895
535.795	263.64845
536.268	201.49141
536.741	232.5654
537.213	192.45759
537.686	234.58364
538.158	209.48307
538.631	208.51164
539.103	218.50997
539.575	207.44541
540.047	215.48804
540.519	222.54385
540.991	215.53382
541.463	242.59592
541.934	218.51497
542.406	224.54875
542.877	294.68288
543.348	225.55478
543.82	226.55816
544.291	272.64077
544.762	190.46236
545.233	286.7208
545.703	254.57948
546.174	315.73988
546.645	233.57344
547.115	287.70449
547.585	264.61781
548.056	274.67992
548.526	334.80022
548.996	262.63539
549.466	277.67718
549.935	294.70709
550.405	308.68876
550.875	310.73877
551.344	350.84333
551.814	387.89298
552.283	326.70883
552.752	380.88851
553.221	397.88719
553.69	411.90292
554.159	403.9873
554.628	362.82083
555.096	461.1483
555.565	479.05823
556.033	406.94444
556.502	396.9498
556.97	369.82293
557.438	341.80842
557.906	396.92953
558.374	416.9486
558.842	386.91207
559.31	431.95957
559.777	381.91262
560.245	466.07545
560.712	436.00369
561.18	562.22561
561.647	506.1075
562.114	528.17274
562.581	499.18613
563.048	579.28272
563.514	577.35337
563.981	629.36236
564.448	648.38475
564.914	659.45228
565.381	737.55714
565.847	722.58227
566.313	804.72289
566.779	715.48621
567.245	802.7282
567.711	842.84539
568.176	833.71869
568.642	875.98631
569.108	961.10315
569.573	1008.11317
570.038	1048.95395
570.504	990.9449
570.969	1130.45306
571.434	1147.19701
571.899	1204.43399
572.363	1211.3188
572.828	1303.43578
573.293	1255.3998
573.757	1347.49367
574.222	1421.58189
574.686	1424.61268
575.15	1448.75066
575.614	1457.65154
576.078	1474.76926
576.542	1491.66889
577.006	1482.63182
577.469	1451.85243
577.933	1527.72531
578.396	1495.76727
578.86	1501.78389
579.323	1506.86938
579.786	1502.53399
580.249	1437.66479
580.712	1446.81551
581.175	1398.78577
581.637	1403.54522
582.1	1467.55506
582.563	1332.31091
583.025	1329.6487
583.487	1361.23982
583.95	1282.3255
584.412	1327.2871
584.874	1255.5102
585.336	1198.39108
585.797	1229.22059
586.259	1140.29397
586.721	1098.22042
587.182	1121.21914
587.643	1081.12193
588.105	1092.24537
588.566	1012.85416
589.027	1027.18369
589.488	1006.02297
589.949	1015.15349
590.41	934.64578
590.87	943.89285
591.331	947.8032
591.791	972.01884
592.252	846.78568
592.712	938.9955
593.172	895.84177
593.632	869.74657
594.092	814.67758
594.552	815.62439
595.011	819.7313
595.471	803.63452
595.931	754.56146
596.39	822.82117
596.849	824.76425
597.308	782.57693
597.768	811.90619
598.227	842.81908
598.685	784.63377
599.144	819.75317
599.603	822.79475
600.062	842.64915
600.52	802.658
600.978	822.7698
601.437	852.75282
601.895	849.639
602.353	858.72009
602.811	996.98329
603.269	903.95713
603.727	950.04551
604.184	1027.05914
604.642	989.14454
605.099	993.02464
605.557	1094.3037
606.014	1058.02565
606.471	1086.36447
606.928	1131.1362
607.385	1167.47091
607.842	1184.26426
608.299	1284.49479
608.755	1211.46648
609.212	1249.29797
609.668	1330.43719
610.125	1361.67023
610.581	1405.65144
611.037	1331.46639
611.493	1320.53951
611.949	1446.86966
612.405	1403.23341
612.861	1454.69709
613.316	1435.7449
613.772	1457.67279
614.227	1492.80182
614.683	1491.47687
615.138	1412.65115
615.593	1494.73344
616.048	1502.65659
616.503	1446.81155
616.958	1499.99208
617.412	1442.70896
617.867	1392.47381
618.321	1438.34988
618.776	1416.50763
619.23	1387.6085
619.684	1405.53349
620.138	1378.55691
620.592	1416.76863
621.046	1334.52623
621.5	1340.69088
621.954	1283.37364
622.407	1307.374
622.861	1246.51787
623.314	1214.29841
623.768	1238.40863
624.221	1210.00802
624.674	1128.21386
625.127	1119.2275
625.58	1164.22912
626.033	1125.0846
626.485	1030.15651
626.938	1075.20198
627.39	1138.26487
627.843	1098.18108
628.295	973.96657
628.747	982.05318
629.199	953.92084
629.651	939.90731
630.103	952.94908
630.555	882.67314
631.006	836.77534
631.458	894.8994
631.909	870.77305
632.361	772.6564
632.812	805.71132
633.263	773.52559
633.714	784.52527
634.165	818.82282
634.616	812.76992
635.067	727.47495
635.518	739.62057
635.968	696.29537
636.419	738.48129
636.869	753.63328
637.319	647.40556
637.769	649.37881
638.219	628.38418
638.669	612.38037
639.119	662.51934
639.569	582.32758
640.019	632.3645
640.468	542.15945
640.918	581.31224
641.367	574.22695
641.816	589.26259
642.265	589.2881
642.714	579.26727
643.163	608.34117
643.612	598.39421
644.061	580.20393
644.51	589.30815
644.958	561.18437
645.406	593.35025
645.855	577.34757
646.303	566.25622
646.751	620.35341
647.199	579.2534
647.647	552.218
648.095	625.37383
648.543	595.16667
648.99	551.24643
649.438	640.4136
649.885	588.38107
650.333	572.07895
650.78	594.37945
651.227	626.45898
651.674	581.25559
652.121	564.30197
652.568	597.38342
653.015	602.42222
653.461	552.25705
653.908	615.35918
654.354	558.26049
654.801	585.31054
655.247	633.31907
655.693	586.45293
656.139	559.28555
656.585	513.17681
657.031	602.34563
657.477	599.24426
657.922	585.29226
658.368	552.29794
658.813	547.20116
659.259	588.34721
659.704	561.24279
660.149	575.29287
660.594	586.32758
661.039	612.32127
661.484	566.27547
661.929	601.32875
662.373	622.49948
662.818	606.43333
663.262	582.33398
663.707	613.4619
664.151	566.31746
664.595	578.3158
665.039	603.41881
665.483	593.43141
665.927	575.28178
666.371	649.42186
666.814	619.38964
667.258	620.41606
667.701	667.33705
668.145	632.47355
668.588	619.42142
669.031	659.4759
669.474	629.42423
669.917	627.30019
670.36	662.54475
670.803	670.4867
671.245	637.27094
671.688	682.52901
672.13	656.38916
672.573	634.484
673.015	693.55401
673.457	697.41337
673.899	684.52157
674.341	682.53089
674.783	715.57974
675.225	703.58483
675.666	766.71534
676.108	751.48835
676.549	731.58217
676.991	828.67286
677.432	878.60412
677.873	810.68128
678.314	841.80957
678.755	763.69707
679.196	808.67936
679.637	824.79609
680.078	799.67426
680.518	875.8022
680.959	897.92764
681.399	911.01199
681.839	861.86687
682.28	860.90143
682.72	938.89966
683.16	894.95282
683.6	962.88805
684.039	908.65822
684.479	984.11067
684.919	976.99735
685.358	999.19187
685.798	994.26582
686.237	1042.1587
686.676	1085.09391
687.115	1090.15315
687.554	1091.17768
687.993	1119.05498
688.432	1135.17085
688.871	1141.18654
689.309	1133.25854
689.748	1151.9406
690.186	1223.36425
690.625	1202.29766
691.063	1288.50847
691.501	1246.48361
691.939	1295.59625
692.377	1291.53147
692.815	1383.61991
693.253	1378.61482
693.69	1424.43257
694.128	1427.73217
694.565	1490.70981
695.003	1517.96302
695.44	1529.73584
695.877	1591.81989
696.314	1553.43664
696.751	1597.64998
697.188	1604.73339
697.625	1651.73139
698.061	1656.94699
698.498	1666.93018
698.934	1781.08055
699.371	1745.97784
699.807	1823.01613
700.243	1814.11276
700.679	1878.91851
701.115	1883.01374
701.551	1904.06902
701.987	1937.94703
702.422	1939.17895
702.858	1940.11739
703.294	1982.95613
703.729	2110.40009
704.164	2058.29682
704.599	2065.97059
705.035	2206.14396
705.47	2108.45867
705.904	2172.2923
706.339	2144.06282
706.774	2229.26807
707.209	2200.20821
707.643	2274.42621
708.078	2240.53957
708.512	2270.66001
708.946	2296.32962
709.38	2334.34351
709.814	2315.16008
710.248	2286.42866
710.682	2387.43505
711.116	2323.48034
711.549	2346.75359
711.983	2357.27217
712.416	2400.37213
712.85	2413.67751
713.283	2503.46441
713.716	2446.65533
714.149	2489.39087
714.582	2448.21451
715.015	2404.57841
715.448	2387.67043
715.881	2419.95426
716.313	2392.3502
716.746	2451.42806
717.178	2407.45838
717.61	2397.65256
718.043	2442.61729
718.475	2419.45724
718.907	2412.68545
719.339	2476.26119
719.77	2390.42393
720.202	2394.68878
720.634	2449.62687
721.065	2420.41994
721.497	2451.57663
721.928	2464.6336
722.359	2340.55455
722.79	2409.5535
723.221	2343.60956
723.652	2395.7166
724.083	2382.22888
724.514	2395.25431
724.945	2323.34248
725.375	2418.41703
725.806	2337.54068
726.236	2340.70051
726.666	2320.34714
727.096	2349.5531
727.526	2306.69458
727.956	2305.15397
728.386	2318.50414
728.816	2300.65233
729.246	2335.55395
729.675	2276.55333
730.105	2309.42858
730.534	2297.2741
730.964	2274.56618
731.393	2308.46847
731.822	2234.64854
732.251	2252.59866
732.68	2261.21947
733.109	2240.45266
733.537	2278.42438
733.966	2326.637
734.395	2307.20867
734.823	2214.99847
735.251	2326.46968
735.68	2264.55819
736.108	2132.49668
736.536	2241.24104
736.964	2270.23953
737.392	2274.56618
737.82	2297.38424
738.247	2282.3327
738.675	2270.3088
739.102	2187.54447
739.53	2260.67163
739.957	2199.67944
740.384	2259.40808
740.811	2229.55834
741.238	2233.43085
741.665	2189.14492
742.092	2191.29181
742.519	2213.48737
742.945	2235.35737
743.372	2174.48165
743.798	2203.66075
744.225	2180.27399
744.651	2192.52064
745.077	2115.44304
745.503	2150.34936
745.929	2174.29922
746.355	2159.42952
746.781	2144.43097
747.207	2067.24082
747.632	2090.41387
748.058	2086.42954
748.483	2160.13343
748.908	2096.3977
749.334	2103.38958
749.759	2062.11339
750.184	2057.24131
750.609	2075.36781
751.033	2037.12808
751.458	2065.93984
751.883	1988.30198
752.307	1987.13998
752.732	1942.39019
753.156	2011.37567
753.58	2039.19442
754.005	1996.38327
754.429	1945.0952
754.853	1898.23941
755.277	1906.01618
755.7	1921.27989
756.124	1926.28592
756.548	1868.08383
756.971	1837.0626
757.394	1856.38787
757.818	1838.32661
758.241	1882.33038
758.664	1788.24692
759.087	1732.75544
759.51	1750.09367
759.933	1705.98454
760.356	1712.17023
760.778	1776.15758
761.201	1741.02184
761.623	1704.92965
762.046	1609.79365
762.468	1646.80397
762.89	1648.94762
763.312	1689.02566
763.734	1588.8268
764.156	1579.90897
764.578	1618.73694
765	1573.87356
765.421	1446.86173
765.843	1494.99231
766.264	1516.74901
766.686	1437.74742
767.107	1432.65614
767.528	1405.79524
767.949	1385.76553
768.37	1347.55277
768.791	1386.61105
769.212	1363.71905
769.632	1348.47521
770.053	1353.83516
770.473	1345.56742
770.894	1252.49215
771.314	1265.36107
771.734	1276.37641
772.154	1186.46281
772.575	1189.209
772.994	1216.22204
773.414	1194.3119
773.834	1194.44331
774.254	1206.43362
774.673	1108.22337
775.093	1064.21117
775.512	1074.20239
775.931	1066.2662
776.351	1067.21888
776.77	1010.10159
777.189	982.98432
777.607	962.11019
778.026	989.11642
778.445	906.98901
778.864	902.00407
779.282	904.89236
779.701	891.94176
780.119	956.1329
780.537	856.88709
780.955	828.83143
781.373	851.84049
781.791	778.55522
782.209	798.60997
782.627	831.96226
783.045	802.64839
783.462	741.71056
783.88	740.72346
784.297	687.57455
784.715	747.73397
785.132	690.53049
785.549	657.51176
785.966	650.49356
786.383	609.38226
786.8	641.36416
787.217	608.33222
787.633	594.37728
788.05	587.26966
788.466	518.1128
788.883	546.29576
789.299	531.19381
789.715	560.27426
790.131	563.3133
790.547	431.01364
790.963	517.21059
791.379	509.20994
791.795	493.05332
792.21	451.99618
792.626	389.88221
793.041	439.03929
793.457	478.12154
793.872	394.88829
794.287	408.94123
794.702	389.91542
795.117	411.98557
795.532	387.94038
795.947	364.84276
796.362	403.92322
796.776	367.81373
797.191	369.87647
797.605	360.83912
798.02	362.85074
798.434	299.64336
798.848	343.82694
799.262	317.7761
799.676	284.67241
800.09	346.83937
800.504	267.63253
800.918	305.6996
801.331	261.66145
801.745	297.66895
802.158	261.64258
802.572	238.56395
802.985	253.59914
803.398	238.56133
803.811	241.59902
804.224	241.58393
804.637	230.54794
805.05	208.47588
805.462	208.50578
805.875	193.49918
806.288	195.47444
806.7	178.44736
807.112	118.27388
807.525	181.44416
807.937	171.42211
808.349	231.57082
808.761	223.54336
809.173	165.39965
809.584	181.44252
809.996	202.49468
810.408	137.3568
810.819	162.38669
811.231	206.5397
811.642	240.58423
812.053	261.63095
812.464	276.65448
812.875	200.50787
813.286	166.42795
813.697	226.52226
814.108	147.35953
814.519	129.28926
814.929	163.41341
815.34	159.39278
815.75	125.32119
816.16	140.34882
816.571	85.22085
816.981	105.24973
817.391	128.31394
817.801	137.34735
818.211	80.19111
818.62	123.30273
819.03	100.24699
819.44	88.23033
819.849	132.33104
820.259	62.15906
820.668	121.30242
821.077	110.27894
821.486	84.2045
821.895	114.28064
822.304	85.22719
822.713	96.23205
823.122	101.25499
823.531	70.17092
823.939	108.26753
824.348	111.27441
824.756	75.19151
825.164	78.19731
825.573	112.28844
825.981	76.1906
826.389	102.25976
826.797	66.16612
827.205	47.11196
827.612	94.236
828.02	47.11397
828.428	79.20469
828.835	76.20256
829.243	109.2656
829.65	37.09421
830.057	80.19839
830.464	60.1489
830.871	73.17755
831.278	54.13259
831.685	99.22592
832.092	74.18545
832.499	55.12358
832.905	93.23713
833.312	114.2645
833.718	85.21475
834.124	55.12814
834.531	41.10488
834.937	35.09003
835.343	103.25229
835.749	55.12915
836.155	69.18223
836.561	45.11381
836.966	63.15683
837.372	63.16279
837.777	56.14322
838.183	28.06368
838.588	16.04024
838.993	58.14336
839.399	1.00252
839.804	17.0426
840.209	61.15958
840.613	72.16447
841.018	30.07699
841.423	31.08085
841.828	53.13733
842.232	78.19449
842.637	8.01958
843.041	55.14442
843.445	35.08972
843.849	35.0882
844.253	69.16732
844.657	67.17246
845.061	53.12411
845.465	38.0942
845.869	88.20885
846.272	44.11023
846.676	7.01724
847.079	79.20568
847.483	77.19273
847.886	26.06353
848.289	11.03
848.692	48.12362
849.095	67.16491
849.498	50.12693
849.901	37.08664
850.304	58.1422
850.707	29.07483
851.109	53.13452
851.512	62.15644
851.914	52.13592
852.316	-1.00256
852.718	-23.06146
853.121	41.10281
853.523	50.12136
853.925	77.20465
854.326	16.04075
854.728	18.04758
855.13	12.03197
855.531	60.14841
855.933	6.0146
856.334	30.07675
856.736	67.15487
857.137	0
857.538	44.11383
857.939	75.19029
858.34	49.12149
858.741	63.16627
859.142	69.16908
859.542	40.10771
859.943	54.13626
860.343	22.05591
860.744	35.08691
861.144	18.04444
861.544	35.08732
861.945	106.27498
862.345	45.11178
862.745	86.21901
863.145	84.2022
863.544	16.04126
863.944	63.15018
864.344	5.0127
864.743	55.13736
865.143	61.15898
865.542	42.10033
865.941	55.1397
866.34	71.17223
866.74	54.14578
867.139	49.12131
867.537	71.18238
867.936	51.12585
868.335	51.13205
868.734	83.21728
869.132	120.28414
869.531	28.06829
869.929	67.15837
870.327	75.18405
870.726	38.0953
871.124	45.1083
871.522	69.17829
871.92	51.12866
872.318	79.19552
872.715	15.03746
873.113	72.17959
873.511	77.19689
873.908	37.09673
874.306	47.12039
874.703	2.00511
875.1	52.13443
875.497	79.19451
875.894	30.07621
876.291	37.09234
876.688	80.21117
877.085	20.04882
877.482	42.10673
877.878	60.14781
878.275	58.15046
878.671	77.17486
879.068	57.13993
879.464	22.05442
879.86	28.06781
880.256	66.16481
880.652	60.15501
881.048	15.03777
881.444	-1.00242
881.84	69.17718
882.236	23.05881
882.631	85.2136
883.027	46.11245
883.422	39.10116
883.817	72.18704
884.213	34.08929
884.608	9.02286
885.003	21.05243
885.398	38.09831
885.793	24.06136
886.188	28.07216
886.582	0
886.977	54.13092
887.371	4.01021
887.766	30.07678
888.16	20.0509
888.554	43.10704
888.949	43.1091
889.343	59.14532
889.737	9.02479
890.131	22.05587
890.525	56.14492
890.918	-9.02304
891.312	24.05788
891.706	-8.0211
892.099	15.03848
892.492	73.16208
892.886	38.09434
893.279	42.10941
893.672	-37.09547
894.065	22.05601
894.458	69.17742
894.851	55.13657
895.244	-6.01566
895.637	29.07185
896.029	40.09949
896.422	12.02992
896.814	35.08843
897.206	-7.01721
897.599	52.12924
897.991	43.10545
898.383	68.16579
898.775	61.14055
899.167	0
899.559	20.05142
899.951	13.03142
900.342	15.03853
900.734	10.02585
901.125	40.10629
901.517	38.09578
901.908	39.09482
902.299	49.12424
902.69	77.18567
903.082	28.06921
903.473	52.12844
903.863	72.18569
904.254	48.11528
904.645	62.15628
905.036	44.10951
905.426	43.09991
905.817	71.17758
906.207	52.12773
906.597	3.00717
906.987	31.08171
907.378	-1.00257
907.768	44.11801
908.158	37.09204
908.547	28.07401
908.937	-11.02861
909.327	63.15649
909.717	41.10476
910.106	6.01478
910.495	56.14191
910.885	72.18536
911.274	37.09411
911.663	-2.00514
912.052	32.0797
912.441	-20.05185
912.83	80.18818
913.219	55.14481
913.608	22.05486
913.997	4.01035
914.385	28.06796
914.774	15.03734
915.162	64.15662
915.55	2.00495
915.939	21.05415
916.327	20.05025
916.715	40.10355
917.103	64.15836
917.491	4.01003
917.878	-61.15312
918.266	3.00784
918.654	30.07863
919.041	22.05879
919.429	33.08011
919.816	19.04877
920.203	48.11908
920.591	31.07793
920.978	-1.00247
921.365	29.07733
921.752	40.098
922.139	48.10819
922.525	76.18764
922.912	10.02485
923.299	50.12684
923.685	17.04532
924.072	-23.05409
924.458	30.07581
924.844	42.10632
925.231	16.03843
925.617	51.13242
926.003	31.08032
926.389	43.11045
926.774	-9.02338
927.16	38.09612
927.546	25.06571
927.931	38.09654
928.317	39.09115
928.702	23.05521
929.088	25.06115
929.473	53.13628
929.858	-7.01759
930.243	21.05188
930.628	95.23666
931.013	48.12142
931.398	19.04453
931.783	43.11364
932.167	53.13333
932.552	-4.01016
932.937	80.19969
933.321	55.14069
933.705	57.14631
934.09	45.11393
934.474	38.09178
934.858	1.00265
935.242	36.086
935.626	54.1412
936.009	-26.06983
936.393	14.03623
936.777	30.07828
937.16	5.01318
937.544	-3.00722
937.927	63.16324
938.311	29.07177
938.694	21.05598
939.077	39.09542
939.46	-52.12853
939.843	94.20283
940.226	2.00525
940.609	71.16951
940.991	13.03384
941.374	37.09254
941.757	7.01753
942.139	95.22081
942.522	10.02401
942.904	71.17327
943.286	3.00772
943.668	71.18599
944.05	42.1056
944.432	83.20947
944.814	2.00499
945.196	49.12335
945.578	61.15108
945.959	42.10091
946.341	4.00982
946.722	34.08138
947.104	54.13181
947.485	11.02636
947.866	47.12237
948.247	9.023
948.628	8.01977
949.009	56.14623
949.39	31.07826
949.771	82.19394
950.152	71.17797
950.532	1.00256
950.913	51.12516
951.293	26.07151
951.674	97.24208
952.054	56.14287
952.434	9.02278
952.814	23.05611
953.194	53.13903
953.574	23.05707
953.954	11.02687
954.334	72.18213
954.714	1.00252
955.093	6.01498
955.473	-12.03068
955.853	29.07589
956.232	8.02201
956.611	66.16013
956.99	8.02074
957.37	42.10899
957.749	42.10286
958.128	39.10091
958.506	30.08015
958.885	70.17965
959.264	46.11698
959.643	36.08356
960.021	67.16939
960.4	48.11221
960.778	55.13722
961.156	23.05927
961.535	23.05481
961.913	30.07202
962.291	46.12187
962.669	14.03597
963.047	-6.01558
963.424	23.05959
963.802	57.14324
964.18	52.13276
964.557	80.18723
964.935	98.23456
965.312	40.10516
965.69	48.12077
966.067	55.13672
966.444	-4.01002
966.821	24.06258
967.198	33.08125
967.575	-2.00496
967.952	34.08163
968.329	43.10685
968.705	9.01982
969.082	31.0814
969.458	62.15381
969.835	7.01741
970.211	40.10516
970.587	55.13846
970.963	57.14718
971.339	-19.05087
971.715	47.11891
972.091	34.08536
972.467	69.17414
972.843	31.07854
973.219	0
973.594	45.12071
973.97	27.06533
974.345	19.04683
974.721	0
975.096	56.1376
975.471	48.11616
975.846	13.03189
976.221	50.13038
976.596	34.08392
976.971	5.01261
977.346	1.00238
977.72	45.11672
978.095	22.05803
978.469	-23.05636
978.844	58.14593
979.218	-8.01971
979.593	33.08038
979.967	29.07201
980.341	7.01654
980.715	37.09517
981.089	10.02528
981.463	100.23687
981.837	9.02269
982.21	48.11322
982.584	-11.02742
982.957	44.11253
983.331	60.14459
983.704	-41.10225
984.078	41.10344
984.451	38.09482
984.824	36.08993
985.197	19.04701
985.57	31.07905
985.943	28.06964
986.316	93.22932
986.688	32.07828
987.061	72.17305
987.434	54.1423
987.806	31.07689
988.179	74.1788
988.551	67.17228
988.923	-5.01262
989.295	5.01251
989.667	43.10615
990.039	47.11921
990.411	24.05672
990.783	28.06589
991.155	25.06278
991.527	10.02487
991.898	42.10704
992.27	18.04534
992.641	37.09375
993.012	56.13398
993.384	2.00487
993.755	21.05494
994.126	23.05636
994.497	21.05292
994.868	52.12275
995.239	51.12497
995.61	55.14123
995.98	69.17183
996.351	10.02536
996.722	63.15145
997.092	-22.05418
997.462	22.05334
997.833	81.19339
998.203	15.03692
998.573	30.07586
998.943	48.11581
999.313	56.13755
999.683	92.22623
1000.053	62.14624
1000.423	13.03204
1000.792	82.2155
1001.162	1.00251
1001.531	88.21926
1001.901	50.12823
1002.27	34.0781
1002.639	29.07579
1003.009	-35.08557
1003.378	22.05676
1003.747	26.06358
1004.116	-13.03221
1004.485	20.04854
1004.853	41.10532
1005.222	8.02042
1005.591	14.03397
1005.959	45.10563
1006.328	3.007
1006.696	47.11683
1007.064	11.02813
1007.433	14.03557
1007.801	21.05201
1008.169	-8.02045
1008.537	98.22079
1008.905	14.03382
1009.273	48.11899
1009.64	57.1404
1010.008	54.13176
1010.375	5.01205
1010.743	54.12608
1011.11	39.09496
1011.478	4.01008
1011.845	36.0862
1012.212	38.089
1012.579	11.02742
1012.946	80.19199
1013.313	10.02418
1013.68	42.09625
1014.047	53.12987
1014.414	37.08996
1014.78	2.00506
1015.147	-7.01715
1015.513	75.18351
1015.88	34.08711
1016.246	-10.02484
1016.612	23.05333
1016.978	18.04508
1017.344	74.18619
1017.71	6.01472
1018.076	45.10752
1018.442	11.02852
1018.808	55.13965
1019.174	36.09233
1019.539	47.10786
1019.905	4.00971
1020.27	45.11373
1020.636	38.09272
1021.001	43.10435
1021.366	29.07143
1021.731	20.05162
1022.096	7.01813
1022.461	43.10372
1022.826	35.08471
1023.191	-14.03738
1023.556	26.06282
1023.92	4.00997
1024.285	34.0845
1024.649	20.05014
1025.014	45.11332
1025.378	44.11257
1025.742	20.0509
1026.107	10.02314
1026.471	14.03297
1026.835	49.12428
1027.199	71.17739
1027.562	62.14658
1027.926	37.09171
1028.29	34.08823
1028.654	35.08254
1029.017	8.0199
1029.381	-5.01232
1029.744	-10.0259
1030.107	61.14586
1030.471	19.04602
1030.834	2.00466
1031.197	12.02916
1031.56	8.01927
1031.923	18.04724
1032.286	24.0574
1032.648	90.21902
1033.011	16.0375
1033.374	23.05464
1033.736	18.04828
1034.099	89.22059
1034.461	2.00514
1034.823	17.04304
1035.185	8.02055
1035.548	20.05005
1035.91	43.10498
1036.272	-19.04423
1036.634	24.05915
1036.995	55.13277
1037.357	20.04983
1037.719	-22.05434
1038.08	26.06268
1038.442	-3.00729
1038.803	14.03424
1039.165	56.14457
1039.526	34.08361
1039.887	-14.0346
1040.248	-22.05569
1040.609	18.04472
1040.97	30.07518
1041.331	1.00258
1041.692	53.12886
1042.053	56.13044
1042.413	28.06679
1042.774	57.13993
1043.134	78.18833
1043.495	-21.05374
1043.855	50.12304
1044.215	33.08379
1044.576	55.13587
1044.936	23.05394
1045.296	25.06339
1045.656	-1.00249
1046.016	63.15271
1046.375	1.00247
1046.735	-1.00236
1047.095	22.05266
1047.454	34.0739
1047.814	52.12697
1048.173	9.02141
1048.533	3.00706
1048.892	35.08681
1049.251	26.0664
1049.61	8.02011
1049.969	71.17236
1050.328	14.03131
1050.687	35.08646
1051.046	-17.04206
1051.405	38.09695
1051.763	45.10629
1052.122	-5.01278
1052.48	-12.02978
1052.839	3.00726
1053.197	16.03882
1053.555	3.00681
1053.914	10.02466
1054.272	0
1054.63	30.07551
1054.988	20.04889
1055.345	40.08864
1055.703	23.05625
1056.061	18.04694
1056.419	30.07871
1056.776	15.03663
1057.134	64.15107
1057.491	8.02033
1057.848	-6.01511
1058.206	46.11048
1058.563	-4.0091
1058.92	-16.0375
1059.277	33.08233
1059.634	32.07647
1059.991	32.07817
1060.348	32.07477
1060.704	21.05152
1061.061	62.14499
1061.418	6.01483
1061.774	38.09551
1062.131	0
1062.487	23.05519
1062.843	21.05288
1063.199	61.15461
1063.555	43.10282
1063.911	-13.03322
1064.267	69.14579
1064.623	1.0025
1064.979	53.12678
1065.335	50.12017
1065.691	23.05594
1066.046	-40.08912
1066.402	14.03316
1066.757	14.03574
1067.112	41.10121
1067.468	88.21639
1067.823	17.042
1068.178	1.00246
1068.533	33.08158
1068.888	32.07744
1069.243	20.05021
1069.598	-2.00499
1069.952	65.1509
1070.307	68.17275
1070.662	10.02422
1071.016	-25.05829
1071.371	23.05344
1071.725	40.09691
1072.079	16.039
1072.434	40.09949
1072.788	41.09991
1073.142	58.14499
1073.496	-19.04635
1073.85	15.03525
1074.203	48.12021
1074.557	29.0782
1074.911	47.11238
1075.265	-1.00239
1075.618	35.08592
1075.971	31.07509
1076.325	29.07509
1076.678	24.05709
1077.031	16.0375
1077.385	48.10929
1077.738	15.03502
1078.091	3.00709
1078.444	46.10875
1078.796	-18.04503
1079.149	21.05285
1079.502	36.08846
1079.855	65.15519
1080.207	57.1419
1080.56	19.04981
1080.912	22.0542
1081.264	24.059
1081.617	58.1452
1081.969	47.12144
1082.321	16.03962
1082.673	21.04987
1083.025	45.1092
1083.377	-212.49458
1083.728	13.03079
1084.08	-18.04591
1084.432	48.11812
1084.783	18.04295
1085.135	9.02305
1085.486	51.12116
1085.838	18.04537
1086.189	-4.00989
1086.54	44.10628
1086.891	19.04926
1087.242	25.06142
1087.593	58.14236
1087.944	-16.03706
1088.295	56.12947
1088.646	22.05484
1088.996	-28.06939
1089.347	7.01756
1089.698	8.01951
1090.048	9.0234
1090.398	-29.06887
1090.749	35.08548
1091.099	61.1586
1091.449	27.06831
1091.799	28.07146
1092.149	56.14176
1092.499	17.0422
1092.849	43.11149
1093.199	5.01264
1093.548	30.07404
1093.898	37.09414
1094.248	20.0519
1094.597	22.05815
1094.947	20.05384
1095.296	-5.01257
1095.645	24.06314
1095.994	42.10183
1096.343	50.12706
1096.692	91.24659
1097.041	-17.04653
1097.39	97.24716
1097.739	24.06318
1098.088	42.11357
1098.437	-3.00807
1098.785	-13.03526
1099.134	33.08806
1099.482	15.04178
1099.83	13.03434
1100.179	38.10155
1100.527	-2.00537
1100.875	17.0456
1101.223	19.05097
1101.571	19.05312
1101.919	31.08332
1102.267	4.01137
1102.615	6.01935
1102.962	-4.01289
1103.31	2.00645
1103.658	13.04193
