Data from N2 R0 105C sample6_Subt2__1__12-23-10-721.txt Node

Date: Tue Aug 19 12:23:10 PDT 2025
User: uwsun
Spectrometer: HDX01956
Trigger mode: 0
Integration Time (sec): 5.000000E-1
Scans to average: 1
Nonlinearity correction enabled: true
Boxcar width: 0
Storing dark spectrum: false
XAxis mode: Wavelengths
Number of Pixels in Spectrum: 2068
>>>>>Begin Spectral Data<<<<<
194.03	495.34597
194.578	475.45994
195.127	502.5154
195.676	516.56102
196.225	541.37408
196.773	587.54116
197.321	812.06423
197.87	1107.48959
198.418	1104.45111
198.966	1162.62117
199.513	1067.31673
200.061	1069.38267
200.609	1046.42149
201.156	1052.99236
201.704	1134.48145
202.251	1064.49211
202.798	1119.52371
203.345	1150.43226
203.892	1116.42674
204.438	1114.29169
204.985	1138.34738
205.532	1143.59759
206.078	1222.53203
206.624	1179.47905
207.17	1161.29314
207.716	1121.35084
208.262	1194.93801
208.808	1145.46101
209.354	1194.47615
209.899	1161.47947
210.445	1174.51422
210.99	1148.3933
211.535	1255.47685
212.08	1196.3794
212.625	1145.47044
213.17	1162.51404
213.715	1138.22517
214.259	1182.3309
214.804	1150.40696
215.348	1124.18432
215.892	1152.34776
216.436	1191.3241
216.98	1223.27685
217.524	1111.25746
218.068	1141.49729
218.612	1090.37817
219.155	1067.17576
219.698	1103.26447
220.242	1042.26576
220.785	1029.08776
221.328	999.17723
221.871	973.15883
222.414	1027.23359
222.956	1071.27045
223.499	1013.9934
224.041	1019.07118
224.583	960.7931
225.126	991.91083
225.668	983.09635
226.21	998.20658
226.751	1004.93917
227.293	1058.11315
227.835	1021.19808
228.376	1019.03933
228.918	1038.28841
229.459	1031.2508
230	1020.11025
230.541	1072.16973
231.082	966.03565
231.622	1015.02757
232.163	964.07038
232.704	986.14029
233.244	985.1494
233.784	1088.28607
234.324	1095.10119
234.864	1016.00949
235.404	1028.12115
235.944	1047.14069
236.484	1032.21468
237.023	1090.23124
237.563	1095.16556
238.102	1044.10912
238.641	1075.35477
239.18	1034.12215
239.719	1051.28871
240.258	1065.06501
240.797	1077.23871
241.335	1081.28275
241.874	1087.80951
242.412	1038.19519
242.95	1055.19487
243.488	1067.11498
244.026	1026.05006
244.564	1059.87299
245.102	1091.09751
245.64	1039.1539
246.177	1079.09024
246.715	1059.20514
247.252	1115.18471
247.789	1041.68246
248.326	1110.31197
248.863	1114.10553
249.4	1109.1546
249.936	1084.89204
250.473	1093.20477
251.009	1158.27286
251.546	1034.98103
252.082	1164.14482
252.618	1071.04421
253.154	1117.32093
253.69	1065.05131
254.226	1085.22448
254.761	1090.13813
255.297	1073.00272
255.832	1063.15783
256.367	1088.21915
256.903	1035.94536
257.438	1124.24211
257.972	1108.12569
258.507	1164.28038
259.042	1204.20334
259.576	1131.09989
260.111	1176.28344
260.645	1090.9904
261.179	1146.26293
261.713	1152.19129
262.247	1174.29786
262.781	1152.04568
263.315	1143.4033
263.849	1136.44425
264.382	1153.22758
264.915	1213.41384
265.449	1210.5404
265.982	1225.33781
266.515	1178.40621
267.048	1178.1265
267.58	1201.19398
268.113	1178.14482
268.646	1147.42434
269.178	1186.2333
269.71	1180.17332
270.243	1198.27902
270.775	1173.51477
271.307	1149.339
271.838	1160.29063
272.37	1192.46763
272.902	1188.26321
273.433	1167.11351
273.965	1245.52212
274.496	1200.47541
275.027	1227.54408
275.558	1228.48933
276.089	1182.48482
276.62	1242.63489
277.15	1175.41032
277.681	1220.21375
278.211	1151.32617
278.741	1203.22738
279.272	1249.35398
279.802	1229.5471
280.332	1242.4335
280.861	1189.41072
281.391	1154.21098
281.921	1257.5096
282.45	1283.65323
282.98	1277.76457
283.509	1234.28214
284.038	1310.43513
284.567	1290.43088
285.096	1289.57358
285.625	1245.36125
286.153	1288.45658
286.682	1290.42026
287.21	1243.49642
287.739	1299.53767
288.267	1317.60907
288.795	1261.70921
289.323	1371.62469
289.851	1359.59421
290.378	1353.4554
290.906	1372.70001
291.433	1317.66574
291.961	1352.46654
292.488	1361.72875
293.015	1338.58401
293.542	1404.8837
294.069	1335.6509
294.596	1341.67633
295.122	1386.65538
295.649	1441.47682
296.175	1492.87666
296.702	1436.7501
297.228	1357.64996
297.754	1425.58659
298.28	1420.56777
298.806	1479.79015
299.332	1465.55954
299.857	1431.54799
300.383	1469.93079
300.908	1396.73073
301.433	1386.68199
301.958	1462.61875
302.483	1478.91706
303.008	1528.93648
303.533	1546.10371
304.058	1545.81236
304.582	1463.73585
305.107	1498.11096
305.631	1515.6405
306.155	1544.78456
306.679	1532.73636
307.203	1567.79563
307.727	1562.83847
308.251	1523.92754
308.775	1592.90914
309.298	1578.95234
309.822	1695.21627
310.345	1680.00868
310.868	1648.95957
311.391	1635.03519
311.914	1661.15607
312.437	1671.83405
312.96	1658.92053
313.482	1680.95647
314.005	1631.12408
314.527	1730.41711
315.049	1719.19182
315.571	1817.94017
316.093	1848.31146
316.615	1782.15545
317.137	1815.80075
317.659	1879.28188
318.18	1888.17813
318.702	1848.02232
319.223	1897.73936
319.744	1925.00469
320.265	1940.30829
320.786	1958.42363
321.307	1926.38975
321.828	2059.14788
322.348	2061.30628
322.869	2109.38816
323.389	2001.7538
323.909	2058.15087
324.43	2070.31816
324.95	2050.16198
325.47	2103.44943
325.989	2218.3771
326.509	2249.14132
327.029	2226.16737
327.548	2254.19649
328.067	2357.60471
328.587	2221.59648
329.106	2300.17575
329.625	2358.91264
330.144	2393.40448
330.662	2374.30574
331.181	2467.44265
331.7	2454.47797
332.218	2600.18077
332.736	2526.48325
333.255	2591.45542
333.773	2553.49882
334.291	2550.73089
334.808	2639.33425
335.326	2657.35589
335.844	2793.53924
336.361	2765.955
336.879	2857.60817
337.396	2831.67095
337.913	2875.42882
338.43	2958.34644
338.947	2954.56989
339.464	2940.1191
339.981	3029.61078
340.497	2988.74765
341.014	3045.77457
341.53	3056.25639
342.046	3064.73768
342.562	3177.88722
343.078	3222.55246
343.594	3247.59715
344.11	3280.52843
344.626	3302.92448
345.141	3434.26416
345.657	3358.223
346.172	3373.6277
346.687	3447.38652
347.202	3436.22661
347.717	3545.55214
348.232	3562.80139
348.747	3596.32752
349.261	3545.09618
349.776	3629.41735
350.29	3756.7406
350.805	3771.77104
351.319	3828.33928
351.833	3762.10242
352.347	3810.31169
352.861	3748.26872
353.374	3775.1448
353.888	3895.46422
354.401	3881.17177
354.915	4081.96568
355.428	4024.56499
355.941	4188.14243
356.454	4114.87588
356.967	3970.21858
357.48	4088.00305
357.993	4079.46861
358.505	4231.3241
359.018	4360.28345
359.53	4442.21502
360.042	4300.70273
360.554	4404.15267
361.066	4362.28852
361.578	4396.51167
362.09	4434.00525
362.602	4399.60438
363.113	4489.92499
363.625	4629.61178
364.136	4738.39019
364.647	4788.83305
365.158	4790.64853
365.669	4833.8138
366.18	4760.74319
366.691	4777.37387
367.201	4758.88629
367.712	4894.52123
368.222	4989.46137
368.733	5100.22017
369.243	5205.17353
369.753	5234.46936
370.263	5340.56435
370.773	5260.65759
371.282	5387.41813
371.792	5672.24635
372.301	5709.38486
372.811	5753.77804
373.32	5852.57015
373.829	6069.05366
374.338	6301.57651
374.847	6431.78306
375.356	6587.86981
375.865	6838.28897
376.373	7059.60775
376.882	7360.13052
377.39	7324.89513
377.898	7615.10122
378.407	8006.99878
378.915	8377.32161
379.423	8655.86962
379.93	8912.22104
380.438	9397.25094
380.946	9891.51287
381.453	10214.4873
381.96	10736.41738
382.468	11464.66955
382.975	12178.5412
383.482	12384.58468
383.989	12466.9364
384.495	13092.24864
385.002	13684.96868
385.509	14393.67778
386.015	15370.40935
386.521	16158.89627
387.028	16926.5094
387.534	17596.76965
388.04	18070.42187
388.546	18462.95858
389.051	19544.87127
389.557	20895.41455
390.063	22535.48766
390.568	23128.47383
391.073	23780.51113
391.578	24941.17055
392.084	25249.18839
392.589	25949.17213
393.093	28230.61992
393.598	31229.22001
394.103	33668.70316
394.607	36965.97129
395.112	39622.52376
395.616	41936.73046
396.12	45170.38128
396.624	49649.02947
397.128	53884.15559
397.632	59640.70393
398.136	61084.05899
398.639	61520.49015
399.143	61679.31033
399.646	61269.15804
400.15	60904.11498
400.653	60560.14334
401.156	60136.25446
401.659	59550.50961
402.162	58431.12733
402.664	54480.21957
403.167	49329.08451
403.67	22278.45323
404.172	2696.20453
404.674	0
405.176	0
405.678	0
406.18	0
406.682	0
407.184	0
407.686	25783.58453
408.187	43316.52985
408.688	51225.60928
409.19	54389.01922
409.691	56215.4214
410.192	57270.57019
410.693	57845.40442
411.194	58219.2365
411.694	58633.01717
412.195	59215.68848
412.696	59364.60701
413.196	59341.61941
413.696	59632.46864
414.196	59367.6054
414.696	59763.40624
415.196	59913.34014
415.696	60584.13941
416.196	61381.18813
416.695	61808.38326
417.195	62018.52935
417.694	61837.40139
418.194	62001.51623
418.693	59488.4206
419.192	58252.22913
419.691	57350.30511
420.19	56275.70492
420.688	54995.4599
421.187	52688.72443
421.685	48947.73184
422.184	43817.63111
422.682	37311.23327
423.18	31868.92016
423.678	28760.66661
424.176	26467.50793
424.674	25077.74654
425.172	23863.55393
425.669	22512.4445
426.167	20922.25112
426.664	19022.16719
427.161	17491.81539
427.659	16221.62981
428.156	15171.67417
428.652	14414.04462
429.149	13968.75992
429.646	13467.74122
430.143	12581.34031
430.639	11959.52395
431.135	11162.05355
431.632	10660.29296
432.128	9951.69
432.624	9454.39483
433.12	9136.66004
433.616	8846.06665
434.111	8574.72346
434.607	8243.36152
435.103	8066.8541
435.598	7717.51038
436.093	7469.75318
436.588	6999.35249
437.083	6720.41519
437.578	6425.63078
438.073	6292.2086
438.568	5981.11428
439.062	5810.48191
439.557	5663.06816
440.051	5443.92126
440.546	5259.09514
441.04	5153.55378
441.534	5154.95594
442.028	5007.55232
442.522	4939.64193
443.015	4825.14618
443.509	4808.8735
444.002	4686.95667
444.496	4510.40354
444.989	4530.96294
445.482	4475.17374
445.975	4487.69585
446.468	4393.33006
446.961	4288.45399
447.454	4241.65906
447.947	4282.04697
448.439	4093.08724
448.931	4161.81603
449.424	4100.39747
449.916	4017.29744
450.408	3927.88257
450.9	3918.36603
451.392	3799.58651
451.884	3774.01508
452.375	3687.64807
452.867	3608.9795
453.358	3613.08302
453.849	3531.72674
454.341	3497.05979
454.832	3483.83081
455.323	3400.535
455.814	3456.19789
456.304	3382.19174
456.795	3299.21124
457.285	3272.97183
457.776	3281.11214
458.266	3263.40554
458.756	3135.41071
459.247	3103.47036
459.737	3057.51143
460.226	3059.18017
460.716	2938.52251
461.206	2893.50927
461.695	2900.65233
462.185	2852.32765
462.674	2838.33832
463.163	2756.0313
463.653	2911.91605
464.142	2679.50734
464.63	2753.6112
465.119	2560.24594
465.608	2634.31984
466.096	2552.99737
466.585	2547.24704
467.073	2476.36083
467.561	2467.39165
468.05	2460.25822
468.538	2366.46473
469.026	2370.36362
469.513	2458.20927
470.001	2212.04696
470.489	2316.33718
470.976	2218.1615
471.463	2153.4103
471.951	2064.34879
472.438	2112.15126
472.925	1988.05073
473.412	1973.19662
473.899	1955.93332
474.385	1959.20513
474.872	1930.08391
475.359	1902.19851
475.845	1838.58071
476.331	1792.57966
476.817	1719.97348
477.303	1741.85188
477.789	1690.92985
478.275	1638.96976
478.761	1653.91841
479.247	1682.73092
479.732	1639.02182
480.218	1625.1421
480.703	1564.91895
481.188	1497.39373
481.673	1518.61203
482.158	1488.42415
482.643	1431.78036
483.128	1403.48386
483.612	1468.60684
484.097	1364.57821
484.581	1320.3983
485.066	1363.6218
485.55	1260.23136
486.034	1198.07194
486.518	1344.51942
487.002	1323.62824
487.486	1203.40163
487.969	1227.46649
488.453	1150.37427
488.936	1182.2095
489.42	1139.05845
489.903	1153.38417
490.386	1104.47651
490.869	1131.02325
491.352	1101.24014
491.835	1054.8347
492.318	1116.16157
492.8	1072.88182
493.283	1067.32552
493.765	987.10308
494.247	970.94755
494.73	1003.90263
495.212	987.04414
495.694	943.91978
496.175	940.97382
496.657	928.91614
497.139	937.42462
497.62	858.82051
498.102	890.95062
498.583	855.89234
499.064	899.80445
499.545	864.75921
500.026	870.74176
500.507	866.79202
500.988	842.8794
501.469	825.86753
501.949	841.86289
502.43	849.81898
502.91	792.50725
503.39	774.73468
503.87	862.83058
504.35	778.64922
504.83	788.5796
505.31	779.70118
505.79	788.727
506.269	768.64569
506.749	756.57885
507.228	747.61957
507.707	779.57268
508.187	758.62495
508.666	796.78254
509.145	750.62436
509.623	664.441
510.102	738.64109
510.581	719.57338
511.059	725.67428
511.538	708.67215
512.016	778.71365
512.494	715.60206
512.972	683.50522
513.45	706.53419
513.928	722.63729
514.406	714.61717
514.884	777.82345
515.361	752.66257
515.839	717.52278
516.316	730.62598
516.793	652.53568
517.27	689.52668
517.747	703.66961
518.224	701.51847
518.701	736.54111
519.178	669.53327
519.654	655.44948
520.131	630.45391
520.607	693.58196
521.083	668.43185
521.56	681.5177
522.036	694.42746
522.512	607.38606
522.987	677.5094
523.463	665.4924
523.939	619.42596
524.414	634.37408
524.89	615.3767
525.365	663.42081
525.84	649.47432
526.315	649.4767
526.79	644.37263
527.265	667.44967
527.74	582.34357
528.215	623.39863
528.689	646.35783
529.164	640.30679
529.638	633.53205
530.112	553.26161
530.587	556.15506
531.061	576.32865
531.534	546.25087
532.008	594.36369
532.482	566.22131
532.956	548.3289
533.429	590.35396
533.903	582.22098
534.376	542.15145
534.849	589.30436
535.322	570.28554
535.795	568.31901
536.268	542.23822
536.741	583.32479
537.213	580.27667
537.686	577.34652
538.158	547.17697
538.631	536.23579
539.103	572.24271
539.575	573.13404
540.047	585.22593
540.519	584.33161
540.991	585.35131
541.463	607.39106
541.934	566.24425
542.406	573.30992
542.877	602.31074
543.348	611.39632
543.82	588.35259
544.291	608.33614
544.762	547.23937
545.233	654.53622
545.703	613.29488
546.174	635.39583
546.645	619.41178
547.115	662.50903
547.585	633.37162
548.056	718.63347
548.526	708.57239
548.996	723.59809
549.466	720.61162
549.935	831.7911
550.405	785.58046
550.875	807.73638
551.344	788.73786
551.814	841.76234
552.283	820.5939
552.752	860.81842
553.221	937.85835
553.69	892.75955
554.159	939.06528
554.628	957.90511
555.096	885.03298
555.565	938.87546
556.033	848.79771
556.502	815.79556
556.97	844.6951
557.438	725.58852
557.906	798.72324
558.374	775.63679
558.842	735.61652
559.31	735.53122
559.777	708.58734
560.245	791.70848
560.712	817.7391
561.18	817.6864
561.647	847.72183
562.114	808.69127
562.581	818.82582
563.048	831.7452
563.514	881.94423
563.981	892.8245
564.448	905.82734
564.914	954.97338
565.381	1015.01357
565.847	1021.0959
566.313	1113.22576
566.779	1033.99669
567.245	1112.23652
567.711	1083.25219
568.176	1121.16355
568.642	1175.504
569.108	1253.57508
569.573	1376.65379
570.038	1373.35682
570.504	1342.42005
570.969	1461.95082
571.434	1462.59214
571.899	1542.88056
572.363	1532.71131
572.828	1633.81046
573.293	1667.87841
573.757	1624.80442
574.222	1694.87106
574.686	1759.96388
575.15	1771.10626
575.614	1761.9657
576.078	1868.17936
576.542	1895.05179
577.006	1849.98259
577.469	1873.32531
577.933	1890.06813
578.396	1896.16962
578.86	1898.18321
579.323	1982.35397
579.786	1883.86197
580.249	1919.14578
580.712	1830.24597
581.175	1842.30064
581.637	1781.93083
582.1	1879.93096
582.563	1812.75978
583.025	1765.16901
583.487	1767.59386
583.95	1770.82607
584.412	1756.69369
584.874	1712.06942
585.336	1703.00928
585.797	1624.6476
586.259	1616.90329
586.721	1566.83438
587.182	1525.73974
587.643	1533.69569
588.105	1514.82257
588.566	1402.32107
589.027	1398.73593
589.488	1430.60026
589.949	1435.7698
590.41	1349.12492
590.87	1278.36845
591.331	1285.24829
591.791	1329.5441
592.252	1327.50748
592.712	1253.48323
593.172	1288.41768
593.632	1270.31874
594.092	1197.25572
594.552	1229.21609
595.011	1162.27219
595.471	1127.12552
595.931	1146.16618
596.39	1175.41139
596.849	1132.26226
597.308	1139.10957
597.768	1121.474
598.227	1058.17925
598.685	1084.10841
599.144	1134.2621
599.603	1137.31662
600.062	1116.04485
600.52	1124.15646
600.978	1096.22039
601.437	1082.11047
601.895	1105.00287
602.353	1110.09592
602.811	1148.20473
603.269	1130.32983
603.727	1183.42132
604.184	1110.18356
604.642	1136.38701
605.099	1112.2069
605.557	1242.5314
606.014	1267.30571
606.471	1203.55488
606.928	1321.38143
607.385	1381.7891
607.842	1436.58243
608.299	1392.63637
608.755	1344.65588
609.212	1383.46089
609.668	1394.51421
610.125	1431.76206
610.581	1423.67381
611.037	1414.56719
611.493	1326.54744
611.949	1383.78429
612.405	1367.19787
612.861	1376.60096
613.316	1302.56918
613.772	1422.63105
614.227	1400.68738
614.683	1420.4038
615.138	1351.57396
615.593	1372.58585
616.048	1361.49358
616.503	1428.78822
616.958	1328.75424
617.412	1368.61581
617.867	1356.4318
618.321	1391.30211
618.776	1339.41768
619.23	1350.56155
619.684	1370.492
620.138	1299.45681
620.592	1263.55747
621.046	1263.43249
621.5	1275.59815
621.954	1239.31693
622.407	1178.20848
622.861	1187.43061
623.314	1198.27682
623.768	1144.27473
624.221	1155.94632
624.674	1167.26968
625.127	1106.20818
625.58	1098.1357
626.033	1074.01494
626.485	1032.15975
626.938	1078.20664
627.39	1000.05318
627.843	974.99146
628.295	980.97757
628.747	994.07282
629.199	1003.99863
629.651	929.89126
630.103	906.87402
630.555	906.70874
631.006	916.91159
631.458	861.84233
631.909	847.73511
632.361	807.71855
632.812	802.70605
633.263	763.50935
633.714	770.50296
634.165	828.84131
634.616	798.74453
635.067	765.53873
635.518	752.6446
635.968	676.26431
636.419	703.4223
636.869	651.44241
637.319	706.51468
637.769	718.50272
638.219	633.39376
638.669	621.39813
639.119	659.51335
639.569	609.3817
640.019	643.38502
640.468	543.16134
640.918	631.41081
641.367	629.32872
641.816	607.29619
642.265	563.2379
642.714	532.17577
643.163	626.37574
643.612	602.40245
644.061	627.28803
644.51	645.41606
644.958	573.20657
645.406	570.30383
645.855	578.34965
646.303	529.18299
646.751	570.25725
647.199	573.24198
647.647	529.17278
648.095	599.32378
648.543	566.11729
648.99	533.21006
649.438	594.32445
649.885	604.41428
650.333	590.10808
650.78	567.32368
651.227	583.37012
651.674	515.12842
652.121	532.2358
652.568	536.25685
653.015	547.30586
653.461	553.25907
653.908	606.34177
654.354	613.3694
654.801	546.23285
655.247	576.21529
655.693	547.36576
656.139	568.30394
656.585	529.20969
657.031	517.17558
657.477	554.16215
657.922	594.30971
658.368	560.31473
658.813	548.20311
659.259	570.31062
659.704	574.2682
660.149	654.44696
660.594	576.30754
661.039	623.34189
661.484	603.3487
661.929	581.28983
662.373	644.54612
662.818	622.46667
663.262	581.33195
663.707	587.40678
664.151	615.41786
664.595	556.27126
665.039	628.47052
665.483	662.57732
665.927	601.33262
666.371	594.31626
666.814	648.44618
667.258	722.61544
667.701	680.35907
668.145	668.54656
668.588	669.52101
669.031	679.51449
669.474	660.4851
669.917	690.41094
670.36	699.61932
670.803	632.41334
671.245	715.40106
671.688	682.52901
672.13	713.49126
672.573	743.70227
673.015	765.69028
673.457	760.51919
673.899	748.64204
674.341	768.69373
674.783	778.69649
675.225	757.68788
675.666	825.82517
676.108	781.53708
676.549	820.74134
676.991	862.72811
677.432	920.66327
677.873	872.78516
678.314	910.92922
678.755	940.01274
679.196	945.9047
679.637	981.06595
680.078	949.92326
680.518	1000.00077
680.959	1018.12948
681.399	1050.25238
681.839	1110.27835
682.28	1011.16355
682.72	1066.09487
683.16	1071.2508
683.6	1095.08109
684.039	1132.95232
684.479	1189.43907
684.919	1244.39183
685.358	1231.57042
685.798	1241.68892
686.237	1284.51831
686.676	1269.34301
687.115	1344.49976
687.554	1368.55829
687.993	1405.39929
688.432	1502.62385
688.871	1442.56701
689.309	1487.72532
689.748	1468.26717
690.186	1597.81755
690.625	1596.76732
691.063	1666.96035
691.501	1645.98177
691.939	1708.10397
692.377	1796.11236
692.815	1820.0904
693.253	1821.09293
693.69	1937.87333
694.128	1952.27822
694.565	1955.1514
695.003	2091.54696
695.44	2073.21182
695.877	2083.24048
696.314	2221.85428
696.751	2277.11252
697.188	2271.21433
697.625	2346.18251
698.061	2434.50992
698.498	2456.48089
698.934	2573.57804
699.371	2587.4852
699.807	2672.46493
700.243	2773.63403
700.679	2869.29337
701.115	2880.42446
701.551	2939.48374
701.987	2985.27623
702.422	3106.60665
702.858	3148.51384
703.294	3267.21947
703.729	3286.73336
704.164	3365.62882
704.599	3454.12704
705.035	3511.25311
705.47	3653.76179
705.904	3769.41641
706.339	3667.13585
706.774	3783.32967
707.209	3881.2285
707.643	3949.46445
708.078	4067.61661
708.512	4013.79008
708.946	4180.20802
709.38	4154.21408
709.814	4249.91358
710.248	4375.26998
710.682	4459.1638
711.116	4454.27902
711.549	4419.68966
711.983	4490.92744
712.416	4647.96291
712.85	4557.45218
713.283	4658.03356
713.716	4738.29984
714.149	4706.90915
714.582	4802.62388
715.015	4719.22565
715.448	4784.34098
715.881	4715.31687
716.313	4758.87413
716.746	4912.86683
717.178	4818.99049
717.61	4762.31825
718.043	4866.17583
718.475	4797.99299
718.907	4824.32219
719.339	4777.69169
719.77	4848.93365
720.202	4731.39191
720.634	4829.20585
721.065	4731.97449
721.497	4709.19684
721.928	4643.30717
722.359	4691.25332
722.79	4699.19606
723.221	4607.3793
723.652	4598.50328
724.083	4569.80736
724.514	4449.90164
724.945	4447.0764
725.375	4409.1441
725.806	4343.41334
726.236	4265.68551
726.666	4293.16309
727.096	4195.49072
727.526	4312.68618
727.956	4213.92851
728.386	4066.49773
728.816	4009.75253
729.246	4017.57661
729.675	3946.65042
730.105	3879.46712
730.534	3892.24985
730.964	3792.72148
731.393	3830.54183
731.822	3803.8756
732.251	3782.79112
732.68	3740.25193
733.109	3680.6188
733.537	3608.56745
733.966	3669.81207
734.395	3525.27363
734.823	3447.06319
735.251	3483.62286
735.68	3464.79356
736.108	3389.83907
736.536	3490.36871
736.964	3338.37851
737.392	3233.81833
737.82	3367.54837
738.247	3375.4885
738.675	3211.48625
739.102	3141.86315
739.53	3057.96075
739.957	3096.02852
740.384	3078.6269
740.811	3045.84026
741.238	3049.67406
741.665	3046.33808
742.092	2942.52277
742.519	2932.75142
742.945	2967.57565
743.372	2942.77728
743.798	2833.95685
744.225	2779.49022
744.651	2747.77326
745.077	2759.74581
745.503	2715.5912
745.929	2754.52077
746.355	2773.69505
746.781	2572.65074
747.207	2605.49709
747.632	2550.66691
748.058	2512.67367
748.483	2526.28236
748.908	2521.63154
749.334	2551.62765
749.759	2399.28265
750.184	2423.44214
750.609	2438.57938
751.033	2415.32401
751.458	2369.07349
751.883	2289.50455
752.307	2276.31577
752.732	2305.65939
753.156	2256.54738
753.58	2267.33106
754.005	2113.47357
754.429	2174.24569
754.853	2124.41544
755.277	2089.14111
755.7	2104.42395
756.124	2065.39733
756.548	2031.20874
756.971	1969.16899
757.394	1930.45937
757.818	1966.44656
758.241	1969.40855
758.664	1906.36114
759.087	1890.87696
759.51	1827.16733
759.933	1853.12114
760.356	1809.27137
760.778	1793.17424
761.201	1726.0073
761.623	1724.94873
762.046	1756.93429
762.468	1604.7624
762.89	1680.9808
763.312	1719.05639
763.734	1610.8501
764.156	1617.95134
764.578	1644.76195
765	1576.87691
765.421	1563.00909
765.843	1543.05481
766.264	1487.71584
766.686	1422.72842
767.107	1502.73856
767.528	1411.80333
767.949	1418.81013
768.37	1320.51777
768.791	1353.56912
769.212	1380.74228
769.632	1348.47521
770.053	1254.68443
770.473	1246.4345
770.894	1263.50771
771.314	1244.33371
771.734	1256.35054
772.154	1199.48268
772.575	1158.16769
772.994	1215.22076
773.414	1164.2697
773.834	1115.32188
774.254	1171.38169
774.673	1100.21133
775.093	1053.1936
775.512	1027.12805
775.931	1029.20493
776.351	1036.16908
776.77	1036.14339
777.189	997.00622
777.607	939.06958
778.026	970.08417
778.445	903.98367
778.864	914.02573
779.282	909.90074
779.701	840.85027
780.119	942.10767
780.537	809.8009
780.955	776.73489
781.373	818.7815
781.791	806.60085
782.209	728.4921
782.627	758.81506
783.045	840.71185
783.462	768.76343
783.88	681.60433
784.297	717.6335
784.715	674.58691
785.132	664.4807
785.549	638.47355
785.966	659.51154
786.383	628.41995
786.8	679.43323
787.217	624.36272
787.633	542.26946
788.05	578.25256
788.466	517.11089
788.883	543.28938
789.299	561.25362
789.715	509.16996
790.131	545.27574
790.547	485.12891
790.963	507.18946
791.379	493.17544
791.795	489.04566
792.21	496.08329
792.626	442.99159
793.041	437.03495
793.457	467.09803
793.872	418.93776
794.287	419.96448
794.702	361.85417
795.117	432.02958
795.532	390.94713
795.947	387.89191
796.362	410.93793
796.776	338.75396
797.191	385.91165
797.605	365.84993
798.02	338.79807
798.434	295.6353
798.848	350.84269
799.262	339.82655
799.676	331.77654
800.09	386.92934
800.504	261.61904
800.918	341.77652
801.331	288.72635
801.745	243.55338
802.158	258.63554
802.572	254.6
802.985	300.70397
803.398	272.63728
803.811	237.58951
804.224	236.57235
804.637	246.58425
805.05	206.4715
805.462	238.57547
805.875	204.52663
806.288	246.59279
806.7	231.57501
807.112	180.41265
807.525	225.54762
807.937	155.38374
808.349	196.48745
808.761	235.57132
809.173	182.43941
809.584	156.38317
809.996	155.3829
810.408	188.48533
810.819	240.56429
811.231	310.7977
811.642	363.86322
812.053	439.02327
812.464	388.90009
812.875	275.68899
813.286	228.58142
813.697	251.57714
814.108	163.39748
814.519	145.32407
814.929	203.51119
815.34	152.37597
815.75	172.43832
816.16	185.45717
816.571	141.36281
816.981	154.36281
817.391	161.39245
817.801	166.4187
818.211	125.29603
818.62	178.43365
819.03	147.35993
819.44	97.2535
819.849	125.31388
820.259	95.24232
820.668	114.28528
821.077	134.33835
821.486	127.30669
821.895	117.28786
822.304	153.40432
822.713	137.32858
823.122	134.3363
823.531	122.295
823.939	137.33756
824.348	110.27199
824.756	125.31636
825.164	107.26926
825.573	164.41853
825.981	109.27174
826.389	151.38121
826.797	76.19095
827.205	136.31841
827.612	131.3267
828.02	135.32194
828.428	144.36891
828.835	118.31231
829.243	163.39317
829.65	100.25178
830.057	120.29541
830.464	78.19294
830.871	146.35024
831.278	84.20511
831.685	107.24378
832.092	116.2885
832.499	77.17224
832.905	110.27964
833.312	159.36561
833.718	102.25691
834.124	107.24673
834.531	85.21574
834.937	68.17391
835.343	140.34057
835.749	96.22362
836.155	91.23944
836.561	95.23812
836.966	84.20831
837.372	99.25421
837.777	83.21126
838.183	103.23068
838.588	57.14231
838.993	77.18966
839.399	73.18153
839.804	76.1884
840.209	89.23172
840.613	86.1959
841.018	55.14054
841.423	28.07306
841.828	84.21648
842.232	104.25809
842.637	126.30157
843.041	83.21691
843.445	77.19592
843.849	62.15549
844.253	111.26704
844.657	48.12396
845.061	114.26376
845.465	65.16034
845.869	53.12664
846.272	72.17946
846.676	70.17041
847.079	94.2441
847.483	108.2688
847.886	44.10716
848.289	101.27147
848.692	92.23512
849.095	105.25662
849.498	33.08403
849.901	59.13757
850.304	101.24565
850.707	80.2046
851.109	56.14206
851.512	126.31429
851.914	127.3277
852.316	27.06885
852.718	54.14244
853.121	69.17214
853.523	80.19308
853.925	31.08302
854.326	-3.00767
854.728	79.20667
855.13	91.23927
855.531	46.11408
855.933	57.13734
856.334	65.16527
856.736	65.1503
857.137	54.12816
857.538	65.16755
857.939	106.26746
858.34	97.23839
858.741	64.16888
859.142	48.11808
859.542	85.22719
859.943	67.16867
860.343	23.05844
860.744	54.13362
861.144	68.16635
861.544	49.12194
861.945	77.20075
862.345	48.11917
862.745	65.16615
863.145	68.16418
863.544	73.1864
863.944	35.08388
864.344	58.14593
864.743	51.12747
865.143	67.17444
865.542	59.14049
865.941	104.26186
866.34	77.18658
866.74	36.09747
867.139	76.18723
867.537	56.14422
867.936	67.16485
868.335	79.20356
868.734	91.2379
869.132	86.20497
869.531	68.16462
869.929	64.15137
870.327	104.25385
870.726	41.10277
871.124	93.22178
871.522	65.16807
871.92	83.2082
872.318	43.10712
872.715	38.09451
873.113	69.17221
873.511	120.30452
873.908	75.1948
874.306	38.09749
874.703	15.03821
875.1	73.18804
875.497	85.20905
875.894	53.13409
876.291	50.12449
876.688	85.22418
877.085	39.09486
877.482	79.19944
877.878	44.10872
878.275	108.27775
878.671	130.29204
879.068	72.17626
879.464	56.13765
879.86	63.15156
880.256	87.21642
880.652	44.11399
881.048	58.14494
881.444	36.08649
881.84	64.16448
882.236	47.11967
882.631	89.22349
883.027	57.13905
883.422	73.18823
883.817	78.20242
884.213	84.21874
884.608	36.091
885.003	60.14874
885.398	93.2383
885.793	72.18252
886.188	68.17403
886.582	21.05409
886.977	54.13092
887.371	2.00511
887.766	29.07423
888.16	77.19398
888.554	66.16361
888.949	56.14176
889.343	74.18177
889.737	62.16934
890.131	45.11381
890.525	75.19346
890.918	21.05347
891.312	52.12474
891.706	6.01579
892.099	60.15269
892.492	45.10049
892.886	46.11403
893.279	63.16352
893.672	-3.0077
894.065	54.1367
894.458	93.23814
894.851	100.24626
895.244	35.09069
895.637	122.29711
896.029	45.11182
896.422	53.13117
896.814	44.11098
897.206	46.11199
897.599	40.09963
897.991	13.03206
898.383	89.21614
898.775	104.23757
899.167	61.14675
899.559	45.11519
899.951	97.2307
900.342	18.04621
900.734	63.16138
901.125	45.11948
901.517	58.14567
901.908	81.19538
902.299	93.23395
902.69	100.24007
903.082	91.22232
903.473	63.15529
903.863	77.19841
904.254	73.17449
904.645	64.16126
905.036	57.14153
905.426	61.14122
905.817	119.29505
906.207	55.13502
906.597	33.07843
906.987	68.1781
907.378	21.05372
907.768	49.13132
908.158	80.19745
908.547	28.07401
908.937	21.05432
909.327	76.18833
909.717	53.13514
910.106	43.10517
910.495	78.19689
910.885	86.22087
911.274	35.08906
911.663	49.12472
912.052	54.13396
912.441	24.06175
912.83	53.12533
913.219	68.17865
913.608	17.04243
913.997	18.04645
914.385	46.11127
914.774	47.11632
915.162	72.17594
915.55	36.08859
915.939	12.03099
916.327	48.11999
916.715	8.02083
917.103	55.13632
917.491	46.11445
917.878	-12.02986
918.266	14.03651
918.654	80.20789
919.041	30.08007
919.429	47.1138
919.816	33.0845
920.203	92.2264
920.591	91.22629
920.978	33.08101
921.365	50.13287
921.752	85.2065
922.139	91.2033
922.525	99.2434
922.912	55.13557
923.299	21.05355
923.685	63.16666
924.072	78.17983
924.458	34.08585
924.844	49.12388
925.231	55.13111
925.617	37.0963
926.003	36.0932
926.389	29.07467
926.774	64.16414
927.16	49.12371
927.546	86.22371
927.931	58.14682
928.317	18.04224
928.702	33.07906
929.088	67.16259
929.473	24.06203
929.858	52.12928
930.243	42.10336
930.628	73.18258
931.013	60.15145
931.398	76.17612
931.783	55.14506
932.167	82.20521
932.552	9.0228
932.937	64.16022
933.321	23.05916
933.705	37.09531
934.09	29.07363
934.474	77.18461
934.858	47.12346
935.242	51.12148
935.626	58.15155
936.009	-33.08873
936.393	23.05943
936.777	52.13518
937.16	18.04735
937.544	54.12856
937.927	71.18371
938.311	90.22025
938.694	41.10893
939.077	35.0857
939.46	0
939.843	112.24074
940.226	40.10423
940.609	98.23276
940.991	66.17021
941.374	75.1863
941.757	69.17089
942.139	26.06125
942.522	34.08125
942.904	90.21886
943.286	36.0921
943.668	61.16007
944.05	14.03538
944.432	80.20201
944.814	6.01496
945.196	50.12585
945.578	113.2772
945.959	50.11995
946.341	8.01962
946.722	29.06948
947.104	34.0833
947.485	30.07164
947.866	66.17128
948.247	21.05355
948.628	30.07383
949.009	40.10473
949.39	43.10833
949.771	35.08353
950.152	75.18786
950.532	50.12688
950.913	73.17841
951.293	37.10159
951.674	55.13831
952.054	48.12263
952.434	8.02025
952.814	55.13337
953.194	32.08424
953.574	-1.00249
953.954	22.05364
954.334	66.16713
954.714	47.11747
955.093	57.14102
955.473	4.0102
955.853	6.01576
956.232	25.0686
956.611	39.0951
956.99	83.21238
957.37	62.16034
957.749	67.16332
958.128	58.14958
958.506	75.19887
958.885	63.16188
959.264	104.26176
959.643	25.05815
960.021	48.12177
960.4	68.15833
960.778	55.13722
961.156	17.04385
961.535	45.10678
961.913	77.1832
962.291	52.13763
962.669	-19.04909
963.047	31.07996
963.424	15.03892
963.802	62.15566
964.18	65.16556
964.557	59.13865
964.935	38.09199
965.312	9.02378
965.69	28.0707
966.067	53.13179
966.444	24.05984
966.821	17.04438
967.198	29.07146
967.575	46.11312
967.952	89.21143
968.329	90.22172
968.705	40.08753
969.082	90.23396
969.458	74.18318
969.835	54.13313
970.211	41.10777
970.587	58.14593
970.963	60.15485
971.339	45.1192
971.715	56.14146
972.091	68.16968
972.467	43.10902
972.843	40.10118
973.219	19.04597
973.594	73.19492
973.97	66.15851
974.345	31.07624
974.721	24.05847
975.096	-12.02986
975.471	50.12095
975.846	14.03434
976.221	41.10708
976.596	41.10106
976.971	14.03525
977.346	35.08267
977.72	43.11157
978.095	50.13127
978.469	16.03892
978.844	56.14095
979.218	-25.06178
979.593	56.13582
979.967	55.13592
980.341	25.05886
980.715	56.14357
981.089	-17.04318
981.463	88.20893
981.837	53.13256
982.21	83.19444
982.584	27.06685
982.957	35.08965
983.331	79.1897
983.704	-21.05218
984.078	75.18806
984.451	44.10967
984.824	61.15169
985.197	36.08879
985.57	47.1195
985.943	27.06717
986.316	59.14639
986.688	82.19873
987.061	74.17779
987.434	47.124
987.806	78.1918
988.179	79.1907
988.551	74.19005
988.923	46.11507
989.295	6.015
989.667	52.12815
990.039	37.09401
990.411	30.07082
990.783	86.20009
991.155	64.15958
991.527	51.1259
991.898	38.09691
992.27	6.01515
992.641	28.07106
993.012	27.06496
993.384	14.03398
993.755	66.17133
994.126	2.00492
994.497	65.16252
994.868	74.17393
995.239	32.07869
995.61	59.15139
995.98	64.15952
996.351	8.02029
996.722	71.17042
997.092	45.10945
997.462	63.15156
997.833	58.13908
998.203	11.02709
998.573	1.00254
998.943	92.22011
999.313	49.12051
999.683	50.1239
1000.053	92.21573
1000.423	29.07127
1000.792	71.18694
1001.162	49.12189
1001.531	38.09554
1001.901	75.19151
1002.27	34.0781
1002.639	49.12762
1003.009	-14.0341
1003.378	38.09776
1003.747	74.17934
1004.116	29.0713
1004.485	16.03886
1004.853	49.12569
1005.222	30.07629
1005.591	69.16568
1005.959	62.14505
1006.328	43.09959
1006.696	91.22439
1007.064	26.06631
1007.433	23.05834
1007.801	39.09627
1008.169	3.00765
1008.537	92.20753
1008.905	45.10805
1009.273	41.10177
1009.64	43.10619
1010.008	24.05889
1010.375	20.04805
1010.743	64.14914
1011.11	56.13592
1011.478	8.02015
1011.845	37.08857
1012.212	57.13301
1012.579	36.08934
1012.946	53.12784
1013.313	42.10095
1013.68	83.18864
1014.047	7.0173
1014.414	79.19056
1014.78	-8.02026
1015.147	10.02442
1015.513	53.13021
1015.88	53.13533
1016.246	2.00496
1016.612	46.10618
1016.978	55.13682
1017.344	66.1663
1017.71	19.04651
1018.076	39.09329
1018.442	25.06467
1018.808	9.02304
1019.174	73.18601
1019.539	19.04385
1019.905	11.02665
1020.27	9.02289
1020.636	37.09029
1021.001	8.01954
1021.366	52.12754
1021.731	4.01035
1022.096	6.01554
1022.461	46.1109
1022.826	12.02917
1023.191	10.02659
1023.556	70.16773
1023.92	7.01744
1024.285	45.11162
1024.649	67.16655
1025.014	95.23709
1025.378	21.05394
1025.742	68.17158
1026.107	12.02775
1026.471	31.07276
1026.835	37.09404
1027.199	91.22653
1027.562	72.16989
1027.926	76.18702
1028.29	55.14221
1028.654	60.14081
1029.017	3.00747
1029.381	34.08317
1029.744	20.05153
1030.107	33.07933
1030.471	38.09171
1030.834	16.03721
1031.197	16.03885
1031.56	9.02168
1031.923	46.12015
1032.286	38.09064
1032.648	54.1323
1033.011	56.13024
1033.374	64.15084
1033.736	32.08563
1034.099	80.19861
1034.461	-9.02316
1034.823	-8.02034
1035.185	46.11735
1035.548	70.17359
1035.91	51.12432
1036.272	2.00464
1036.634	58.14204
1036.995	64.15423
1037.357	50.1239
1037.719	-15.037
1038.08	24.05788
1038.442	57.13703
1038.803	38.09251
1039.165	97.24864
1039.526	46.11286
1039.887	57.13905
1040.248	26.06525
1040.609	6.01494
1040.97	52.1298
1041.331	76.19375
1041.692	111.26694
1042.053	96.22185
1042.413	55.13051
1042.774	56.1375
1043.134	83.20021
1043.495	2.0051
1043.855	75.18371
1044.215	111.27793
1044.576	81.19914
1044.936	77.17869
1045.296	20.05075
1045.656	43.10627
1046.016	41.0998
1046.375	-12.02967
1046.735	15.03522
1047.095	32.07644
1047.454	44.09543
1047.814	77.18714
1048.173	-19.04545
1048.533	42.0981
1048.892	36.08928
1049.251	75.18989
1049.61	43.10743
1049.969	61.14836
1050.328	76.16779
1050.687	46.11341
1051.046	10.02462
1051.405	65.16504
1051.763	-17.04063
1052.122	23.0585
1052.48	-2.00495
1052.839	21.05062
1053.197	84.2012
1053.555	22.04973
1053.914	23.05659
1054.272	67.16137
1054.63	60.15021
1054.988	56.13597
1055.345	64.14112
1055.703	48.11686
1056.061	6.01568
1056.419	29.0761
1056.776	-7.01717
1057.134	19.04524
1057.491	37.09355
1057.848	9.0226
1058.206	63.15082
1058.563	46.10364
1058.92	21.04887
1059.277	75.18569
1059.634	25.05983
1059.991	78.18889
1060.348	70.16235
1060.704	29.07104
1061.061	42.0986
1061.418	33.08116
1061.774	27.06799
1062.131	39.105
1062.487	18.04323
1062.843	23.0579
1063.199	47.11942
1063.555	49.11703
1063.911	-9.02298
1064.267	5.01071
1064.623	-8.02001
1064.979	31.07447
1065.335	49.11779
1065.691	39.09457
1066.046	-70.15693
1066.402	83.19398
1066.757	40.10165
1067.112	23.05696
1067.468	82.20186
1067.823	71.17366
1068.178	54.13131
1068.533	83.20331
1068.888	34.08225
1069.243	25.06271
1069.598	32.07936
1069.952	82.18973
1070.307	40.10212
1070.662	16.0387
1071.016	68.15565
1071.371	41.09492
1071.725	60.14481
1072.079	74.1784
1072.434	21.05241
1072.788	105.2528
1073.142	95.23589
1073.496	32.07732
1073.85	-13.03072
1074.203	55.13756
1074.557	67.17955
1074.911	66.15724
1075.265	24.05698
1075.618	22.05414
1075.971	40.09672
1076.325	26.06736
1076.678	49.116
1077.031	93.21471
1077.385	74.16761
1077.738	77.17756
1078.091	-10.02371
1078.444	77.18095
1078.796	-6.01498
1079.149	63.15735
1079.502	53.12982
1079.855	66.15755
1080.207	61.15174
1080.56	7.01839
1080.912	46.11282
1081.264	47.11504
1081.617	100.24844
1081.969	47.12144
1082.321	3.00745
1082.673	59.13908
1083.025	50.12122
1083.377	59.13028
1083.728	53.12455
1084.08	18.04561
1084.432	29.07161
1084.783	56.13265
1085.135	58.14729
1085.486	40.09523
1085.838	47.11785
1086.189	5.01234
1086.54	55.13257
1086.891	50.12895
1087.242	5.01233
1087.593	75.18351
1087.944	23.05287
1088.295	84.19312
1088.646	33.08209
1088.996	14.03443
1089.347	25.06251
1089.698	49.11855
1090.048	7.01821
1090.398	35.08209
1090.749	50.12177
1091.099	75.19453
1091.449	32.08089
1091.799	49.12459
1092.149	58.14677
1092.499	39.09642
1092.849	64.16534
1093.199	51.12784
1093.548	52.12782
1093.898	29.07389
1094.248	35.09059
1094.597	21.05552
1094.947	11.02965
1095.296	25.06253
1095.645	15.03952
1095.994	22.05354
1096.343	19.04855
1096.692	99.26792
1097.041	-48.13202
1097.39	109.27714
1097.739	25.0658
1098.088	47.12699
1098.437	-4.01076
1098.785	14.03781
1099.134	-12.03226
1099.482	31.08614
1099.83	34.08951
1100.179	49.13071
1100.527	5.01342
1100.875	-2.00538
1101.223	24.06433
1101.571	36.10039
1101.919	55.14725
1102.267	2.00569
1102.615	10.03224
1102.962	5.0161
1103.31	12.03864
1103.658	14.04515
