Data from N2 R0 105C sample7_Subt2__4__12-16-33-031.txt Node

Date: Tue Aug 19 12:16:33 PDT 2025
User: uwsun
Spectrometer: HDX01956
Trigger mode: 0
Integration Time (sec): 5.000000E-1
Scans to average: 1
Nonlinearity correction enabled: true
Boxcar width: 0
Storing dark spectrum: false
XAxis mode: Wavelengths
Number of Pixels in Spectrum: 2068
>>>>>Begin Spectral Data<<<<<
194.03	219.62298
194.578	206.65644
195.127	204.64155
195.676	191.60387
196.225	223.59913
196.773	236.65723
197.321	367.00543
197.87	483.22358
198.418	520.29336
198.966	511.30421
199.513	440.08142
200.061	471.17834
200.609	488.25351
201.156	425.92857
201.704	496.23002
202.251	496.28954
202.798	485.23387
203.345	504.21522
203.892	474.16983
204.438	501.1717
204.985	562.30814
205.532	489.25673
206.078	515.23406
206.624	507.22223
207.17	514.16804
207.716	519.23185
208.262	458.89784
208.808	504.23122
209.354	515.22844
209.899	506.23244
210.445	502.2295
210.99	512.21684
211.535	503.16627
212.08	503.16075
212.625	520.27082
213.17	509.25334
213.715	538.20043
214.259	524.19176
214.804	527.25374
215.348	499.11305
215.892	502.1729
216.436	527.18916
216.98	564.22062
217.524	453.0572
218.068	576.40991
218.612	494.21257
219.155	482.11244
219.698	494.15237
220.242	474.15397
220.785	437.0054
221.328	445.08265
221.871	432.06523
222.414	420.0299
222.956	511.2147
223.499	451.00331
224.041	494.12343
224.583	460.9661
225.126	452.98483
225.668	465.10223
226.21	470.15272
226.751	513.10607
227.293	486.09851
227.835	483.15903
228.376	482.0837
228.918	461.13791
229.459	438.07491
230	470.09114
230.541	510.16408
231.082	393.93346
231.622	448.01165
232.163	471.11819
232.704	497.19042
233.244	451.09441
233.784	501.1877
234.324	490.07649
234.864	445.99893
235.404	421.988
235.944	436.01367
236.484	456.09891
237.023	530.22145
237.563	476.07675
238.102	422.97507
238.641	457.13008
239.18	484.11573
239.719	461.12832
240.258	470.03982
240.797	467.10144
241.335	479.14376
241.874	531.01789
242.412	511.20445
242.95	461.08475
243.488	489.09924
244.026	478.07557
244.564	456.93363
245.102	500.09711
245.64	500.16045
246.177	518.13715
246.715	511.19279
247.252	504.12908
247.789	546.00462
248.326	496.17289
248.863	462.01146
249.4	548.20614
249.936	462.93907
250.473	537.22063
251.009	551.2353
251.546	540.15666
252.082	519.10993
252.618	458.00311
253.154	521.2252
253.69	481.05557
254.226	450.05368
254.761	523.16234
255.297	447.96465
255.832	481.10506
256.367	563.28445
256.903	464.99511
257.438	545.23234
257.972	500.09895
258.507	502.13612
259.042	544.16022
259.576	522.11515
260.111	537.20041
260.645	467.9875
261.179	490.11521
261.713	532.16352
262.247	483.09859
262.781	501.03899
263.315	541.28709
263.849	522.27004
264.382	506.12799
264.915	562.28654
265.449	594.4152
265.982	554.22803
266.515	539.25922
267.048	466.99508
267.58	564.19514
268.113	515.09423
268.646	561.33676
269.178	513.1245
269.71	589.24466
270.243	499.10938
270.775	504.23486
271.307	533.23593
271.838	541.22229
272.37	524.2454
272.902	590.28621
273.433	486.03184
273.965	526.23914
274.496	524.24349
275.027	542.29415
275.558	551.2883
276.089	549.31363
276.62	511.25504
277.15	544.27365
277.681	572.20789
278.211	522.20585
278.741	566.21348
279.272	506.12613
279.802	528.26405
280.332	590.33286
280.861	562.30146
281.391	564.23361
281.921	578.33433
282.45	541.30283
282.98	588.45842
283.509	569.22595
284.038	577.2666
284.567	550.22319
285.096	615.41842
285.625	593.30232
286.153	517.16894
286.682	562.24217
287.21	575.33134
287.739	590.34477
288.267	560.30399
288.795	546.3517
289.323	602.36497
289.851	603.36033
290.378	562.22354
290.906	627.44842
291.433	577.36389
291.961	551.20742
292.488	616.44577
293.015	644.44907
293.542	605.46424
294.069	562.31533
294.596	610.42221
295.122	639.44338
295.649	617.29252
296.175	664.53243
296.702	637.45346
297.228	644.46856
297.754	712.52494
298.28	630.36714
298.806	617.40778
299.332	661.39763
299.857	659.40616
300.383	672.58648
300.908	585.362
301.433	665.50704
301.958	659.42255
302.483	643.51535
303.008	685.58124
303.533	603.47141
304.058	666.48027
304.582	657.47141
305.107	648.59855
305.631	711.50019
306.155	698.52899
306.679	665.45144
307.203	694.51511
307.727	683.51589
308.251	699.60782
308.775	692.54954
309.298	750.68775
309.822	720.68803
310.345	708.58279
310.868	673.50851
311.391	732.66199
311.914	739.71675
312.437	732.55433
312.96	750.63195
313.482	759.65469
314.005	740.72008
314.527	754.82667
315.049	757.73921
315.571	833.71869
316.093	859.92718
316.615	803.78091
317.137	816.62601
317.659	864.90869
318.18	785.71501
318.702	788.66753
319.223	903.70349
319.744	867.76653
320.265	835.84347
320.786	899.00357
321.307	894.99382
321.828	922.87997
322.348	884.8879
322.869	971.05646
323.389	634.9137
323.909	899.84421
324.43	861.85025
324.95	905.86153
325.47	950.05161
325.989	960.00094
326.509	968.90074
327.029	971.92228
327.548	948.89373
328.067	1004.14164
328.587	1065.27726
329.106	1037.00774
329.625	1033.32977
330.144	1078.15911
330.662	995.99183
331.181	1076.16004
331.7	1121.24693
332.218	1157.13241
332.736	1127.24552
333.255	1084.1592
333.773	1113.2278
334.291	1138.37557
334.808	1156.20104
335.326	1176.23706
335.844	1211.36099
336.361	1219.57214
336.879	1242.43236
337.396	1213.42274
337.913	1261.37089
338.43	1240.30235
338.947	1268.44505
339.464	1270.23062
339.981	1290.49229
340.497	1337.62306
341.014	1307.59282
341.53	1258.2841
342.046	1354.63851
342.562	1327.67143
343.078	1417.62887
343.594	1382.60854
344.11	1406.60647
344.626	1450.85774
345.141	1399.48312
345.657	1496.56039
346.172	1495.76864
346.687	1433.58289
347.202	1468.54148
347.717	1574.83605
348.232	1556.94506
348.747	1566.71783
349.261	1619.63865
349.776	1607.81199
350.29	1617.00751
350.805	1691.1074
351.319	1646.84415
351.833	1585.64851
352.347	1668.84775
352.861	1705.84759
353.374	1696.77673
353.888	1647.92268
354.401	1676.79499
354.915	1751.79619
355.428	1735.08972
355.941	1763.92944
356.454	1775.77465
356.967	1755.9113
357.48	1795.85439
357.993	1835.14497
358.505	1869.13158
359.018	1902.17124
359.53	1891.14677
360.042	1841.77923
360.554	1916.12111
361.066	1903.17548
361.578	1923.75222
362.09	1900.03366
362.602	1958.82997
363.113	1968.05445
363.625	2015.94498
364.136	2019.84997
364.647	1998.11769
365.158	2117.08172
365.669	2107.19284
366.18	2035.07998
366.691	2109.90092
367.201	2102.2083
367.712	2094.02641
368.222	2157.05642
368.733	2248.98189
369.243	2284.00333
369.753	2347.2396
370.263	2289.31622
370.773	2310.3585
371.282	2295.23927
371.792	2476.29293
372.301	2490.41046
372.811	2482.69973
373.32	2559.85831
373.829	2664.32816
374.338	2769.0003
374.847	2789.21119
375.356	2917.32388
375.865	3012.73954
376.373	3170.04372
376.882	3131.5731
377.39	3167.31202
377.898	3253.43012
378.407	3478.81428
378.915	3503.56223
379.423	3792.93343
379.93	3796.62284
380.438	4056.97719
380.946	4279.63937
381.453	4388.62752
381.96	4623.38317
382.468	4999.15306
382.975	5242.02162
383.482	5354.44022
383.989	5439.18684
384.495	5574.46559
385.002	5900.91144
385.509	6219.35707
386.015	6601.54939
386.521	6970.05584
387.028	7283.08619
387.534	7440.07701
388.04	7600.36637
388.546	7843.46444
389.051	8400.20027
389.557	9029.47087
390.063	9596.01239
390.568	9744.41839
391.073	10260.5011
391.578	10583.54147
392.084	10929.82174
392.589	11232.98361
393.093	12237.5472
393.598	13463.88167
394.103	14540.98843
394.607	15814.93688
395.112	16846.03949
395.616	17965.70871
396.12	19593.51485
396.624	21565.34544
397.128	23478.32501
397.632	25835.78172
398.136	28093.81005
398.639	29572.96984
399.143	33361.47429
399.646	37231.28009
400.15	40695.96489
400.653	45490.47511
401.156	51211.62015
401.659	57817.17553
402.162	57834.27538
402.664	54480.21957
403.167	49329.08451
403.67	22278.45323
404.172	2696.20453
404.674	0
405.176	0
405.678	0
406.18	0
406.682	0
407.184	0
407.686	25783.58453
408.187	43316.52985
408.688	51225.60928
409.19	54389.01922
409.691	56215.4214
410.192	57270.57019
410.693	57845.40442
411.194	58219.2365
411.694	58633.01717
412.195	59215.68848
412.696	59364.60701
413.196	59341.61941
413.696	59632.46864
414.196	59367.6054
414.696	59763.40624
415.196	59903.08341
415.696	54318.77921
416.196	42607.71116
416.695	33774.82478
417.195	29858.22816
417.694	28592.20792
418.194	26820.84993
418.693	25540.08013
419.192	24665.05619
419.691	24448.81543
420.19	23740.53742
420.688	23022.8972
421.187	22068.12918
421.685	20494.30795
422.184	18382.89911
422.682	15622.38938
423.18	13526.2185
423.678	12093.58276
424.176	11360.87751
424.674	10587.1442
425.172	10166.952
425.669	9428.41181
426.167	8797.95249
426.664	8143.85509
427.161	7370.10048
427.659	6913.24418
428.156	6548.6672
428.652	6126.68958
429.149	5913.52382
429.646	5544.20576
430.143	5295.79441
430.639	4971.96759
431.135	4756.53749
431.632	4485.17053
432.128	4243.64667
432.624	3953.24567
433.12	3898.50456
433.616	3804.37061
434.111	3682.88614
434.607	3559.04385
435.103	3347.40029
435.598	3375.39804
436.093	3287.05238
436.588	2996.78637
437.083	2901.89347
437.578	2815.07473
438.073	2670.51653
438.568	2522.31346
439.062	2524.76994
439.557	2408.13941
440.051	2273.91373
440.546	2217.94426
441.04	2229.21159
441.534	2221.46295
442.028	2168.12634
442.522	2118.13061
443.015	2069.75472
443.509	2026.16745
444.002	2020.17227
444.496	2018.7789
444.989	1855.00319
445.482	1869.11481
445.975	1978.92562
446.468	1934.64885
446.961	1875.65424
447.454	1790.70036
447.947	1822.95243
448.439	1727.84425
448.931	1722.71162
449.424	1704.98817
449.916	1757.96681
450.408	1679.65296
450.9	1584.81102
451.392	1608.92681
451.884	1565.58659
452.375	1598.93031
452.867	1563.53536
453.358	1521.54906
453.849	1548.37393
454.341	1506.504
454.832	1531.40592
455.323	1455.67706
455.814	1486.54856
456.304	1408.45241
456.795	1487.53882
457.285	1365.28602
457.776	1376.36762
458.266	1376.50923
458.756	1343.46539
459.247	1355.50853
459.737	1321.48524
460.226	1294.29183
460.716	1322.49377
461.206	1221.35478
461.695	1184.36744
462.185	1177.21253
462.674	1246.30896
463.163	1144.0356
463.653	1228.08269
464.142	1180.31287
464.63	1155.31731
465.119	1149.15764
465.608	1132.16146
466.096	1067.93215
466.585	1025.98592
467.073	1057.0922
467.561	1032.06966
468.05	1122.14026
468.538	1078.19377
469.026	997.01997
469.513	1136.13577
470.001	925.80043
470.489	982.99698
470.976	998.96247
471.463	936.99555
471.951	855.85465
472.438	830.71517
472.925	892.80806
473.412	882.86415
473.899	814.63779
474.385	770.67479
474.872	857.78484
475.359	803.7514
475.845	812.51021
476.331	736.40662
476.817	709.55278
477.303	739.54638
477.789	757.6343
478.275	704.57708
478.761	719.57602
479.247	730.50025
479.732	718.6269
480.218	661.57043
480.703	676.53663
481.188	650.28881
481.673	652.37948
482.158	649.30451
482.643	577.34705
483.128	651.37646
483.612	598.29982
484.097	607.35821
484.581	590.26936
485.066	578.32004
485.55	602.24744
486.034	517.05503
486.518	586.30229
487.002	557.30234
487.486	494.14695
487.969	499.16975
488.453	477.13202
488.936	533.15516
489.42	461.97823
489.903	478.13636
490.386	496.79775
490.869	481.00366
491.352	462.0755
491.835	499.99647
492.318	511.13187
492.8	471.95758
493.283	481.17735
493.765	471.11519
494.247	474.05915
494.73	454.97702
495.212	399.93602
495.694	431.98021
496.175	401.94255
496.657	414.95393
497.139	433.75775
497.62	399.932
498.102	389.94311
498.583	392.95199
499.064	446.98946
499.545	400.90108
500.026	413.91494
500.507	394.90207
500.988	435.05118
501.469	380.93872
501.949	371.90286
502.43	366.8665
502.91	393.82122
503.39	374.90795
503.87	401.93778
504.35	361.83565
504.83	374.82217
505.31	303.72887
505.79	325.78237
506.269	360.84011
506.749	311.71422
507.228	388.90649
507.707	399.87656
508.187	321.75368
508.666	350.85639
509.145	349.82132
509.623	289.67803
510.102	332.80118
510.581	301.71747
511.059	346.86009
511.538	301.76766
512.016	361.86538
512.494	357.8597
512.972	343.81065
513.45	328.77086
513.928	398.96293
514.406	364.88401
514.884	360.91435
515.361	295.71501
515.839	364.8334
516.316	318.76943
516.793	311.78196
517.27	280.67394
517.747	297.76119
518.224	339.79189
518.701	365.8278
519.178	254.63122
519.654	292.69588
520.131	281.69435
520.607	290.71646
521.083	320.73827
521.56	270.65356
522.036	362.80114
522.512	285.69389
522.987	317.76023
523.463	319.76764
523.939	320.78213
524.414	300.69737
524.89	279.6686
525.365	304.70275
525.84	310.75347
526.315	309.7523
526.79	306.70091
527.265	340.79126
527.74	290.70935
528.215	328.78196
528.689	282.64101
529.164	254.56473
529.638	305.7847
530.112	292.70228
530.587	289.63707
531.061	283.69185
531.534	269.65151
532.008	290.70724
532.482	252.58117
532.956	268.68508
533.429	280.68337
533.903	300.66948
534.376	276.62128
534.849	277.65419
535.322	310.73736
535.795	248.61316
536.268	230.55927
536.741	252.61184
537.213	246.5802
537.686	285.70424
538.158	233.53597
538.631	280.67955
539.103	265.61419
539.575	278.58904
540.047	266.59754
540.519	277.67164
540.991	256.63085
541.463	265.64978
541.934	256.60027
542.406	262.6373
542.877	327.75456
543.348	279.68106
543.82	269.65909
544.291	317.74022
544.762	259.6221
545.233	303.76131
545.703	312.70345
546.174	349.81428
546.645	330.79756
547.115	306.74848
547.585	364.83507
548.056	326.80123
548.526	394.93313
548.996	366.87018
549.466	375.89996
549.935	388.91644
550.405	381.83914
550.875	448.03711
551.344	412.98101
551.814	422.96693
552.283	404.86383
552.752	465.06696
553.221	458.00859
553.69	474.02555
554.159	487.17219
554.628	458.01618
555.096	543.33274
555.565	527.15281
556.033	452.03977
556.502	489.14985
556.97	446.97876
557.438	494.13429
557.906	404.94682
558.374	437.99225
558.842	451.05005
559.31	400.89629
559.777	396.94582
560.245	486.11723
560.712	478.09136
561.18	493.09057
561.647	505.10554
562.114	474.06438
562.581	492.17104
563.048	494.11345
563.514	487.162
563.981	527.16591
564.448	529.15914
564.914	519.1768
565.381	549.20708
565.847	631.40907
566.313	588.31808
566.779	589.25824
567.245	611.36998
567.711	638.45779
568.176	672.43609
568.642	691.62664
569.108	720.65648
569.573	795.74564
570.038	774.54007
570.504	736.53161
570.969	879.00877
571.434	882.79752
571.899	848.85387
572.363	832.73848
572.828	880.81615
573.293	902.87156
573.757	913.87211
574.222	951.93258
574.686	1019.05713
575.15	984.07725
575.614	1023.06334
576.078	1024.13358
576.542	1044.08034
577.006	985.9727
577.469	1052.25956
577.933	1066.12524
578.396	1030.12434
578.86	1037.14213
579.323	1065.24307
579.786	1058.9979
580.249	1057.14272
580.712	1050.23408
581.175	982.1433
581.637	986.97698
582.1	1018.98124
582.563	1001.88778
583.025	996.13644
583.487	1027.84542
583.95	1077.05371
584.412	1029.91325
584.874	1034.17249
585.336	1041.15232
585.797	1042.97243
586.259	1104.23967
586.721	1064.16817
587.182	1076.15213
587.643	1150.22124
588.105	1100.2578
588.566	1111.98557
589.027	1110.31808
589.488	1133.21277
589.949	1159.38277
590.41	1244.0174
590.87	1247.32851
591.331	1278.24007
591.791	1339.55716
592.252	1378.57202
592.712	1383.6591
593.172	1381.53413
593.632	1567.6522
594.092	1543.66719
594.552	1590.61032
595.011	1663.87597
595.471	1664.73735
595.931	1762.84472
596.39	1856.23723
596.849	1989.21047
597.308	2046.97051
597.768	2150.7451
598.227	2142.37268
598.685	2239.21269
599.144	2355.42667
599.603	2633.6375
600.062	2707.12623
600.52	2819.36235
600.978	2965.62215
601.437	3061.40435
601.895	3277.02908
602.353	3361.23021
602.811	3599.31571
603.269	3774.67195
603.727	3911.65685
604.184	4115.21413
604.642	4283.61592
605.099	4429.12182
605.557	4689.36402
606.014	4981.50744
606.471	5174.33105
606.928	5333.33448
607.385	5646.98599
607.842	5814.24275
608.299	6164.33565
608.755	6333.4667
609.212	6481.87686
609.668	6805.91302
610.125	6960.30844
610.581	7165.1559
611.037	7317.0053
611.493	7481.20889
611.949	7619.54564
612.405	7737.72822
612.861	7977.425
613.316	8213.69803
613.772	8289.64145
614.227	8372.82349
614.683	8485.63477
615.138	8579.98888
615.593	8659.0715
616.048	8762.14142
616.503	8783.3614
616.958	8822.52445
617.412	8799.29229
617.867	8855.2411
618.321	8738.95323
618.776	8775.12191
619.23	8724.16055
619.684	8778.15485
620.138	8680.06431
620.592	8553.08186
621.046	8454.81661
621.5	8429.98763
621.954	8273.52251
622.407	8221.43504
622.861	8086.64574
623.314	8079.36627
623.768	7964.40151
624.221	7951.87807
624.674	7858.26695
625.127	7856.31514
625.58	7915.24167
626.033	7768.99285
626.485	7681.36816
626.938	7701.31877
627.39	7707.25489
627.843	7658.1834
628.295	7708.15486
628.747	7839.38606
629.199	7834.19464
629.651	7922.26957
630.103	7996.36386
630.555	7929.99132
631.006	8058.45345
631.458	8183.60409
631.909	8269.51562
632.361	8345.69172
632.812	8783.21535
633.263	8844.15314
633.714	9003.4211
634.165	9151.90485
634.616	9473.47095
635.067	9504.4913
635.518	9970.65163
635.968	10242.76796
636.419	10584.75811
636.869	11005.11574
637.319	11143.76864
637.769	11681.37884
638.219	12102.38601
638.669	12649.42967
639.119	13039.67374
639.569	13589.80822
640.019	14147.82308
640.468	14622.38733
640.918	15298.72073
641.367	15659.37705
641.816	16413.39031
642.265	17109.99943
642.714	17586.79787
643.163	18466.62292
643.612	18978.96397
644.061	19698.97901
644.51	20330.95163
644.958	20902.67001
645.406	21426.87025
645.855	22153.73183
646.303	22736.79985
646.751	23386.38279
647.199	24318.24614
647.647	24663.76988
648.095	25221.27631
648.543	25661.4353
648.99	26135.43802
649.438	26751.79427
649.885	27010.8439
650.333	27469.99076
650.78	27938.93954
651.227	28012.60832
651.674	28550.1351
652.121	28748.05577
652.568	28787.27876
653.015	28869.77404
653.461	28958.90614
653.908	28651.6801
654.354	28830.55926
654.801	28517.91597
655.247	28318.92793
655.693	28380.75268
656.139	28385.83063
656.585	28416.4782
657.031	28277.99474
657.477	27996.25421
657.922	28035.39268
658.368	27763.63943
658.813	27468.66039
659.259	27528.15048
659.704	27381.26544
660.149	27363.59875
660.594	27017.89944
661.039	26717.06469
661.484	26500.34466
661.929	26501.67567
662.373	26413.0188
662.818	26327.49585
663.262	26412.63524
663.707	26568.45519
664.151	26385.94219
664.595	26446.29016
665.039	26706.71968
665.483	26801.31342
665.927	26869.44057
666.371	27300.05515
666.814	27475.84285
667.258	27413.61168
667.701	27639.30638
668.145	27959.91444
668.588	28145.65132
669.031	28291.84456
669.474	28468.87107
669.917	29100.22091
670.36	29404.00628
670.803	29766.14049
671.245	30128.27491
671.688	29895.30389
672.13	30367.63971
672.573	30670.97293
673.015	30740.31663
673.457	31381.5913
673.899	31385.07671
674.341	31795.96845
674.783	31921.3384
675.225	31918.00062
675.666	32002.71059
676.108	32526.60651
676.549	32531.374
676.991	32730.92528
677.432	32634.29896
677.873	32779.02165
678.314	32321.13778
678.755	32273.41377
679.196	32254.17255
679.637	32161.47909
680.078	32004.71865
680.518	31751.29242
680.959	31475.80132
681.399	31278.27085
681.839	31576.77862
682.28	31148.13943
682.72	30682.61945
683.16	30528.7978
683.6	30343.51548
684.039	30127.67951
684.479	30043.53588
684.919	30018.20836
685.358	30011.67436
685.798	29753.02078
686.237	29638.48416
686.676	29289.72224
687.115	29350.95334
687.554	29376.03359
687.993	29130.67806
688.432	29000.35031
688.871	28791.8572
689.309	28855.86575
689.748	28938.86124
690.186	29092.81731
690.625	28816.9186
691.063	28828.29169
691.501	28772.36228
691.939	28873.21099
692.377	29009.26486
692.815	29027.72621
693.253	29080.32762
693.69	28946.47161
694.128	28895.78073
694.565	28821.59295
695.003	29100.38209
695.44	28755.94118
695.877	28830.70931
696.314	28618.50544
696.751	28586.97939
697.188	28607.72403
697.625	28656.60361
698.061	28635.02149
698.498	28530.9487
698.934	28239.18421
699.371	28474.45213
699.807	28365.32107
700.243	28296.8768
700.679	28135.3696
701.115	28140.89951
701.551	27867.30858
701.987	28089.89437
702.422	27876.95121
702.858	28063.61146
703.294	27849.05926
703.729	27750.85883
704.164	27726.91921
704.599	27513.07816
705.035	27694.81459
705.47	27771.80182
705.904	27477.19658
706.339	27483.42944
706.774	27618.27102
707.209	27428.10622
707.643	27484.89662
708.078	27488.25736
708.512	27390.4877
708.946	27628.25488
709.38	27475.34662
709.814	27387.12093
710.248	27427.18347
710.682	27451.70993
711.116	27343.95743
711.549	27042.74843
711.983	26962.18594
712.416	27129.93441
712.85	26847.76049
713.283	27045.58341
713.716	26951.30748
714.149	26631.51126
714.582	26469.19861
715.015	26348.61567
715.448	26100.74858
715.881	25960.75872
716.313	26197.76054
716.746	26108.26978
717.178	25916.41572
717.61	26015.71457
718.043	26031.22321
718.475	25867.78695
718.907	25599.88026
719.339	25684.43909
719.77	25549.53772
720.202	25415.25461
720.634	25345.76451
721.065	25258.6009
721.497	25005.28018
721.928	25070.92553
722.359	25153.18076
722.79	25077.31356
723.221	24796.87069
723.652	24600.64845
724.083	24405.59454
724.514	24319.24857
724.945	24190.72898
725.375	24246.3341
725.806	23999.88158
726.236	23855.8989
726.666	23807.1923
727.096	23876.06532
727.526	24054.67802
727.956	24103.55223
728.386	23583.02835
728.816	23374.07392
729.246	23325.05522
729.675	23325.87595
730.105	23121.76579
730.534	22846.66304
730.964	22895.54332
731.393	22969.31139
731.822	22815.73718
732.251	22762.33083
732.68	22684.53652
733.109	22597.77688
733.537	22456.01566
733.966	22472.14565
734.395	22202.7228
734.823	22298.17158
735.251	21955.62187
735.68	21837.17336
736.108	21810.63373
736.536	21376.34965
736.964	21306.43646
737.392	21121.84041
737.82	21132.13684
738.247	20701.22828
738.675	20590.76166
739.102	20512.96738
739.53	20208.22311
739.957	20076.0969
740.384	20052.55491
740.811	19957.25838
741.238	19802.8649
741.665	19380.57891
742.092	19131.34392
742.519	18851.5841
742.945	18754.07636
743.372	18581.93624
743.798	18336.92886
744.225	18135.31764
744.651	17847.44266
745.077	17803.01966
745.503	17639.61126
745.929	17420.26365
746.355	17166.53711
746.781	16880.14365
747.207	16623.87761
747.632	16388.52226
748.058	16123.57538
748.483	16042.20945
748.908	15957.99329
749.334	15755.95246
749.759	15242.82516
750.184	15198.87427
750.609	14879.43985
751.033	14957.96574
751.458	14689.25127
751.883	14449.61815
752.307	14325.1023
752.732	13935.99013
753.156	13759.83849
753.58	13707.01016
754.005	13442.43074
754.429	13123.81884
754.853	12930.06386
755.277	12664.88765
755.7	12462.1173
756.124	12219.73154
756.548	12126.48572
756.971	12029.9493
757.394	11775.18535
757.818	11526.07985
758.241	11374.45205
758.664	11135.44915
759.087	11117.84162
759.51	10917.69285
759.933	10749.11369
760.356	10575.4083
760.778	10324.64398
761.201	10110.03732
761.623	9931.55311
762.046	9783.1694
762.468	9596.71382
762.89	9563.66015
763.312	9371.27171
763.734	9119.76201
764.156	8918.49482
764.578	8832.21965
765	8761.24958
765.421	8427.02014
765.843	8340.033
766.264	8195.56563
766.686	7963.51903
767.107	7825.31102
767.528	7794.57471
767.949	7581.49473
768.37	7458.16202
768.791	7260.13544
769.212	7092.40062
769.632	6903.94105
770.053	6892.71096
770.473	6751.15493
770.894	6548.31415
771.314	6402.99463
771.734	6226.05049
772.154	6190.61414
772.575	5980.00701
772.994	5950.96267
773.414	6044.23219
773.834	5826.6914
774.254	5790.63226
774.673	5556.56604
775.093	5466.7873
775.512	5293.80557
775.931	5204.1019
776.351	5111.99605
776.77	4936.01142
777.189	4909.7769
777.607	4860.36591
778.026	4765.27568
778.445	4476.48074
778.864	4594.51165
779.282	4444.15335
779.701	4273.50109
780.119	4298.77005
780.537	4159.58181
780.955	4074.59885
781.373	3842.5609
781.791	3904.92873
782.209	3922.00549
782.627	3825.1746
783.045	3647.22725
783.462	3614.92106
783.88	3493.00326
784.297	3488.81739
784.715	3333.00396
785.132	3305.62826
785.549	3176.82983
785.966	3182.81157
786.383	3090.68017
786.8	3010.33661
787.217	3009.46416
787.633	2897.77823
788.05	2893.36101
788.466	2752.23289
788.883	2717.82325
789.299	2723.49174
789.715	2619.56586
790.131	2645.71821
790.547	2480.56103
790.963	2506.63857
791.379	2357.64192
791.795	2427.11237
792.21	2299.17333
792.626	2251.21661
793.041	2167.43859
793.457	2151.42042
793.872	2144.13787
794.287	1991.15702
794.702	1964.20902
795.117	2029.36635
795.532	1860.26268
795.947	1901.06667
796.362	1845.00993
796.776	1741.76758
797.191	1754.05011
797.605	1659.87651
798.02	1630.87979
798.434	1641.52621
798.848	1588.91767
799.262	1582.95121
799.676	1528.74169
800.09	1569.92188
800.504	1426.61506
800.918	1408.51263
801.331	1371.77264
801.745	1391.43087
802.158	1329.61585
802.572	1263.39316
802.985	1244.37473
803.398	1188.27846
803.811	1171.4064
804.224	1078.19278
804.637	1114.19656
805.05	1089.04566
805.462	1081.19045
805.875	1012.23477
806.288	1030.10635
806.7	960.06442
807.112	942.82619
807.525	884.8814
807.937	885.89207
808.349	871.89417
808.761	909.92584
809.173	859.80404
809.584	818.75818
809.996	775.69173
810.408	777.7951
810.819	835.73206
811.231	809.8956
811.642	847.82327
812.053	880.8745
812.464	815.72809
812.875	672.55951
813.286	702.63621
813.697	735.52376
814.108	652.44133
814.519	612.2337
814.929	622.4451
815.34	661.47856
815.75	569.34496
816.16	533.23008
816.571	537.28294
816.981	537.16829
817.391	541.22229
817.801	554.29709
818.211	441.9802
818.62	538.21969
819.03	467.07284
819.44	462.12889
819.849	369.88557
820.259	426.02029
820.668	444.04204
821.077	424.01241
821.486	405.92631
821.895	410.95374
822.304	385.9773
822.713	373.85417
823.122	386.92441
823.531	385.88447
823.939	369.87006
824.348	442.0236
824.756	383.92439
825.164	350.84206
825.573	392.95982
825.981	316.75797
826.389	323.7902
826.797	269.65225
827.205	317.71574
827.612	310.74782
828.02	292.67529
828.428	292.72853
828.835	263.67902
829.243	309.72466
829.65	252.61711
830.057	266.63709
830.464	260.62154
830.871	241.56764
831.278	195.46626
831.685	262.57816
832.092	302.7255
832.499	252.54328
832.905	221.55072
833.312	241.54505
833.718	229.5636
834.124	233.52374
834.531	191.47562
834.937	198.49476
835.343	194.46714
835.749	162.37243
836.155	210.54136
836.561	206.50597
836.966	222.53658
837.372	210.52872
837.777	163.409
838.183	193.42421
838.588	108.26714
838.993	173.41855
839.399	165.4034
839.804	98.24196
840.209	176.45136
840.613	141.3176
841.018	94.23854
841.423	124.31823
841.828	171.434
842.232	185.4523
842.637	143.34115
843.041	133.3446
843.445	166.4157
843.849	109.27105
844.253	196.4639
844.657	138.35081
845.061	199.45264
845.465	92.22581
845.869	131.30832
846.272	130.32061
846.676	84.20396
847.079	172.44064
847.483	107.26636
847.886	118.28339
848.289	103.27675
848.692	137.34735
849.095	128.31149
849.498	132.33021
849.901	79.18347
850.304	179.42898
850.707	43.11069
851.109	77.1946
851.512	125.31185
851.914	138.3554
852.316	84.21203
852.718	76.19973
853.121	121.29902
853.523	130.31079
853.925	112.29593
854.326	79.19895
854.728	117.30409
855.13	131.34211
855.531	149.36253
855.933	52.12541
856.334	71.18034
856.736	116.26551
857.137	92.21675
857.538	124.31634
857.939	86.21778
858.34	89.21905
858.741	73.19234
859.142	105.25557
859.542	105.27972
859.943	94.23549
860.343	63.15894
860.744	97.23813
861.144	49.12029
861.544	79.19552
861.945	104.26989
862.345	114.2796
862.745	128.32355
863.145	90.2164
863.544	91.23162
863.944	71.16899
864.344	86.21529
864.743	102.25258
865.143	96.2487
865.542	84.19905
865.941	104.26186
866.34	99.23889
866.74	58.15648
867.139	104.25489
867.537	98.25054
867.936	65.15998
868.335	60.15512
868.734	142.36799
869.132	130.30722
869.531	53.12867
869.929	83.19558
870.327	93.22746
870.726	62.15482
871.124	104.24749
871.522	78.20123
871.92	69.17351
872.318	105.25862
872.715	46.11424
873.113	77.19189
873.511	125.31692
873.908	82.21272
874.306	97.24628
874.703	60.15161
875.1	61.15746
875.497	105.25729
875.894	77.19398
876.291	43.1072
876.688	91.23976
877.085	48.11655
877.482	48.12185
877.878	92.22531
878.275	93.2398
878.671	82.18603
879.068	80.19556
879.464	53.13035
879.86	52.12536
880.256	73.18206
880.652	88.22624
881.048	59.14741
881.444	66.15767
881.84	66.16956
882.236	58.1474
882.631	101.25307
883.027	50.12213
883.422	57.14739
883.817	81.21009
884.213	58.15171
884.608	50.12607
885.003	92.22673
885.398	61.15718
885.793	44.11209
886.188	70.17909
886.582	64.16362
886.977	68.16443
887.371	-6.01534
887.766	43.1098
888.16	56.14161
888.554	44.10951
888.949	77.19419
889.343	65.15993
889.737	57.15581
890.131	68.17128
890.525	54.1398
890.918	13.03315
891.312	31.07466
891.706	18.04727
892.099	30.07675
892.492	114.25094
892.886	26.06469
893.279	54.14038
893.672	6.01537
894.065	26.06614
894.458	90.23057
894.851	25.06242
895.244	40.10355
895.637	56.13806
896.029	17.04246
896.422	44.10908
896.814	57.14344
897.206	28.0684
897.599	52.12924
897.991	18.04434
898.383	72.17541
898.775	48.11088
899.167	38.09182
899.559	72.18343
899.951	82.19559
900.342	21.05389
900.734	47.12073
901.125	68.17986
901.517	106.26392
901.908	63.15248
902.299	59.14933
902.69	62.14992
903.082	64.15715
903.473	65.16016
903.863	77.19841
904.254	71.16977
904.645	61.15378
905.036	41.1021
905.426	38.08838
905.817	88.21942
906.207	48.11799
906.597	9.02149
906.987	22.05807
907.378	18.04607
907.768	33.08867
908.158	31.0772
908.547	58.15253
908.937	36.09288
909.327	78.19322
909.717	27.06916
910.106	16.03933
910.495	82.20683
910.885	53.1369
911.274	18.04594
911.663	3.0077
912.052	48.11921
912.441	14.03608
912.83	94.22051
913.219	52.13698
913.608	33.08212
913.997	46.11814
914.385	33.08002
914.774	60.14814
915.162	59.14452
915.55	33.08125
915.939	-6.01554
916.327	0
916.715	2.00521
917.103	85.20952
917.491	48.11938
917.878	17.04207
918.266	-6.0157
918.654	80.20789
919.041	48.12772
919.429	59.14253
919.816	55.14029
920.203	30.07467
920.591	45.11284
920.978	1.00247
921.365	67.17754
921.752	60.14645
922.139	102.22736
922.525	62.15347
922.912	23.05703
923.299	60.15194
923.685	52.13781
924.072	30.06983
924.458	34.08585
924.844	60.1514
925.231	34.08138
925.617	44.11438
926.003	50.12913
926.389	31.0798
926.774	41.10557
927.16	57.1437
927.546	58.1516
927.931	49.12424
928.317	15.03522
928.702	17.04085
929.088	92.22221
929.473	54.13883
929.858	35.08729
930.243	25.06171
930.628	66.16529
931.013	68.1714
931.398	5.01175
931.783	34.08999
932.167	96.23963
932.552	46.11578
932.937	55.13791
933.321	30.07707
933.705	29.0748
934.09	19.04833
934.474	38.09178
934.858	53.13908
935.242	48.1144
935.626	64.16706
936.009	-16.0429
936.393	2.00519
936.777	43.11195
937.16	39.10224
937.544	17.04076
937.927	42.10922
938.311	45.11104
938.694	36.09573
939.077	34.08327
939.46	-20.04914
939.843	104.22393
940.226	-1.00262
940.609	87.20708
940.991	44.11391
941.374	28.07015
941.757	67.166
942.139	50.11725
942.522	38.09074
942.904	54.1322
943.286	29.07428
943.668	50.13145
944.05	47.11806
944.432	74.18706
944.814	22.05468
945.196	42.10586
945.578	66.16331
945.959	50.11995
946.341	40.09753
946.722	51.12167
947.104	45.11002
947.485	60.14246
947.866	77.19944
948.247	31.07891
948.628	26.06403
949.009	38.09953
949.39	27.06821
949.771	48.11427
950.152	73.18291
950.532	51.1294
950.913	30.07391
951.293	64.17497
951.674	112.27876
952.054	79.20073
952.434	22.05555
952.814	62.15015
953.194	42.11038
953.574	44.10876
953.954	19.04635
954.334	43.10933
954.714	28.07022
955.093	39.0968
955.473	18.04578
955.853	24.06286
956.232	-3.00827
956.611	58.14094
956.99	18.04658
957.37	36.09352
957.749	70.17054
958.128	56.14447
958.506	40.10668
958.885	22.05694
959.264	55.13965
959.643	47.10885
960.021	40.10162
960.4	87.20181
960.778	76.18888
961.156	53.13586
961.535	71.16763
961.913	12.02891
962.291	66.17427
962.669	11.02828
963.047	26.06712
963.424	13.03374
963.802	51.1283
964.18	57.14539
964.557	74.17339
964.935	53.12794
965.312	20.05276
965.69	68.17048
966.067	63.15638
966.444	24.05984
966.821	43.11176
967.198	62.15184
967.575	13.03216
967.952	50.11967
968.329	68.1682
968.705	57.12429
969.082	73.19032
969.458	69.17096
969.835	16.03972
970.211	78.20374
970.587	15.03803
970.963	63.1625
971.339	12.03196
971.715	53.13395
972.091	62.15488
972.467	46.11657
972.843	28.07098
973.219	77.18426
973.594	52.13933
973.97	90.21516
974.345	68.1661
974.721	4.00978
975.096	30.07407
975.471	43.10415
975.846	47.11457
976.221	44.11485
976.596	66.16194
976.971	58.14488
977.346	-5.0119
977.72	30.07801
978.095	68.17798
978.469	39.09447
978.844	37.09345
979.218	10.02455
979.593	23.05613
979.967	47.11632
980.341	-1.00237
980.715	51.13087
981.089	17.04292
981.463	107.25311
981.837	48.12016
982.21	50.11789
982.584	42.1037
982.957	41.10491
983.331	57.13744
983.704	24.05915
984.078	53.13342
984.451	46.11462
984.824	63.1566
985.197	53.1303
985.57	56.14216
985.943	41.10173
986.316	32.07979
986.688	39.09528
987.061	73.17542
987.434	16.04243
987.806	57.14071
988.179	59.14296
988.551	33.08536
988.923	-2.00505
989.295	27.06726
989.667	66.16224
990.039	63.15934
990.411	78.1824
990.783	65.15185
991.155	64.15958
991.527	74.1819
991.898	68.1725
992.27	3.00758
992.641	47.11887
993.012	42.10076
993.384	12.02914
993.755	68.17647
994.126	33.08071
994.497	71.17733
994.868	62.14607
995.239	18.04438
995.61	4.01036
995.98	29.07274
996.351	36.09087
996.722	74.17752
997.092	-9.02211
997.462	34.08225
997.833	34.08191
998.203	-4.00988
998.573	-5.01272
998.943	65.15632
999.313	45.11076
999.683	79.19473
1000.053	78.18341
1000.423	-1.00247
1000.792	40.10587
1001.162	-20.05038
1001.531	59.14778
1001.901	91.23171
1002.27	49.11222
1002.639	84.21746
1003.009	24.05803
1003.378	15.03875
1003.747	63.153
1004.116	10.02467
1004.485	8.01946
1004.853	55.14093
1005.222	14.0357
1005.591	33.07978
1005.959	79.1842
1006.328	60.13849
1006.696	38.09461
1007.064	11.02813
1007.433	39.09864
1007.801	63.15483
1008.169	2.0051
1008.537	82.18535
1008.905	63.15076
1009.273	47.11653
1009.64	32.07918
1010.008	101.24427
1010.375	5.01205
1010.743	85.19725
1011.11	61.14792
1011.478	14.03523
1011.845	59.14065
1012.212	88.20409
1012.579	31.077
1012.946	56.135
1013.313	-11.0267
1013.68	61.13926
1014.047	26.06403
1014.414	29.07061
1014.78	20.05039
1015.147	10.02442
1015.513	44.10828
1015.88	43.10999
1016.246	27.06663
1016.612	16.03715
1016.978	-7.01761
1017.344	57.14385
1017.71	29.07085
1018.076	38.09092
1018.442	33.08524
1018.808	20.0511
1019.174	41.10506
1019.539	69.15765
1019.905	41.09879
1020.27	73.18357
1020.636	47.11449
1021.001	43.10435
1021.366	32.07878
1021.731	-27.07025
1022.096	2.00518
1022.461	26.06292
1022.826	23.05579
1023.191	32.08478
1023.556	77.18426
1023.92	7.01744
1024.285	21.05232
1024.649	34.08502
1025.014	10.02534
1025.378	22.0565
1025.742	64.16161
1026.107	51.11704
1026.471	-10.02366
1026.835	57.14437
1027.199	83.20692
1027.562	48.11379
1027.926	23.05715
1028.29	14.03646
1028.654	67.15702
1029.017	12.02982
1029.381	-5.01232
1029.744	-27.07013
1030.107	55.13166
1030.471	-3.0073
1030.834	37.08569
1031.197	35.08468
1031.56	49.11712
1031.923	11.0289
1032.286	39.09301
1032.648	105.25481
1033.011	-3.00706
1033.374	21.04991
1033.736	9.02417
1034.099	44.10995
1034.461	-17.04381
1034.823	9.02282
1035.185	27.06911
1035.548	86.21265
1035.91	31.07585
1036.272	36.0829
1036.634	12.02964
1036.995	61.14709
1037.357	38.09437
1037.719	27.06609
1038.08	60.14372
1038.442	35.08449
1038.803	37.09009
1039.165	60.15479
1039.526	34.08361
1039.887	27.06623
1040.248	-10.02526
1040.609	46.1137
1040.97	60.14955
1041.331	75.19124
1041.692	50.12163
1042.053	46.10736
1042.413	55.13051
1042.774	37.09117
1043.134	56.13577
1043.495	15.03814
1043.855	13.03221
1044.215	53.13409
1044.576	50.12363
1044.936	27.06328
1045.296	61.15367
1045.656	16.03974
1046.016	23.05617
1046.375	-6.01482
1046.735	33.07722
1047.095	48.11432
1047.454	17.03708
1047.814	66.16074
1048.173	-19.04545
1048.533	16.03756
1048.892	-2.00499
1049.251	33.08417
1049.61	35.08757
1049.969	66.16038
1050.328	48.10659
1050.687	59.14511
1051.046	7.01724
1051.405	9.02308
1051.763	13.0309
1052.122	40.10144
1052.48	-40.09978
1052.839	43.10321
1053.197	82.19649
1053.555	9.0204
1053.914	16.03942
1054.272	30.07276
1054.63	28.0705
1054.988	35.08532
1055.345	58.12805
1055.703	13.03186
1056.061	27.0703
1056.419	-2.00528
1056.776	30.07306
1057.134	14.03337
1057.491	14.03554
1057.848	6.01507
1058.206	21.05067
1058.563	-24.05485
1058.92	33.07661
1059.277	12.03005
1059.634	46.10964
1059.991	34.08302
1060.348	23.05384
1060.704	36.08807
1061.061	33.07761
1061.418	42.10313
1061.774	54.13533
1062.131	10.02705
1062.487	39.09329
1062.843	39.0979
1063.199	55.13955
1063.555	44.10519
1063.911	5.01274
1064.267	51.10818
1064.623	17.04232
1064.979	77.18335
1065.335	-7.01701
1065.691	22.05352
1066.046	-28.06223
1066.402	81.18938
1066.757	-31.07977
1067.112	13.03226
1067.468	66.16295
1067.823	49.12034
1068.178	23.05625
1068.533	50.12322
1068.888	23.05575
1069.243	45.11247
1069.598	78.1918
1069.952	16.0375
1070.307	46.11731
1070.662	19.04594
1071.016	37.08522
1071.371	35.08113
1071.725	51.1233
1072.079	-30.07374
1072.434	61.15114
1072.788	31.07568
1073.142	88.21879
1073.496	17.04119
1073.85	-3.00707
1074.203	92.22856
1074.557	29.0782
1074.911	21.05046
1075.265	50.11812
1075.618	32.0786
1075.971	49.11829
1076.325	54.13922
1076.678	26.06183
1077.031	43.10026
1077.385	80.18098
1077.738	66.15252
1078.091	6.01418
1078.444	61.1438
1078.796	-26.06514
1079.149	46.11524
1079.502	48.11768
1079.855	22.05296
1080.207	41.10236
1080.56	-6.0158
1080.912	16.03946
1081.264	69.1682
1081.617	47.11789
1081.969	66.16998
1082.321	1.00248
1082.673	50.11807
1083.025	54.13082
1083.377	-154.35518
1083.728	32.07551
1084.08	18.04561
1084.432	39.09613
1084.783	38.09033
1085.135	32.08164
1085.486	64.15166
1085.838	42.10541
1086.189	26.06391
1086.54	54.13018
1086.891	39.10077
1087.242	-10.02473
1087.593	3.00744
1087.944	56.12787
1088.295	82.18859
1088.646	60.14852
1088.996	69.16795
1089.347	33.08239
1089.698	17.04138
1090.048	-2.00521
1090.398	-21.04979
1090.749	55.13382
1091.099	81.20988
1091.449	27.06831
1091.799	32.08161
1092.149	70.17676
1092.499	6.01492
1092.849	37.09604
1093.199	35.08798
1093.548	62.15212
1093.898	11.02812
1094.248	28.07256
1094.597	12.03177
1094.947	48.12861
1095.296	9.02258
1095.645	39.10234
1095.994	4.00977
1096.343	41.10436
1096.692	109.2945
1097.041	-48.13202
1097.39	91.23212
1097.739	50.13105
1098.088	76.20437
1098.437	35.09358
1098.785	-3.00812
1099.134	31.08275
1099.482	31.08614
1099.83	22.05803
1100.179	45.12012
1100.527	45.12
1100.875	2.00538
1101.223	36.0963
1101.571	16.04476
1101.919	39.10469
1102.267	-2.00569
1102.615	12.03868
1102.962	-4.01289
1103.31	6.01933
1103.658	12.03871
