Data from N2 R0 105C sample4_Subt2__0__11-56-04-958.txt Node

Date: Tue Aug 19 11:56:04 PDT 2025
User: uwsun
Spectrometer: HDX01956
Trigger mode: 0
Integration Time (sec): 1.000000E-1
Scans to average: 1
Nonlinearity correction enabled: true
Boxcar width: 0
Storing dark spectrum: false
XAxis mode: Wavelengths
Number of Pixels in Spectrum: 2068
>>>>>Begin Spectral Data<<<<<
194.03	-5.0147
194.578	9.02935
195.127	-2.00645
195.676	10.03231
196.225	-413.21861
196.773	-329.99422
197.321	-299.90531
197.87	-401.16916
198.418	-446.29665
198.966	-367.07535
199.513	-500.4349
200.061	-454.31841
200.609	-391.15198
201.156	-750.0295
201.704	-457.32311
202.251	-325.96185
202.798	-407.1921
203.345	-506.44485
203.892	-483.394
204.438	-587.65603
204.985	-563.59119
205.532	-373.09669
206.078	-513.46159
206.624	-515.47297
207.17	-615.70761
207.716	-545.54958
208.262	-931.4084
208.808	-481.38256
209.354	-510.44719
209.899	-482.38279
210.445	-462.32653
210.99	-526.49128
211.535	-571.59672
212.08	-577.60904
212.625	-466.33999
213.17	-457.31812
213.715	-648.79
214.259	-620.72656
214.804	-510.44676
215.348	-677.86686
215.892	-569.5999
216.436	-626.73518
216.98	-689.87963
217.524	-588.64452
218.068	-424.223
218.612	-460.32117
219.155	-617.72589
219.698	-579.62653
220.242	-499.42802
220.785	-633.75867
221.328	-520.48574
221.871	-489.4031
222.414	-511.46195
222.956	-537.525
223.499	-696.90687
224.041	-639.77644
224.583	-798.12458
225.126	-746.02191
225.668	-572.61834
226.21	-488.40167
226.751	-726.97071
227.293	-632.74472
227.835	-532.51463
228.376	-668.8458
228.918	-472.35766
229.459	-492.40818
230	-606.69694
230.541	-609.6941
231.082	-603.69551
231.622	-670.84843
232.163	-552.56033
232.704	-527.50016
233.244	-514.46554
233.784	-554.57165
234.324	-695.8972
234.864	-699.92446
235.404	-593.65621
235.944	-616.72071
236.484	-534.51987
237.023	-601.68731
237.563	-648.79168
238.102	-636.76673
238.641	-489.41134
239.18	-618.72789
239.719	-493.41292
240.258	-695.90142
240.797	-556.56357
241.335	-528.49561
241.874	-940.42958
242.412	-546.54243
242.95	-588.6571
243.488	-656.81096
244.026	-665.83665
244.564	-833.18738
245.102	-702.91965
245.64	-613.72572
246.177	-692.89532
246.715	-584.64682
247.252	-651.79519
247.789	-986.50197
248.326	-560.58581
248.863	-707.9201
249.4	-691.90484
249.936	-847.21966
250.473	-594.65007
251.009	-626.73302
251.546	-730.98156
252.082	-737.9938
252.618	-700.89836
253.154	-554.56646
253.69	-689.87484
254.226	-581.62668
254.761	-649.7835
255.297	-769.07524
255.832	-635.77459
256.367	-602.68574
256.903	-763.05306
257.438	-637.77635
257.972	-684.86749
258.507	-632.75072
259.042	-733.98555
259.576	-750.0295
260.111	-645.78311
260.645	-791.11667
261.179	-625.73376
261.713	-682.8638
262.247	-625.73106
262.781	-795.11276
263.315	-506.43756
263.849	-472.35407
264.382	-665.83148
264.915	-579.61959
265.449	-497.42271
265.982	-656.80982
266.515	-559.57798
267.048	-763.04706
267.58	-717.93411
268.113	-747.00999
268.646	-516.4743
269.178	-687.87657
269.71	-727.96804
270.243	-680.8713
270.775	-464.33345
271.307	-582.6377
271.838	-603.67065
272.37	-522.48171
272.902	-683.87926
273.433	-754.02061
273.965	-542.53298
274.496	-527.49524
275.027	-513.46333
275.558	-562.591
276.089	-501.43035
276.62	-453.30352
277.15	-548.54808
277.681	-724.95266
278.211	-600.68528
278.741	-698.89415
279.272	-661.81704
279.802	-508.44799
280.332	-599.67091
280.861	-556.56357
281.391	-652.78242
281.921	-565.59106
282.45	-467.33161
282.98	-398.15757
283.509	-683.85674
284.038	-632.7305
284.567	-636.75246
285.096	-530.49178
285.625	-644.77172
286.153	-635.76259
286.682	-654.80205
287.21	-558.57254
287.739	-565.57848
288.267	-531.49346
288.795	-417.20716
289.323	-552.53574
289.851	-583.62377
290.378	-665.81477
290.906	-529.49326
291.433	-513.45942
291.961	-654.78732
292.488	-488.38347
293.015	-577.61251
293.542	-434.24787
294.069	-527.48761
294.596	-512.44808
295.122	-563.57338
295.649	-720.94314
296.175	-518.46682
296.702	-549.54223
297.228	-545.53099
297.754	-636.74751
298.28	-647.77521
298.806	-549.53753
299.332	-679.84587
299.857	-653.77919
300.383	-445.26957
300.908	-531.49891
301.433	-536.50134
301.958	-643.76423
302.483	-486.38729
303.008	-510.44719
303.533	-407.17269
304.058	-588.63644
304.582	-577.61003
305.107	-373.08551
305.631	-656.78822
306.155	-581.60568
306.679	-619.7075
307.203	-581.60066
307.727	-590.64505
308.251	-491.38843
308.775	-546.52421
309.298	-527.48536
309.822	-438.2505
310.345	-536.49582
310.868	-542.50884
311.391	-494.3908
311.914	-451.28479
312.437	-626.7119
312.96	-585.6228
313.482	-571.58494
314.005	-452.2886
314.527	-359.04379
315.049	-459.30176
315.571	-629.71272
316.093	-437.23221
316.615	-502.40561
317.137	-708.89963
317.659	-463.2969
318.18	-559.55739
318.702	-605.65946
319.223	-765.02025
319.744	-625.69475
320.265	-500.40172
320.786	-443.25255
321.307	-439.23936
321.828	-629.72256
322.348	-531.47111
322.869	-512.42572
323.389	-1317.06475
323.909	-607.65757
324.43	-524.45148
324.95	-574.56369
325.47	-475.32933
325.989	-537.48172
326.509	-634.70503
327.029	-634.71556
327.548	-635.72297
328.067	-466.30151
328.587	-441.24049
329.106	-623.67572
329.625	-363.04325
330.144	-553.51535
330.662	-604.64543
331.181	-541.48151
331.7	-519.42483
332.218	-632.67913
332.736	-541.48573
333.255	-541.4754
333.773	-531.45733
334.291	-434.2124
334.808	-605.63524
335.326	-575.55061
335.844	-531.45365
336.361	-365.02887
336.879	-494.35506
337.396	-471.29864
337.913	-555.50054
338.43	-583.56505
338.947	-520.42329
339.464	-659.73605
339.981	-507.39142
340.497	-440.21592
341.014	-422.1661
341.53	-622.66076
342.046	-445.22841
342.562	-387.0774
343.078	-493.34096
343.594	-475.29567
344.11	-508.38202
344.626	-379.05867
345.141	-588.57409
345.657	-576.52778
346.172	-471.29089
346.687	-556.50348
347.202	-606.61963
347.717	-465.26674
348.232	-403.11856
348.747	-523.40298
349.261	-588.54717
349.776	-513.39004
350.29	-389.0756
350.805	-369.02083
351.319	-481.29442
351.833	-583.54764
352.347	-500.34451
352.861	-503.3431
353.374	-526.3909
353.888	-428.16115
354.401	-523.39333
354.915	-536.41121
355.428	-386.05709
355.941	-461.23001
356.454	-553.44744
356.967	-489.30782
357.48	-526.38904
357.993	-417.1387
358.505	-424.14954
359.018	-414.12311
359.53	-408.10252
360.042	-569.47925
360.554	-431.15894
361.066	-408.10644
361.578	-606.55905
362.09	-475.26825
362.602	-588.52528
363.113	-476.26401
363.625	-522.35999
364.136	-598.5491
364.647	-442.17633
365.158	-477.25129
365.669	-438.16567
366.18	-457.20523
366.691	-557.43366
367.201	-424.12947
367.712	-495.29243
368.222	-490.2774
368.733	-523.34281
369.243	-530.36435
369.753	-430.12802
370.263	-408.08462
370.773	-401.07039
371.282	-434.14352
371.792	-416.08976
372.301	-370.98166
372.811	-275.75111
373.32	-548.36357
373.829	-378.98441
374.338	-522.31946
374.847	-429.10155
375.356	-357.92194
375.865	-574.40916
376.373	-433.08819
376.882	-242.63442
377.39	-324.83168
377.898	-248.6393
378.407	-464.14721
378.915	-515.24108
379.423	-303.75282
379.93	-403.97777
380.438	-185.45918
380.946	-245.59696
381.453	-253.62105
381.96	-233.56136
382.468	-192.45795
382.975	-138.32587
383.482	-294.66341
383.989	-73.17649
384.495	-220.49888
385.002	-318.6832
385.509	-115.25999
386.015	-337.67578
386.521	-92.19477
387.028	-68.13936
387.534	-130.26002
388.04	-45.09387
388.546	-67.13311
389.051	-65.12395
389.557	85.16099
390.063	163.29981
390.568	153.28879
391.073	158.27784
391.578	319.57587
392.084	135.22553
392.589	79.12344
393.093	347.54897
393.598	433.61572
394.103	536.7367
394.607	658.79902
395.112	835.9762
395.616	864.93057
396.12	942.79375
396.624	1085.77362
397.128	1287.77826
397.632	1440.54727
398.136	1582.29198
398.639	1702.1594
399.143	2059.83528
399.646	2324.31696
400.15	2494.97596
400.653	3020.63406
401.156	3232.65868
401.659	4002.60028
402.162	4967.69388
402.664	5250.0245
403.167	7618.72359
403.67	8303.43518
404.172	2527.05866
404.674	0
405.176	0
405.678	0
406.18	0
406.682	0
407.184	0
407.686	25783.58453
408.187	35227.48997
408.688	19105.69871
409.19	12641.11237
409.691	10233.82447
410.192	8576.41404
410.693	7218.85364
411.194	6531.83698
411.694	6419.79782
412.195	6173.78392
412.696	5413.68361
413.196	4745.15794
413.696	4905.75372
414.196	4980.59068
414.696	5186.9854
415.196	4885.10789
415.696	4476.77605
416.196	3306.88221
416.695	2451.77194
417.195	2045.21383
417.694	1650.16413
418.194	1548.3521
418.693	1528.62226
419.192	1533.75842
419.691	1484.7867
420.19	1476.83315
420.688	1474.87908
421.187	1097.62081
421.685	1155.893
422.184	991.98044
422.682	629.73495
423.18	546.76316
423.678	371.58256
424.176	305.5037
424.674	137.23
425.172	253.45531
425.669	257.49391
426.167	144.27467
426.664	16.03168
427.161	-54.10896
427.659	-40.08764
428.156	-288.59047
428.652	17.03929
429.149	-73.16564
429.646	-250.54568
430.143	-167.38569
430.639	-197.45751
431.135	-69.16606
431.632	-294.68881
432.128	-205.49503
432.624	-142.3597
433.12	-373.89074
433.616	-448.05513
434.111	-357.885
434.607	-299.74505
435.103	-546.28033
435.598	-508.18369
436.093	-362.90443
436.588	-514.25661
437.083	-494.22194
437.578	-432.08664
438.073	-278.73223
438.568	-400.046
439.062	-593.46628
439.557	-423.08574
440.051	-516.30474
440.546	-523.33674
441.04	-408.07093
441.534	-304.82136
442.028	-460.20684
442.522	-434.14007
443.015	-610.54645
443.509	-407.08286
444.002	-390.03634
444.496	-578.47149
444.989	-436.15765
445.482	-392.05372
445.975	-495.28451
446.468	-612.54055
446.961	-619.57343
447.454	-567.46043
447.947	-465.23456
448.439	-496.31631
448.931	-563.46964
449.424	-402.08769
449.916	-433.16015
450.408	-583.51929
450.9	-420.12655
451.392	-415.13468
451.884	-574.50625
452.375	-413.13243
452.867	-602.56856
453.358	-582.53137
453.849	-677.7227
454.341	-574.4971
454.832	-655.68017
455.323	-475.28905
455.814	-554.46353
456.304	-552.45337
456.795	-566.49425
457.285	-656.7023
457.776	-603.58052
458.266	-530.42479
458.756	-548.47609
459.247	-489.31426
459.737	-508.3767
460.226	-602.58561
460.716	-513.39407
461.206	-505.36879
461.695	-510.40959
462.185	-585.56786
462.674	-550.46797
463.163	-705.84848
463.653	-734.90138
464.142	-519.41626
464.63	-493.35595
465.119	-595.58892
465.608	-577.54944
466.096	-716.87762
466.585	-616.65177
467.073	-567.53943
467.561	-534.44955
468.05	-615.65797
468.538	-497.36481
469.026	-553.50814
469.513	-617.65147
470.001	-642.70626
470.489	-547.48987
470.976	-607.63481
471.463	-487.34912
471.951	-489.35509
472.438	-610.657
472.925	-617.67145
473.412	-533.4656
473.899	-664.78047
474.385	-557.5427
474.872	-563.53298
475.359	-519.43919
475.845	-789.04046
476.331	-791.05894
476.817	-552.52098
477.303	-632.71346
477.789	-552.5162
478.275	-502.39482
478.761	-546.50633
479.247	-645.72698
479.732	-515.44932
480.218	-424.20975
480.703	-518.45267
481.188	-779.04764
481.673	-657.77807
482.158	-742.96016
482.643	-500.406
483.128	-668.80987
483.612	-632.72336
484.097	-586.6238
484.581	-644.74374
485.066	-566.58103
485.55	-727.94389
486.034	-824.18006
486.518	-600.65224
487.002	-515.44887
487.486	-539.49933
487.969	-521.45729
488.453	-523.47274
488.936	-678.83932
489.42	-768.05075
489.903	-526.48411
490.386	-1166.75925
490.869	-759.00774
491.352	-577.61003
491.835	-834.16608
492.318	-613.66755
492.8	-836.19047
493.283	-453.29434
493.765	-529.48693
494.247	-642.7562
494.73	-750.01578
495.212	-576.59857
495.694	-641.76263
496.175	-576.60155
496.657	-614.69398
497.139	-1104.70424
497.62	-594.64751
498.102	-493.38482
498.583	-515.45415
499.064	-699.9075
499.545	-664.81002
500.026	-699.89534
500.507	-630.7283
500.988	-516.46335
501.469	-479.36139
501.949	-507.42765
502.43	-575.59901
502.91	-812.13475
503.39	-546.54429
503.87	-590.63743
504.35	-645.77977
504.83	-730.96501
505.31	-576.60699
505.79	-574.60732
506.269	-608.67847
506.749	-680.86011
507.228	-618.7178
507.707	-735.98712
508.187	-620.71267
508.666	-547.55155
509.145	-603.67169
509.623	-640.76348
510.102	-547.53005
510.581	-623.73732
511.059	-484.37665
511.538	-456.31043
512.016	-560.56811
512.494	-566.59122
512.972	-597.65763
513.45	-612.69163
513.928	-518.4602
514.406	-522.46925
514.884	-447.28962
515.361	-584.63933
515.839	-660.81058
516.316	-567.59088
516.793	-483.37933
517.27	-595.65975
517.747	-440.26588
518.224	-636.75906
518.701	-662.80342
519.178	-551.56102
519.654	-620.72549
520.131	-546.54476
520.607	-545.54355
521.083	-672.84523
521.56	-583.62828
522.036	-722.94727
522.512	-589.65815
522.987	-595.66435
523.463	-573.60231
523.939	-545.53705
524.414	-663.82311
524.89	-594.65058
525.365	-649.77394
525.84	-568.59781
526.315	-553.55395
526.79	-692.89112
527.265	-637.75715
527.74	-553.55537
528.215	-587.63491
528.689	-701.89954
529.164	-750.0007
529.638	-447.293
530.112	-601.6801
530.587	-777.07988
531.061	-572.61102
531.534	-593.65926
532.008	-559.56986
532.482	-697.90023
532.956	-472.35567
533.429	-578.62644
533.903	-731.96738
534.376	-742.00332
534.849	-652.80611
535.322	-598.66067
535.795	-554.5622
536.268	-605.69129
536.741	-575.60346
537.213	-672.85627
537.686	-533.50592
538.158	-728.98437
538.631	-578.61902
539.103	-659.79668
539.575	-832.17559
540.047	-753.03008
540.519	-572.59878
540.991	-571.61186
541.463	-557.56472
541.934	-652.78977
542.406	-567.58407
542.877	-655.79601
543.348	-579.6295
543.82	-554.55558
544.291	-645.77977
544.762	-587.62733
545.233	-486.38605
545.703	-705.90853
546.174	-620.7116
546.645	-566.58928
547.115	-534.50122
547.585	-653.79223
548.056	-519.4659
548.526	-576.60947
548.996	-567.58017
549.466	-560.57291
549.935	-580.61666
550.405	-716.92797
550.875	-600.66932
551.344	-548.53544
551.814	-602.65253
552.283	-749.98952
552.752	-576.58962
553.221	-663.79488
553.69	-685.84065
554.159	-438.23298
554.628	-658.79024
555.096	-381.08897
555.565	-628.70042
556.033	-561.54457
556.502	-514.43747
556.97	-634.69781
557.438	-550.51927
557.906	-566.56837
558.374	-587.59988
558.842	-533.47482
559.31	-613.65043
559.777	-489.35762
560.245	-516.41726
560.712	-537.47008
561.18	-584.57515
561.647	-589.58013
562.114	-532.43529
562.581	-414.15146
563.048	-495.3356
563.514	-385.06718
563.981	-523.40435
564.448	-525.40005
564.914	-447.20711
565.381	-479.27515
565.847	-367.9865
566.313	-398.06813
566.779	-463.2096
567.245	-390.04936
567.711	-298.80777
568.176	-398.04287
568.642	-177.48627
569.108	-160.43222
569.573	-212.56313
570.038	-397.00147
570.504	-321.82412
570.969	-23.06206
571.434	-237.60511
571.899	-76.19838
572.363	-155.39438
572.828	-101.25417
573.293	-89.22533
573.757	-76.19053
574.222	-40.09959
574.686	14.03478
575.15	69.17488
575.614	71.17456
576.078	113.28314
576.542	77.18798
577.006	60.14585
577.469	248.62505
577.933	108.26331
578.396	172.42325
578.86	208.50975
579.323	257.63762
579.786	88.20571
580.249	171.41698
580.712	285.70759
581.175	287.71904
581.637	139.33325
582.1	124.2927
582.563	79.18275
583.025	269.66788
583.487	-20.04563
583.95	85.20123
584.412	25.05811
584.874	248.61159
585.336	233.56921
585.797	93.21693
586.259	203.49667
586.721	164.40267
587.182	155.37628
587.643	105.25366
588.105	225.55314
588.566	1.0023
589.027	253.62885
589.488	162.38935
589.949	262.64753
590.41	-10.02199
590.87	185.43643
591.331	130.29684
591.791	280.67189
592.252	334.78465
592.712	352.84462
593.172	344.79615
593.632	309.70167
594.092	383.86649
594.552	308.68677
595.011	491.11141
595.471	478.04391
595.931	528.14795
596.39	715.61911
596.849	750.63126
597.308	647.3447
597.768	998.25856
598.227	958.01701
598.685	950.90735
599.144	1053.13943
599.603	1226.44818
600.062	1135.06991
600.52	1327.42379
600.978	1561.8331
601.437	1586.73264
601.895	1604.54983
602.353	1779.82707
602.811	1949.04616
603.269	2174.46624
603.727	2378.60526
604.184	2497.39573
604.642	2758.83253
605.099	2785.51219
605.557	3117.84692
606.014	3127.27326
606.471	3598.01257
606.928	3437.24226
607.385	3983.83675
607.842	3959.21449
608.299	4266.32273
608.755	4496.41167
609.212	4562.78151
609.668	4846.71875
610.125	5171.0192
610.581	5369.71978
611.037	5502.42235
611.493	5728.52283
611.949	5987.79347
612.405	5911.52714
612.861	6190.29077
613.316	6540.33322
613.772	6484.13787
614.227	6855.24596
614.683	6710.65088
615.138	6991.13283
615.593	7099.10475
616.048	7124.95511
616.503	7341.37957
616.958	7400.59598
617.412	7365.20571
617.867	7211.86498
618.321	7125.55691
618.776	7195.87322
619.23	7208.12135
619.684	7223.94598
620.138	7161.03948
620.592	7150.35646
621.046	7008.07974
621.5	7151.40838
621.954	6800.90331
622.407	6637.85701
622.861	6669.36998
623.314	6453.99251
623.768	6442.18518
624.221	6138.40428
624.674	6219.15407
625.127	6152.25307
625.58	6052.11978
626.033	5862.95171
626.485	5848.58839
626.938	5871.49535
627.39	5892.3896
627.843	5719.40081
628.295	5588.38937
628.747	5691.58423
629.199	5652.30929
629.651	5565.38335
630.103	5663.4049
630.555	5433.94604
631.006	5565.53086
631.458	5655.57525
631.909	5596.28734
632.361	5667.45389
632.812	5796.3752
633.263	5572.95829
633.714	5843.76639
634.165	6079.60049
634.616	6117.41623
635.067	5962.88843
635.518	6343.26878
635.968	6067.33714
636.419	6516.68254
636.869	6815.11256
637.319	6919.9805
637.769	7042.8605
638.219	7351.0829
638.669	7700.30361
639.119	7989.59417
639.569	8161.61214
640.019	8481.76434
640.468	8771.08553
640.918	9192.90715
641.367	9354.15948
641.816	9742.07155
642.265	10170.25032
642.714	10567.55268
643.163	11084.49015
643.612	11560.33063
644.061	11585.12565
644.51	12345.77233
644.958	12553.52461
645.406	13287.60572
645.855	13643.93244
646.303	13866.33459
646.751	14364.54614
647.199	14803.7394
647.647	15005.40702
648.095	15599.04361
648.543	15792.26996
648.99	16244.5796
649.438	16598.62747
649.885	17076.98204
650.333	16910.84736
650.78	17503.2908
651.227	17848.27608
651.674	17802.77384
652.121	18061.49246
652.568	18476.53572
653.015	18431.4161
653.461	18301.96754
653.908	18203.13351
654.354	18204.89776
654.801	17960.86985
655.247	17778.05395
655.693	18113.16283
656.139	17995.78483
656.585	17917.08747
657.031	17726.91561
657.477	17654.75385
657.922	17484.29489
658.368	17454.59819
658.813	17293.29748
659.259	17038.10225
659.704	17002.57163
660.149	16931.34255
660.594	16653.94437
661.039	16343.36525
661.484	16336.6034
661.929	16130.60316
662.373	16362.2187
662.818	16178.71941
663.262	15982.37709
663.707	16002.66636
664.151	15886.12506
664.595	15871.36476
665.039	15907.99358
665.483	15958.03285
665.927	15834.39994
666.371	15934.4918
666.814	15951.31436
667.258	16108.63498
667.701	15876.46983
668.145	16356.83369
668.588	16459.33555
669.031	16431.38443
669.474	16510.15593
669.917	16661.72426
670.36	17044.42256
670.803	17148.75475
671.245	16927.5861
671.688	17113.04542
672.13	17222.74667
672.573	17594.00923
673.015	17745.62397
673.457	17771.26564
673.899	17912.94522
674.341	18214.54835
674.783	18259.34778
675.225	18510.13814
675.666	18561.65112
676.108	18519.15851
676.549	18711.66642
676.991	18706.76964
677.432	18577.08141
677.873	18599.80403
678.314	18592.6658
678.755	18487.88055
679.196	18241.11086
679.637	18137.5678
680.078	17880.3732
680.518	17832.78579
680.959	17795.23849
681.399	17767.16631
681.839	17490.47029
682.28	17222.83191
682.72	16833.77716
683.16	16743.38614
683.6	16371.01326
684.039	16115.71756
684.479	16156.89037
684.919	16075.94874
685.358	15914.86365
685.798	15836.37191
686.237	15710.62701
686.676	15234.86532
687.115	15129.46343
687.554	14998.05096
687.993	14706.43762
688.432	14374.86014
688.871	14358.67569
689.309	14251.27063
689.748	13893.2483
690.186	14173.74442
690.625	13906.75202
691.063	13989.96547
691.501	13722.71738
691.939	13635.87715
692.377	13616.98211
692.815	13432.75018
693.253	13396.48181
693.69	13090.16346
694.128	13202.91582
694.565	13032.06583
695.003	12988.11661
695.44	12741.20185
695.877	12636.49411
696.314	12350.65415
696.751	12172.14224
697.188	12193.08545
697.625	12080.55188
698.061	12055.98886
698.498	11879.10544
698.934	11874.01363
699.371	11647.99266
699.807	11588.75022
700.243	11316.36419
700.679	11170.00993
701.115	11094.58372
701.551	10851.56848
701.987	10657.95178
702.422	10644.74767
702.858	10529.3817
703.294	10386.00023
703.729	10477.1356
704.164	10129.08981
704.599	9798.23043
705.035	9831.30388
705.47	9774.15825
705.904	9636.81398
706.339	9461.39412
706.774	9247.97418
707.209	9089.66566
707.643	9129.80273
708.078	9048.72888
708.512	8959.6507
708.946	8815.25021
709.38	8744.14619
709.814	8431.64284
710.248	8528.94016
710.682	8457.83122
711.116	8399.82508
711.549	8127.82369
711.983	7951.25978
712.416	7835.25697
712.85	8045.66291
713.283	7703.23665
713.716	7574.40434
714.149	7522.09547
714.582	7188.83841
715.015	7331.28524
715.448	7115.38987
715.881	6715.52518
716.313	6765.00591
716.746	6743.07644
717.178	6704.14339
717.61	6585.43266
718.043	6612.34914
718.475	6369.21505
718.907	6410.51986
719.339	6132.00508
719.77	6138.26714
720.202	6066.67347
720.634	5987.58079
721.065	5831.3764
721.497	5827.58335
721.928	5661.74166
722.359	5752.66678
722.79	5545.72258
723.221	5556.8509
723.652	5455.02741
724.083	5207.44854
724.514	5094.54198
724.945	5081.72498
725.375	5020.80863
725.806	5088.01282
726.236	4901.36235
726.666	4819.88257
727.096	4805.18153
727.526	4908.38086
727.956	4591.73006
728.386	4660.21098
728.816	4719.42368
729.246	4591.30981
729.675	4559.37627
730.105	4354.2622
730.534	4254.09022
730.964	4346.5038
731.393	4270.36301
731.822	4321.6821
732.251	4396.55096
732.68	4087.11312
733.109	4216.42105
733.537	4059.41476
733.966	4130.66044
734.395	4007.10244
734.823	3909.89874
735.251	3943.49006
735.68	4018.64163
736.108	3942.70799
736.536	3818.26922
736.964	3711.28396
737.392	3783.72415
737.82	3734.46162
738.247	3773.38677
738.675	3600.41433
739.102	3761.77964
739.53	3778.89124
739.957	3811.95561
740.384	3587.56432
740.811	3700.7758
741.238	3625.60788
741.665	3402.29246
742.092	3415.49212
742.519	3526.72753
742.945	3451.54191
743.372	3521.75623
743.798	3586.97467
744.225	3424.47433
744.651	3408.81233
745.077	3401.77782
745.503	3375.61401
745.929	3320.53128
746.355	3451.70785
746.781	3348.73817
747.207	3208.55615
747.632	3389.76305
748.058	3251.80176
748.483	3220.32877
748.908	3331.73996
749.334	3327.72165
749.759	3159.38612
750.184	3221.5655
750.609	3195.728
751.033	3161.42907
751.458	2985.15803
751.883	3212.72735
752.307	3124.49724
752.732	3312.91319
753.156	3180.80898
753.58	3074.5238
754.005	3096.83579
754.429	3128.47681
754.853	3123.74689
755.277	2911.40502
755.7	3119.7776
756.124	3104.7798
756.548	3024.55094
756.971	3009.55795
757.394	3183.03683
757.818	3160.96778
758.241	3079.90387
758.664	3051.91433
759.087	2831.22102
759.51	2968.72593
759.933	3008.62483
760.356	2973.91034
760.778	2961.78453
761.201	2868.61686
761.623	2798.51893
762.046	2803.45405
762.468	2767.40712
762.89	2804.6353
763.312	2795.69028
763.734	2762.53618
764.156	2793.69223
764.578	2627.32056
765	2712.62735
765.421	2763.88343
765.843	2738.99376
766.264	2577.49323
766.686	2594.65177
767.107	2494.47407
767.528	2650.82692
767.949	2561.78852
768.37	2393.4377
768.791	2369.44139
769.212	2424.69784
769.632	2248.24063
770.053	2508.96725
770.473	2253.39685
770.894	2224.46477
771.314	2065.12256
771.734	2019.09462
772.154	2147.53212
772.575	1955.96792
772.994	1917.90764
773.414	2025.17036
773.834	2103.44568
774.254	2016.33462
774.673	1879.11818
775.093	1877.21084
775.512	1822.12005
775.931	1872.29569
776.351	1747.09385
776.77	1757.06091
777.189	1629.81237
777.607	1756.2171
778.026	1639.02182
778.445	1652.06164
778.864	1640.09144
779.282	1474.70073
779.701	1469.81144
780.119	1582.07673
780.537	1428.77257
780.955	1415.74792
781.373	1334.58848
781.791	1101.03696
782.209	1155.14036
782.627	1463.02822
783.045	1115.13045
783.462	1214.53768
783.88	1247.61298
784.297	1151.39165
784.715	1184.50963
785.132	1077.19619
785.549	1071.25965
785.966	1027.18086
786.383	996.08249
786.8	802.64765
787.217	810.69994
787.633	868.90399
788.05	703.48329
788.466	630.32125
788.883	812.8288
789.299	756.62205
789.715	716.57833
790.131	744.67424
790.547	659.48194
790.963	691.56347
791.379	681.56577
791.795	422.91714
792.21	449.99218
792.626	439.98547
793.041	561.29735
793.457	563.2994
793.872	388.87584
794.287	381.88368
794.702	419.98024
795.117	436.03834
795.532	395.95837
795.947	328.76485
796.362	242.57232
796.776	143.33184
797.191	283.68335
797.605	196.4716
798.02	255.6118
798.434	10.02285
798.848	242.5946
799.262	237.58887
799.676	147.35726
800.09	185.46236
800.504	62.15268
800.918	42.10141
801.331	175.45028
801.745	-75.18173
802.158	64.16328
802.572	-46.11495
802.985	-17.04235
803.398	-55.13707
803.811	33.08512
804.224	-31.07893
804.637	-89.22493
805.05	-211.52313
805.462	-101.25971
805.875	19.05062
806.288	-136.35122
806.7	-66.1731
807.112	-271.67701
807.525	-141.36646
807.937	-178.4673
808.349	-155.40988
808.761	-183.47936
809.173	-229.59535
809.584	-212.55579
809.996	-228.60239
810.408	-98.26543
810.819	-317.82519
811.231	-73.20024
811.642	-238.63049
812.053	-265.70329
812.464	-277.72603
812.875	-211.57431
813.286	-202.55361
813.697	-425.10451
814.108	-319.84683
814.519	-532.35001
814.929	-271.73947
815.34	-345.92982
815.75	-272.74659
816.16	-352.95408
816.571	-276.76093
816.981	-482.27061
817.391	-373.99835
817.801	-333.91352
818.211	-506.33886
818.62	-416.1209
819.03	-468.27105
819.44	-307.85661
819.849	-406.11197
820.259	-395.08983
820.668	-408.11249
821.077	-405.11607
821.486	-506.36199
821.895	-494.34648
822.304	-283.80159
822.713	-540.45547
823.122	-440.21287
823.531	-534.44442
823.939	-466.27008
824.348	-459.24798
824.756	-441.22306
825.164	-461.27263
825.573	-406.13476
825.981	-505.39292
826.389	-436.21049
826.797	-511.41302
827.205	-634.70004
827.612	-495.36831
828.02	-601.62757
828.428	-434.21873
828.835	-382.0907
829.243	-583.59657
829.65	-501.39096
830.057	-557.535
830.464	-565.5551
830.871	-604.64754
831.278	-603.65292
831.685	-731.93789
832.092	-556.54448
832.499	-784.05214
832.905	-504.41381
833.312	-675.80196
833.718	-544.52142
834.124	-735.96913
834.531	-535.50014
834.937	-524.47264
835.343	-595.63821
835.749	-707.89788
836.155	-457.30771
836.561	-554.54369
836.966	-604.67785
837.372	-513.45113
837.777	-537.50943
838.183	-818.16491
838.588	-605.68349
838.993	-611.68755
839.399	-606.68497
839.804	-615.70867
840.209	-482.37136
840.613	-795.11903
841.018	-570.60879
841.423	-516.46511
841.828	-508.43719
842.232	-602.67799
842.637	-665.82227
843.041	-503.43905
843.445	-557.56853
843.849	-613.71575
844.253	-657.8015
844.657	-529.49596
845.061	-751.02207
845.465	-637.76539
845.869	-712.94017
846.272	-625.74612
846.676	-673.85641
847.079	-517.4765
847.483	-603.68621
847.886	-674.85247
848.289	-454.32486
848.692	-563.59647
849.095	-640.77177
849.498	-589.65664
849.901	-766.06213
850.304	-664.83647
850.707	-563.59455
851.109	-581.63265
851.512	-604.69703
851.914	-528.5095
852.316	-603.70014
852.718	-508.46001
853.121	-632.76811
853.523	-687.88847
853.925	-492.42475
854.326	-635.79413
854.728	-518.48571
855.13	-490.40824
855.531	-633.75595
855.933	-713.95804
856.334	-583.64425
856.736	-798.14689
857.137	-754.05408
857.538	-556.58016
857.939	-602.7022
858.34	-654.82065
858.741	-514.48117
859.142	-664.83876
859.542	-453.31228
859.943	-620.74409
860.343	-617.73697
860.744	-660.83735
861.144	-681.88787
861.544	-642.78946
861.945	-521.49014
862.345	-651.81314
862.745	-583.6517
863.145	-705.94036
863.544	-585.65836
863.944	-744.03392
864.344	-619.73784
864.743	-652.82739
865.143	-537.53547
865.542	-760.07964
865.941	-591.66479
866.34	-668.83599
866.74	-465.35525
867.139	-663.84598
867.537	-565.60454
867.936	-659.82918
868.335	-560.59533
868.734	-518.48746
869.132	-734.01038
869.531	-696.91711
869.929	-757.06061
870.327	-675.87647
870.726	-634.7737
871.124	-731.00437
871.522	-568.62149
871.92	-621.74611
872.318	-656.83241
872.715	-675.8869
873.113	-646.81169
873.511	-581.649
873.908	-573.64569
874.306	-585.65637
874.703	-612.72316
875.1	-584.66767
875.497	-664.84905
875.894	-629.77558
876.291	-649.81203
876.688	-497.43235
877.085	-727.00782
877.482	-623.76077
877.878	-674.87514
878.275	-546.55636
878.671	-837.23754
879.068	-686.90556
879.464	-674.8705
879.86	-726.99716
880.256	-633.77172
880.652	-562.60055
881.048	-647.81366
881.444	-763.09675
881.84	-586.66841
882.236	-613.73408
882.631	-621.74929
883.027	-701.94146
883.422	-575.64124
883.817	-556.5924
884.213	-548.57365
884.608	-631.77584
885.003	-665.85725
885.398	-554.57259
885.793	-608.71864
886.188	-587.66653
886.582	-596.69183
886.977	-710.9581
887.371	-624.76014
887.766	-629.78682
888.16	-622.75397
888.554	-660.84358
888.949	-627.771
889.343	-670.86229
889.737	-438.28613
890.131	-643.81618
890.525	-563.60507
890.918	-633.78903
891.312	-749.05633
891.706	-553.58544
892.099	-609.72432
892.492	-870.29483
892.886	-664.85019
893.279	-563.61079
893.672	-609.71965
894.065	-623.75812
894.458	-563.59934
894.851	-671.87688
895.244	-569.62025
895.637	-685.90896
896.029	-674.8844
896.422	-669.86498
896.814	-631.77476
897.206	-724.00233
897.599	-657.83436
897.991	-695.92725
898.383	-693.91932
898.775	-809.1726
899.167	-736.02412
899.559	-582.64565
899.951	-754.07168
900.342	-597.68933
900.734	-581.64801
901.125	-511.47574
901.517	-629.76591
901.908	-705.9428
902.299	-610.71909
902.69	-704.93791
903.082	-682.89563
903.473	-671.86767
903.863	-571.62885
904.254	-742.0355
904.645	-629.77236
905.036	-675.8898
905.426	-811.18716
905.817	-645.81247
906.207	-709.97579
906.597	-781.13203
906.987	-545.56847
907.378	-620.75573
907.768	-502.46046
908.158	-648.80395
908.547	-527.51576
908.937	-595.69479
909.327	-647.8059
909.717	-601.70065
910.106	-709.96604
910.495	-617.74171
910.885	-565.6079
911.274	-619.74841
911.663	-612.73099
912.052	-652.81677
912.441	-600.70318
912.83	-774.10857
913.219	-529.52286
913.608	-645.79422
913.997	-607.72794
914.385	-714.96418
914.774	-663.84484
915.162	-702.95178
915.55	-700.94622
915.939	-605.72122
916.327	-643.79915
916.715	-569.62025
917.103	-665.85554
917.491	-666.86204
917.878	-691.92211
918.266	-582.66442
918.654	-539.5421
919.041	-521.51032
919.429	-749.07053
919.816	-617.75117
920.203	-666.85805
920.591	-648.8184
920.978	-709.96909
921.365	-517.49655
921.752	-693.91872
922.139	-886.36186
922.525	-668.86477
922.912	-691.92686
923.299	-625.76642
923.685	-497.43152
924.072	-829.24074
924.458	-618.73371
924.844	-629.77343
925.231	-759.07723
925.617	-568.6239
926.003	-577.64401
926.389	-598.69953
926.774	-570.61608
927.16	-633.78363
927.546	-541.55103
927.931	-609.71602
928.317	-801.16577
928.702	-755.06628
929.088	-709.96054
929.473	-590.6788
929.858	-664.85646
930.243	-688.91111
930.628	-658.8532
931.013	-625.76163
931.398	-787.12107
931.783	-529.52508
932.167	-624.75161
932.552	-642.80596
932.937	-671.89237
933.321	-617.75536
933.705	-577.63715
934.09	-637.79924
934.474	-729.00203
934.858	-534.53343
935.242	-759.0746
935.626	-552.58467
936.009	-534.5469
936.393	-600.70929
936.777	-583.67245
937.16	-546.56606
937.544	-758.07154
937.927	-553.57749
938.311	-673.87034
938.694	-520.50371
939.077	-706.95621
939.46	-727.00657
939.843	-919.39769
940.226	-570.63251
940.609	-741.02988
940.991	-583.66457
941.374	-673.88938
941.757	-649.80925
942.139	-791.14493
942.522	-772.11448
942.904	-698.93706
943.286	-618.75374
943.668	-522.49807
944.05	-635.78166
944.432	-626.77058
944.814	-701.96133
945.196	-617.73012
945.578	-655.8254
945.959	-738.02198
946.341	-728.01528
946.722	-756.06804
947.104	-699.93532
947.485	-771.10874
947.866	-555.58649
948.247	-629.7788
948.628	-698.93826
949.009	-536.53374
949.39	-642.80651
949.771	-765.091
950.152	-642.80651
950.532	-634.79482
950.913	-687.90626
951.293	-427.25326
951.674	-626.75776
952.054	-604.71145
952.434	-634.77967
952.814	-712.96484
953.194	-548.57642
953.574	-699.95274
953.954	-718.982
954.334	-628.7773
954.714	-657.84168
955.093	-677.89017
955.473	-633.78633
955.853	-568.62966
956.232	-444.3034
956.611	-728.01528
956.99	-590.6793
957.37	-571.6303
957.749	-722.00486
958.128	-592.69051
958.506	-506.4649
958.885	-593.6896
959.264	-636.80318
959.643	-831.24397
960.021	-638.80614
960.4	-805.18148
960.778	-654.83187
961.156	-599.70212
961.535	-788.15489
961.913	-743.03214
962.291	-522.5073
962.669	-619.75737
963.047	-582.65307
963.424	-596.70093
963.802	-641.80343
964.18	-601.70218
964.557	-800.17939
964.935	-739.03652
965.312	-541.55468
965.69	-648.82449
966.067	-671.8786
966.444	-680.90233
966.821	-562.60484
967.198	-700.94622
967.575	-701.95111
967.952	-765.10092
968.329	-655.8254
968.705	-904.35739
969.082	-548.57272
969.458	-664.85589
969.835	-684.9053
970.211	-536.53918
970.587	-637.79326
970.963	-587.67648
971.339	-520.50065
971.715	-633.78633
972.091	-639.7896
972.467	-621.75141
972.843	-612.7195
973.219	-739.0295
973.594	-498.4484
973.97	-721.97999
974.345	-691.91616
974.721	-704.93852
975.096	-692.92519
975.471	-725.99911
975.846	-697.92498
976.221	-566.62344
976.596	-660.82769
976.971	-649.81926
977.346	-791.15248
977.72	-575.6427
978.095	-552.58932
978.469	-731.0132
978.844	-637.79326
979.218	-725.00853
979.593	-716.97772
979.967	-670.86632
980.341	-787.13135
980.715	-579.64135
981.089	-648.82117
981.463	-748.04744
981.837	-650.8229
982.21	-778.11474
982.584	-686.91027
982.957	-615.74601
983.331	-714.96233
983.704	-721.00672
984.078	-630.77114
984.451	-673.88593
984.824	-663.85622
985.197	-699.94675
985.57	-601.69502
985.943	-676.88709
986.316	-652.81845
986.688	-703.94457
987.061	-720.98005
987.434	-529.52375
987.806	-670.86517
988.179	-717.98017
988.551	-584.66371
988.923	-671.88607
989.295	-678.89557
989.667	-685.9072
990.039	-616.73758
990.411	-784.12833
990.783	-799.168
991.155	-645.80585
991.527	-672.86958
991.898	-609.72173
992.27	-664.86725
992.641	-622.75184
993.012	-753.06536
993.384	-727.9996
993.755	-547.56222
994.126	-721.9999
994.497	-646.81335
994.868	-774.10521
995.239	-697.93459
995.61	-582.65258
995.98	-662.85767
996.351	-655.84783
996.722	-725.99285
997.092	-719.98817
997.462	-733.01555
997.833	-738.02389
998.203	-710.97095
998.573	-637.79326
998.943	-742.04319
999.313	-695.93382
999.683	-686.91851
1000.053	-771.09805
1000.423	-708.96662
1000.792	-535.54509
1001.162	-673.8842
1001.531	-647.81753
1001.901	-581.64653
1002.27	-866.33126
1002.639	-555.58743
1003.009	-745.04856
1003.378	-614.75021
1003.747	-704.94521
1004.116	-699.93954
1004.485	-758.09378
1004.853	-605.72071
1005.222	-646.82988
1005.591	-748.06036
1005.959	-781.11442
1006.328	-820.20893
1006.696	-657.83323
1007.064	-634.7959
1007.433	-633.78363
1007.801	-691.92448
1008.169	-641.81217
1008.537	-837.23095
1008.905	-740.0281
1009.273	-693.94015
1009.64	-699.95095
1010.008	-697.92859
1010.375	-761.08533
1010.743	-788.1296
1011.11	-739.04669
1011.478	-648.81507
1011.845	-748.04485
1012.212	-810.19679
1012.579	-676.88593
1012.946	-732.01375
1013.313	-761.09322
1013.68	-844.26251
1014.047	-704.95673
1014.414	-734.02811
1014.78	-673.89628
1015.147	-741.04841
1015.513	-680.88714
1015.88	-637.8144
1016.246	-708.9727
1016.612	-850.29562
1016.978	-657.83661
1017.344	-646.82548
1017.71	-733.0307
1018.076	-770.11166
1018.442	-597.70201
1018.808	-604.70425
1019.174	-598.69547
1019.539	-844.26693
1019.905	-752.06943
1020.27	-646.82438
1020.636	-705.94827
1021.001	-731.01761
1021.366	-702.95178
1021.731	-589.67271
1022.096	-613.74866
1022.461	-732.01059
1022.826	-733.01682
1023.191	-539.55709
1023.556	-726.99277
1023.92	-689.92424
1024.285	-683.90925
1024.649	-673.88823
1025.014	-641.80343
1025.378	-615.74654
1025.742	-625.76323
1026.107	-827.2166
1026.471	-816.2166
1026.835	-622.75662
1027.199	-650.82624
1027.562	-768.09289
1027.926	-693.93659
1028.29	-581.65935
1028.654	-783.12527
1029.017	-690.92437
1029.381	-716.98512
1029.744	-619.76315
1030.107	-740.02618
1030.471	-749.06214
1030.834	-830.2373
1031.197	-740.03768
1031.56	-769.11058
1031.923	-552.58141
1032.286	-760.07569
1032.648	-693.9229
1033.011	-818.21493
1033.374	-790.15557
1033.736	-518.50487
1034.099	-658.84364
1034.461	-631.79089
1034.823	-655.84727
1035.185	-618.75217
1035.548	-675.89153
1035.91	-707.95684
1036.272	-865.33347
1036.634	-716.99436
1036.995	-719.97886
1037.357	-675.88459
1037.719	-734.03631
1038.08	-749.05633
1038.442	-748.05842
1038.803	-721.99369
1039.165	-577.64499
1039.526	-716.99374
1039.887	-705.95374
1040.248	-672.88859
1040.609	-707.9781
1040.97	-664.86271
1041.331	-614.74656
1041.692	-702.93787
1042.053	-808.18715
1042.413	-775.11834
1042.774	-674.86876
1043.134	-716.9771
1043.495	-629.7729
1043.855	-706.96895
1044.215	-624.76014
1044.576	-685.9119
1044.936	-809.19092
1045.296	-642.81144
1045.656	-701.95833
1046.016	-718.9851
1046.375	-706.95803
1046.735	-812.19939
1047.095	-774.11929
1047.454	-966.5291
1047.814	-696.92612
1048.173	-785.13819
1048.533	-813.20245
1048.892	-682.90324
1049.251	-613.73304
1049.61	-671.8832
1049.969	-707.95623
1050.328	-924.4493
1050.687	-690.9214
1051.046	-715.98512
1051.405	-609.72225
1051.763	-774.10387
1052.122	-635.79413
1052.48	-685.89954
1052.839	-756.07588
1053.197	-751.07024
1053.555	-900.39993
1053.914	-713.98203
1054.272	-741.04331
1054.63	-656.84477
1054.988	-714.97343
1055.345	-896.35706
1055.703	-721.9968
1056.061	-576.64677
1056.419	-584.68344
1056.776	-737.03798
1057.134	-774.10924
1057.491	-632.77946
1057.848	-682.91551
1058.206	-762.0963
1058.563	-868.30556
1058.92	-821.21269
1059.277	-671.87803
1059.634	-766.09539
1059.991	-703.94214
1060.348	-805.17519
1060.704	-717.98882
1061.061	-803.18095
1061.418	-713.98448
1061.774	-644.80773
1062.131	-486.41428
1062.487	-743.02893
1062.843	-653.83382
1063.199	-621.75565
1063.555	-726.98081
1063.911	-623.75439
1064.267	-981.53326
1064.623	-686.91616
1064.979	-746.04261
1065.335	-753.07121
1065.691	-740.04278
1066.046	-938.46249
1066.402	-790.14736
1066.757	-628.7757
1067.112	-697.94357
1067.468	-666.85576
1067.823	-694.92836
1068.178	-711.96607
1068.533	-681.89431
1068.888	-720.97881
1069.243	-662.85654
1069.598	-670.86517
1069.952	-816.2088
1070.307	-598.68987
1070.662	-740.03129
1071.016	-828.22108
1071.371	-836.25637
1071.725	-730.01076
1072.079	-729.01021
1072.434	-679.89982
1072.788	-697.92257
1073.142	-646.81113
1073.496	-742.04063
1073.85	-809.19162
1074.203	-634.77424
1074.557	-485.41116
1074.911	-770.11366
1075.265	-775.10894
1075.618	-707.96354
1075.971	-743.04754
1076.325	-584.66421
1076.678	-783.13682
1077.031	-810.19045
1077.385	-847.26204
1077.738	-808.17661
1078.091	-798.16494
1078.444	-770.09366
1078.796	-690.92614
1079.149	-663.86359
1079.502	-699.94074
1079.855	-760.0862
1080.207	-668.87221
1080.56	-551.57691
1080.912	-696.93152
1081.264	-710.97156
1081.617	-655.84112
1081.969	-575.63783
1082.321	-696.9381
1082.673	-783.13275
1083.025	-728.00902
1083.377	-904.38206
1083.728	-790.14667
1084.08	-629.7686
1084.432	-681.89138
1084.783	-759.06671
1085.135	-618.74848
1085.486	-758.06695
1085.838	-654.83747
1086.189	-715.98758
1086.54	-729.00392
1086.891	-570.62044
1087.242	-718.99561
1087.593	-710.97949
1087.944	-864.32212
1088.295	-827.23173
1088.646	-668.8642
1088.996	-712.97527
1089.347	-656.83298
1089.698	-715.96848
1090.048	-587.6745
1090.398	-805.18288
1090.749	-707.95502
1091.099	-557.59409
1091.449	-648.82726
1091.799	-636.80372
1092.149	-641.81436
1092.499	-690.92377
1092.849	-579.65412
1093.199	-656.84421
1093.548	-698.94306
1093.898	-638.80777
1094.248	-583.6621
1094.597	-555.60146
1094.947	-513.49441
1095.296	-659.84277
1095.645	-552.58607
1095.994	-734.02495
1096.343	-621.75671
1096.692	-448.31367
1097.041	-497.45811
1097.39	-590.6768
1097.739	-540.54976
1098.088	-468.3642
1098.437	-507.47013
1098.785	-502.46297
1099.134	-538.5639
1099.482	-407.20289
1099.83	-544.56445
1100.179	-511.4826
1100.527	-523.51875
1100.875	-504.46122
1101.223	-517.50218
1101.571	-412.2233
1101.919	-488.41684
1102.267	-375.12202
1102.615	1.00323
1102.962	2.00644
1103.31	9.02899
1103.658	11.03549
