Data from N2 R0 105C sample8_Subt2__0__12-14-13-033.txt Node

Date: Tue Aug 19 12:14:13 PDT 2025
User: uwsun
Spectrometer: HDX01956
Trigger mode: 0
Integration Time (sec): 5.000000E-1
Scans to average: 1
Nonlinearity correction enabled: true
Boxcar width: 0
Storing dark spectrum: false
XAxis mode: Wavelengths
Number of Pixels in Spectrum: 2068
>>>>>Begin Spectral Data<<<<<
194.03	167.47878
194.578	170.54408
195.127	168.53071
195.676	163.51712
196.225	203.5472
196.773	219.61151
197.321	348.95874
197.87	410.05177
198.418	386.98521
198.966	437.12953
199.513	383.95324
200.061	395.00138
200.609	442.14425
201.156	424.92658
201.704	431.08121
202.251	445.16684
202.798	453.15883
203.345	443.08018
203.892	404.00954
204.438	422.00186
204.985	453.07663
205.532	412.07268
206.078	467.12906
206.624	442.07834
207.17	474.08569
207.716	429.03548
208.262	419.82895
208.808	460.13273
209.354	447.07982
209.899	448.10273
210.445	449.11027
210.99	457.09738
211.535	455.06479
212.08	496.14616
212.625	488.19958
213.17	450.11985
213.715	473.0693
214.259	474.08873
214.804	459.10594
215.348	428.97044
215.892	431.02071
216.436	454.03939
216.98	433.96482
217.524	461.07422
218.068	474.1818
218.612	412.02623
219.155	465.07675
219.698	457.07365
220.242	419.03028
220.785	410.95036
221.328	394.96972
221.871	369.92241
222.414	377.93388
222.956	397.96611
223.499	332.75832
224.041	412.95424
224.583	409.86866
225.126	360.7997
225.668	383.92404
226.21	401.99802
226.751	407.89902
227.293	457.03894
227.835	413.00391
228.376	396.90774
228.918	430.06728
229.459	409.00897
230	417.98014
230.541	433.00332
231.082	362.86497
231.622	343.79273
232.163	398.96003
232.704	353.87029
233.244	359.88801
233.784	437.04847
234.324	387.8702
234.864	384.87282
235.404	425.99661
235.944	357.84471
236.484	383.93762
237.023	418.98651
237.563	390.89936
238.102	342.80281
238.641	407.01541
239.18	374.8827
239.719	429.05608
240.258	429.95908
240.797	396.94871
241.335	404.98038
241.874	448.8774
242.412	430.02911
242.95	388.92778
243.488	411.94041
244.026	423.96436
244.564	441.90599
245.102	423.94489
245.64	445.04378
246.177	447.99766
246.715	419.99748
247.252	451.02113
247.789	474.88927
248.326	461.09735
248.863	451.99161
249.4	434.97964
249.936	428.8767
250.473	440.01936
251.009	462.05435
251.546	416.9164
252.082	465.00583
252.618	448.98522
253.154	448.06819
253.69	423.94138
254.226	440.03223
254.761	482.08016
255.297	404.8799
255.832	411.95927
256.367	499.15287
256.903	397.86374
257.438	440.01574
257.972	467.03339
258.507	439.00599
259.042	447.97497
259.576	455.98779
260.111	420.96312
260.645	428.91277
261.179	427.98603
261.713	460.02105
262.247	417.96294
262.781	425.89791
263.315	443.07336
263.849	476.16789
264.382	462.03908
264.915	499.15653
265.449	496.20356
265.982	439.998
266.515	472.11691
267.048	395.85646
267.58	472.01991
268.113	443.95765
268.646	443.07898
269.178	440.98102
269.71	472.02252
270.243	410.93001
270.775	450.11335
271.307	478.12023
271.838	466.06862
272.37	475.13937
272.902	497.10447
273.433	474.00894
273.965	448.07104
274.496	451.08499
275.027	495.19237
275.558	467.10953
276.089	486.17661
276.62	462.14476
277.15	449.07037
277.681	464.00259
278.211	422.99594
278.741	456.0004
279.272	451.01492
279.802	422.03023
280.332	468.08307
280.861	490.15064
281.391	466.03996
281.921	460.08637
282.45	485.18013
282.98	530.32828
283.509	457.00786
284.038	495.10502
284.567	498.11928
285.096	507.19409
285.625	504.12723
286.153	507.14862
286.682	470.0584
287.21	520.21691
287.739	503.16627
288.267	474.12209
288.795	498.24351
289.323	520.19837
289.851	508.16789
290.378	560.21969
290.906	560.31064
291.433	474.14236
291.961	526.15861
292.488	535.27523
293.015	530.21999
293.542	524.28724
294.069	485.15192
294.596	483.15376
295.122	546.25637
295.649	504.08175
296.175	633.46981
296.702	542.26005
297.228	489.1494
297.754	575.2675
298.28	568.24865
298.806	551.27369
299.332	585.25724
299.857	557.21443
300.383	563.35689
300.908	518.22168
301.433	551.27722
301.958	549.21264
302.483	599.42358
303.008	628.46594
303.533	599.46273
304.058	607.36546
304.582	608.37524
305.107	582.45296
305.631	555.21058
306.155	572.28585
306.679	544.21733
307.203	600.33564
307.727	581.31651
308.251	541.28315
308.775	594.35662
309.298	599.38915
309.822	623.48803
310.345	626.42289
310.868	609.38282
311.391	653.50613
311.914	613.45911
312.437	615.3388
312.96	606.35848
313.482	612.37532
314.005	665.56843
314.527	672.65292
315.049	640.50448
315.571	738.55483
316.093	700.62132
316.615	669.52469
317.137	726.47661
317.659	698.59498
318.18	690.53746
318.702	666.44657
319.223	748.4641
319.744	725.52441
320.265	695.57889
320.786	736.69666
321.307	760.74158
321.828	773.629
322.348	762.66999
322.869	768.69938
323.389	486.73259
323.909	737.56665
324.43	803.74697
324.95	768.62801
325.47	780.7467
325.989	861.8352
326.509	809.64749
327.029	798.6431
327.548	820.68617
328.067	864.89997
328.587	821.8487
329.106	804.6436
329.625	851.99165
330.144	911.8957
330.662	866.78484
331.181	909.89572
331.7	910.91331
332.218	913.78546
332.736	965.9957
333.255	954.95844
333.773	885.8652
334.291	961.08377
334.808	981.94752
335.326	1024.01875
335.844	1080.17007
336.361	1003.21534
336.879	1073.18407
337.396	1023.13197
337.913	1049.07344
338.43	1131.15591
338.947	1053.13363
339.464	1095.00976
339.981	1034.11835
340.497	1103.28169
341.014	1154.36984
341.53	1126.11175
342.046	1082.24266
342.562	1208.49746
343.078	1188.3275
343.594	1169.3197
344.11	1175.30144
344.626	1216.52627
345.141	1229.27567
345.657	1261.2913
346.172	1235.43278
346.687	1276.39042
347.202	1240.27398
347.717	1344.5612
348.232	1292.60029
348.747	1331.45058
349.261	1322.32959
349.776	1291.44282
350.29	1379.71444
350.805	1413.77502
351.319	1416.59278
351.833	1356.40461
352.347	1298.43175
352.861	1345.46293
353.374	1427.50708
353.888	1455.70757
354.401	1440.55295
354.915	1428.48483
355.428	1459.78027
355.941	1477.64238
356.454	1523.54968
356.967	1489.64634
357.48	1487.56714
357.993	1501.79757
358.505	1504.7655
359.018	1610.89392
359.53	1582.85054
360.042	1539.52663
360.554	1550.77712
361.066	1539.8182
361.578	1633.54151
362.09	1575.7414
362.602	1606.56601
363.113	1664.80482
363.625	1680.69898
364.136	1704.63575
364.647	1796.96139
365.158	1748.82346
365.669	1693.87164
366.18	1804.91164
366.691	1733.66182
367.201	1723.91515
367.712	1811.83808
368.222	1727.76674
368.733	1829.74949
369.243	1878.79019
369.753	1945.01563
370.263	1997.14182
370.773	1936.1247
371.282	1982.06069
371.792	2162.15722
372.301	2079.20656
372.811	2070.45089
373.32	2148.75097
373.829	2198.16488
374.338	2281.90875
374.847	2340.11169
375.356	2389.22122
375.865	2395.72858
376.373	2574.04382
376.882	2643.51871
377.39	2708.30207
377.898	2763.42502
378.407	2910.92541
378.915	2986.69666
379.423	3129.11398
379.93	3171.82665
380.438	3339.22167
380.946	3612.93536
381.453	3572.99141
381.96	3874.7676
382.468	4181.60509
382.975	4426.47828
383.482	4377.97437
383.989	4404.76085
384.495	4657.94885
385.002	4868.35976
385.509	5166.78845
386.015	5443.69145
386.521	5740.14849
387.028	5958.93717
387.534	6232.71026
388.04	6377.97982
388.546	6432.73778
389.051	6878.67444
389.557	7437.06647
390.063	7999.61629
390.568	8119.80337
391.073	8312.04286
391.578	8765.88898
392.084	8967.45202
392.589	9192.22885
393.093	9965.56305
393.598	11075.02634
394.103	11957.34956
394.607	13212.5891
395.112	14156.91472
395.616	15025.64389
396.12	16005.36773
396.624	17392.11925
397.128	19091.16472
397.632	21096.38322
398.136	22757.425
398.639	24085.03375
399.143	27269.51757
399.646	30398.85102
400.15	33363.48375
400.653	37000.5384
401.156	41428.63395
401.659	48348.41746
402.162	56653.04799
402.664	54040.81831
403.167	49329.08451
403.67	22278.45323
404.172	2696.20453
404.674	0
405.176	0
405.678	0
406.18	0
406.682	0
407.184	0
407.686	25783.58453
408.187	43316.52985
408.688	51225.60928
409.19	54389.01922
409.691	56215.4214
410.192	57270.57019
410.693	57845.40442
411.194	58219.2365
411.694	58633.01717
412.195	59215.68848
412.696	57636.35802
413.196	55002.35794
413.696	54731.98647
414.196	56295.1023
414.696	54766.68447
415.196	51974.50961
415.696	46738.23566
416.196	37131.45662
416.695	28424.74225
417.195	25016.25279
417.694	24218.9965
418.194	22764.82005
418.693	21511.32081
419.192	20947.42403
419.691	20475.20794
420.19	20104.25213
420.688	19301.14611
421.187	18519.94804
421.685	17411.04001
422.184	15600.47002
422.682	13293.76602
423.18	11337.3741
423.678	10204.49849
424.176	9454.74151
424.674	8941.37889
425.172	8577.52279
425.669	8001.72232
426.167	7473.14643
426.664	6751.83538
427.161	6335.8192
427.659	5867.36606
428.156	5395.8772
428.652	5134.14644
429.149	4897.02094
429.646	4687.64466
430.143	4431.27562
430.639	4259.36652
431.135	3953.95238
431.632	3808.51898
432.128	3519.95529
432.624	3408.41326
433.12	3282.73447
433.616	3170.59935
434.111	3030.04425
434.607	2996.15028
435.103	2878.51354
435.598	2831.52599
436.093	2721.08952
436.588	2479.78216
437.083	2394.8507
437.578	2295.97634
438.073	2231.3434
438.568	2148.15515
439.062	2075.64837
439.557	2018.95922
440.051	1940.75573
440.546	1941.80237
441.04	1848.96526
441.534	1868.1995
442.028	1838.91126
442.522	1720.83958
443.015	1709.5363
443.509	1742.94049
444.002	1714.92222
444.496	1683.55859
444.989	1599.77039
445.482	1620.87965
445.975	1606.63536
446.468	1654.46316
446.961	1590.44614
447.454	1519.47162
447.947	1518.66435
448.439	1440.55557
448.931	1503.51189
449.424	1457.71662
449.916	1434.62848
450.408	1376.35887
450.9	1436.64394
451.392	1340.60137
451.884	1337.34579
452.375	1330.60017
452.867	1326.2908
453.358	1297.30368
453.849	1315.15174
454.341	1229.19588
454.832	1255.12587
455.323	1253.42008
455.814	1215.23188
456.304	1184.18179
456.795	1172.16713
457.285	1172.0642
457.776	1214.1773
458.266	1177.25246
458.756	1139.19628
459.247	1164.25582
459.737	1119.20798
460.226	1103.04876
460.716	1142.24768
461.206	1097.17758
461.695	1041.14945
462.185	977.92698
462.674	1025.00235
463.163	968.80095
463.653	1079.90353
464.142	967.99094
464.63	1037.13641
465.119	924.83126
465.608	932.86603
466.096	935.74933
466.585	954.87936
467.073	895.8393
467.561	838.75643
468.05	839.7102
468.538	845.81118
469.026	846.77399
469.513	1012.96116
470.001	844.67409
470.489	843.76809
470.976	845.72088
471.463	748.65922
471.951	767.6947
472.438	756.58791
472.925	728.53039
473.412	744.61957
473.899	707.45717
474.385	733.60673
474.872	748.59522
475.359	755.66331
475.845	679.30408
476.331	663.28922
476.817	653.44685
477.303	671.42498
477.789	651.43703
478.275	600.37253
478.761	632.41044
479.247	636.33443
479.732	648.48896
480.218	594.42924
480.703	607.39884
481.188	546.10852
481.673	592.26876
482.158	556.14119
482.643	590.37392
483.128	556.1997
483.612	510.12895
484.097	514.17181
484.581	530.15475
485.066	547.25692
485.55	523.10257
486.034	462.95618
486.518	552.23526
487.002	525.2351
487.486	467.08993
487.969	430.02128
488.453	424.01626
488.936	482.05577
489.42	461.97823
489.903	413.99601
490.386	444.72462
490.869	384.82001
491.352	438.02433
491.835	402.82084
492.318	459.02747
492.8	454.92659
493.283	482.17958
493.765	442.05225
494.247	401.91127
494.73	390.85085
495.212	433.00688
495.694	370.85189
496.175	390.91867
496.657	418.96237
497.139	431.75465
497.62	343.81003
498.102	391.9476
498.583	336.82458
499.064	415.92664
499.545	384.86787
500.026	370.82703
500.507	383.87882
500.988	394.9615
501.469	349.86707
501.949	399.9659
502.43	415.97316
502.91	347.73249
503.39	336.82153
503.87	395.92483
504.35	351.81412
504.83	431.9361
505.31	319.76502
505.79	369.88085
506.269	407.94098
506.749	386.8731
507.228	381.89137
507.707	421.92061
508.187	382.88618
508.666	421.01422
509.145	461.05903
509.623	434.98923
510.102	442.04218
510.581	470.08168
511.059	460.11733
511.538	447.10814
512.016	544.25625
512.494	469.10317
512.972	513.17023
513.45	545.22433
513.928	586.36514
514.406	576.34076
514.884	578.40853
515.361	591.35003
515.839	556.22172
516.316	660.49116
516.793	629.48806
517.27	637.42658
517.747	651.56146
518.224	670.46082
518.701	728.52703
519.178	584.36101
519.654	669.47618
520.131	624.44176
520.607	650.49653
521.083	641.38188
521.56	663.48303
522.036	679.40127
522.512	592.35584
522.987	616.39053
523.463	621.4061
523.939	599.38532
524.414	622.35148
524.89	546.23936
525.365	572.24956
525.84	550.27414
526.315	505.18199
526.79	512.12207
527.265	516.15696
527.74	479.12804
528.215	509.16902
528.689	483.05107
529.164	454.96737
529.638	456.13973
530.112	434.01337
530.587	451.96035
531.061	395.94542
531.534	382.90542
532.008	415.98834
532.482	353.79766
532.956	359.90293
533.429	411.97845
533.903	358.78932
534.376	382.84116
534.849	398.9178
535.322	371.87206
535.795	372.8987
536.268	320.76494
536.741	357.84961
537.213	361.83234
537.686	378.918
538.158	296.67229
538.631	328.78884
539.103	360.81861
539.575	316.66399
540.047	301.6713
540.519	357.85254
540.991	275.67529
541.463	333.80617
541.934	338.77978
542.406	341.81714
542.877	383.87389
543.348	344.82951
543.82	302.7354
544.291	343.79683
544.762	344.81286
545.233	340.84856
545.703	297.67169
546.174	338.79033
546.645	349.84045
547.115	366.88521
547.585	346.79665
548.056	372.90648
548.526	370.88037
548.996	318.76306
549.466	399.95317
549.935	351.83501
550.405	398.87345
550.875	367.86501
551.344	415.98759
551.814	432.98785
552.283	403.86188
552.752	459.05443
553.221	509.10916
553.69	403.88684
554.159	442.07273
554.628	406.91235
555.096	491.2165
555.565	446.99399
556.033	436.00609
556.502	420.00054
556.97	397.88023
557.438	399.93529
557.906	425.99193
558.374	420.95694
558.842	388.91644
559.31	426.94943
559.777	423.00289
560.245	452.04598
560.712	437.0058
561.18	542.18692
561.647	418.93353
562.114	419.95331
562.581	448.07512
563.048	515.15589
563.514	521.23518
563.981	492.09628
564.448	549.19798
564.914	525.18898
565.381	571.24973
565.847	637.42073
566.313	654.44636
566.779	655.37949
567.245	647.44008
567.711	693.56609
568.176	718.51928
568.642	685.61438
569.108	718.65253
569.573	840.82712
570.038	845.65386
570.504	859.73912
570.969	929.10191
571.434	902.83001
571.899	949.02898
572.363	964.95591
572.828	1002.01031
573.293	1055.11345
573.757	1002.01215
574.222	1127.19792
574.686	1181.29696
575.15	1199.41342
575.614	1168.27859
576.078	1223.43713
576.542	1222.33599
577.006	1204.28936
577.469	1297.64065
577.933	1278.42459
578.396	1261.46791
578.86	1323.56043
579.323	1363.68538
579.786	1346.36472
580.249	1362.57193
580.712	1259.55859
581.175	1304.65432
581.637	1300.41886
582.1	1421.50424
582.563	1280.25059
583.025	1274.57102
583.487	1297.17148
583.95	1310.35973
584.412	1362.32608
584.874	1260.51733
585.336	1318.55857
585.797	1295.30129
586.259	1319.54663
586.721	1311.52395
587.182	1342.52179
587.643	1347.48137
588.105	1278.5194
588.566	1272.17969
589.027	1324.63569
589.488	1327.47472
589.949	1390.71135
590.41	1364.13952
590.87	1392.50805
591.331	1402.37951
591.791	1474.72491
592.252	1421.62465
592.712	1513.82001
593.172	1541.71683
593.632	1610.69423
594.092	1635.75926
594.552	1693.70262
595.011	1722.93286
595.471	1787.84312
595.931	1816.88898
596.39	1934.30664
596.849	2004.22161
597.308	2103.00197
597.768	2163.7554
598.227	2269.44938
598.685	2390.2792
599.144	2449.46749
599.603	2600.627
600.062	2730.12858
600.52	2818.36225
600.978	3056.62655
601.437	3162.39854
601.895	3363.00956
602.353	3705.13386
602.811	3831.23901
603.269	3997.59613
603.727	4229.53012
604.184	4443.05444
604.642	4624.4488
605.099	4923.8514
605.557	5258.04583
606.014	5433.25721
606.471	5793.98801
606.928	6055.9913
607.385	6484.61116
607.842	6791.95202
608.299	7103.15449
608.755	7340.34011
609.212	7697.03567
609.668	8115.38191
610.125	8486.98076
610.581	8869.38269
611.037	9149.78372
611.493	9524.56988
611.949	9986.68934
612.405	10158.41521
612.861	10590.55933
613.316	10874.52584
613.772	11232.08211
614.227	11594.59076
614.683	12024.46775
615.138	12165.62666
615.593	12304.44958
616.048	12682.97134
616.503	12894.68589
616.958	13092.65279
617.412	13182.9177
617.867	13483.74291
618.321	13488.49331
618.776	13565.33597
619.23	13649.42897
619.684	13566.18645
620.138	13790.68801
620.592	13681.18721
621.046	13684.76066
621.5	13652.87742
621.954	13558.17209
622.407	13355.78513
622.861	13396.15861
623.314	13371.71502
623.768	13382.46078
624.221	13239.04578
624.674	12989.87463
625.127	13180.06699
625.58	13233.72169
626.033	13122.33951
626.485	13039.81423
626.938	13137.5918
627.39	13171.97026
627.843	13165.02947
628.295	13016.11754
628.747	13250.37508
629.199	13608.47772
629.651	13504.64036
630.103	13816.91585
630.555	13856.35527
631.006	13999.23491
631.458	14294.50491
631.909	14505.99315
632.361	14852.68189
632.812	15197.98054
633.263	15440.75726
633.714	15903.81433
634.165	16397.44378
634.616	16948.14596
635.067	17243.58936
635.518	17768.20976
635.968	18548.28826
636.419	19259.87911
636.869	19804.29345
637.319	20504.69188
637.769	21374.77229
638.219	22225.18936
638.669	22856.79643
639.119	23991.40508
639.569	25086.6045
640.019	26268.00921
640.468	27311.32467
640.918	28538.99767
641.367	29702.61068
641.816	30963.86354
642.265	32549.85523
642.714	33891.75041
643.163	35160.10174
643.612	36633.18108
644.061	37879.72731
644.51	39211.79213
644.958	40798.79985
645.406	42210.24869
645.855	43658.55208
646.303	44829.96908
646.751	46396.08539
647.199	47837.7527
647.647	49043.16641
648.095	50702.85438
648.543	51616.93232
648.99	52631.41116
649.438	53453.07829
649.885	54648.48244
650.333	55259.46335
650.78	56274.41806
651.227	56982.22581
651.674	57224.93779
652.121	57797.0033
652.568	58181.84445
653.015	58334.30284
653.461	58390.28341
653.908	58572.09544
654.354	58123.96679
654.801	57938.58745
655.247	57299.61007
655.693	57318.28415
656.139	57217.25326
656.585	56852.50919
657.031	56724.94525
657.477	56060.50036
657.922	55745.20715
658.368	55478.47581
658.813	54628.63086
659.259	54315.05507
659.704	53759.47314
660.149	53508.83219
660.594	53019.50998
661.039	52353.97855
661.484	51730.48983
661.929	51532.60843
662.373	51175.44797
662.818	51082.71948
663.262	51014.88502
663.707	50661.39788
664.151	50551.78607
664.595	50557.58072
665.039	51126.65868
665.483	51188.82344
665.927	51003.71567
666.371	51353.60185
666.814	51619.40076
667.258	51974.70402
667.701	52391.589
668.145	52529.09273
668.588	53132.67225
669.031	53567.34191
669.474	53946.29281
669.917	54477.50292
670.36	55135.80068
670.803	56063.243
671.245	56085.7163
671.688	56520.48888
672.13	56915.78767
672.573	57210.23254
673.015	57901.48782
673.457	58512.98963
673.899	58819.78092
674.341	59132.59687
674.783	59625.16123
675.225	59596.34493
675.666	60176.70464
676.108	60786.05161
676.549	60559.83636
676.991	60686.76135
677.432	60577.37763
677.873	60329.38042
678.314	60169.21854
678.755	59404.91334
679.196	59165.24282
679.637	58668.60373
680.078	57913.81054
680.518	57323.88493
680.959	56806.48041
681.399	56389.65971
681.839	55612.06462
682.28	55039.76944
682.72	54142.86313
683.16	53131.44429
683.6	52404.365
684.039	51430.70486
684.479	50916.66625
684.919	50735.24971
685.358	50007.866
685.798	49363.22729
686.237	48558.17968
686.676	47907.84919
687.115	47200.56595
687.554	46772.04806
687.993	45908.7623
688.432	45296.50786
688.871	44622.78514
689.309	44071.25271
689.748	43728.30693
690.186	43422.88196
690.625	42866.97623
691.063	42366.96107
691.501	41950.4612
691.939	41628.98738
692.377	41011.39989
692.815	40749.13282
693.253	40355.52502
693.69	39638.34897
694.128	39024.71396
694.565	38509.87217
695.003	38524.08018
695.44	38110.68658
695.877	37275.91393
696.314	36726.90719
696.751	36136.52884
697.188	35865.06918
697.625	35393.46577
698.061	34996.44425
698.498	34530.70482
698.934	33895.19064
699.371	33398.15014
699.807	32661.67285
700.243	32449.28088
700.679	31643.6786
701.115	31289.78612
701.551	30626.83906
701.987	30269.77417
702.422	29734.82724
702.858	29143.45564
703.294	28907.73723
703.729	28263.19669
704.164	27498.03276
704.599	26933.69403
705.035	26451.8164
705.47	26118.19369
705.904	25565.87575
706.339	25423.19385
706.774	24784.31884
707.209	24354.50204
707.643	23940.50239
708.078	23508.47326
708.512	22990.3477
708.946	22682.94416
709.38	22174.57427
709.814	21783.95345
710.248	21307.36119
710.682	21009.32604
711.116	20755.25698
711.549	20007.26427
711.983	19754.4472
712.416	19436.61374
712.85	19244.4216
713.283	18800.76985
713.716	18221.18383
714.149	17700.97139
714.582	17408.12886
715.015	17059.23026
715.448	16662.25297
715.881	16293.20602
716.313	16038.7232
716.746	15701.9802
717.178	15436.11747
717.61	15215.28321
718.043	14929.78978
718.475	14594.21789
718.907	14263.71816
719.339	13941.28617
719.77	13627.31192
720.202	13373.8509
720.634	13076.98475
721.065	12920.32052
721.497	12504.44498
721.928	12307.22121
722.359	12112.16937
722.79	11889.04156
723.221	11720.09749
723.652	11341.29945
724.083	11095.65654
724.514	10896.82072
724.945	10773.26163
725.375	10723.05629
725.806	10346.72177
726.236	10234.35932
726.666	10033.83715
727.096	9909.48805
727.526	9734.08164
727.956	9461.39521
728.386	9298.12729
728.816	9137.91034
729.246	9073.74945
729.675	8896.49522
730.105	8704.1471
730.534	8701.05818
730.964	8448.96222
731.393	8442.86625
731.822	8193.83653
732.251	8197.78104
732.68	8031.3113
733.109	7949.47727
733.537	7911.40567
733.966	7893.58083
734.395	7727.08022
734.823	7540.82139
735.251	7573.26681
735.68	7493.3822
736.108	7303.37973
736.536	7276.97871
736.964	7161.94091
737.392	7180.33957
737.82	7055.09055
738.247	7160.04415
738.675	7065.01483
739.102	6890.39611
739.53	6876.50874
739.957	6846.58421
740.384	6895.14993
740.811	6730.40229
741.238	6714.22283
741.665	6626.87915
742.092	6682.06949
742.519	6511.36671
742.945	6476.1704
743.372	6421.42248
743.798	6519.63278
744.225	6385.12052
744.651	6401.46988
745.077	6392.4348
745.503	6467.23431
745.929	6445.14536
746.355	6524.32896
746.781	6274.42609
747.207	6353.18611
747.632	6264.46225
748.058	6271.48927
748.483	6475.9125
748.908	6468.36184
749.334	6482.33775
749.759	6375.99102
750.184	6346.19959
750.609	6505.32845
751.033	6407.02896
751.458	6480.71152
751.883	6540.31905
752.307	6368.11158
752.732	6440.55722
753.156	6530.41016
753.58	6464.11268
754.005	6572.43034
754.429	6521.04971
754.853	6536.33995
755.277	6542.96725
755.7	6698.33595
756.124	6578.36597
756.548	6610.10922
756.971	6630.11343
757.394	6816.59256
757.818	6705.54121
758.241	6667.48398
758.664	6718.48675
759.087	6784.74373
759.51	6801.27163
759.933	6704.17302
760.356	6767.48241
760.778	6935.32105
761.201	6792.1654
761.623	6788.06837
762.046	6830.99225
762.468	6798.94891
762.89	6849.19071
763.312	6857.25376
763.734	6779.09559
764.156	6832.2594
764.578	6982.87831
765	6869.20196
765.421	6698.51693
765.843	6795.63992
766.264	6726.10526
766.686	6736.29012
767.107	6777.10899
767.528	6830.46554
767.949	6756.47324
768.37	6660.13213
768.791	6668.14958
769.212	6587.4753
769.632	6511.98981
770.053	6594.78344
770.473	6602.18169
770.894	6471.3352
771.314	6356.0075
771.734	6279.03329
772.154	6339.55649
772.575	6414.86562
772.994	6298.84252
773.414	6213.16754
773.834	6274.49409
774.254	6127.47757
774.673	6072.31977
775.093	5914.55684
775.512	5935.47152
775.931	5837.75732
776.351	5877.58355
776.77	5705.58625
777.189	5721.33432
777.607	5581.96064
778.026	5612.80194
778.445	5411.96551
778.864	5531.99117
779.282	5374.63705
779.701	5306.94537
780.119	5398.18465
780.537	5204.03523
780.955	5073.09065
781.373	5091.94791
781.791	5071.31207
782.209	5018.43015
782.627	4878.73127
783.045	4811.67549
783.462	4687.50101
783.88	4647.59198
784.297	4669.36842
784.715	4460.67004
785.132	4379.27406
785.549	4444.4687
785.966	4327.50354
786.383	4203.40588
786.8	4257.9708
787.217	4122.18755
787.633	4060.60443
788.05	3940.14796
788.466	3884.02975
788.883	3962.74847
789.299	3803.38504
789.715	3729.53394
790.131	3708.72219
790.547	3609.62304
790.963	3571.71839
791.379	3574.81586
791.795	3477.10241
792.21	3453.24905
792.626	3350.35803
793.041	3237.73663
793.457	3273.72378
793.872	3205.34845
794.287	3126.51741
794.702	3129.62156
795.117	3066.77322
795.532	3003.82644
795.947	2968.48516
796.362	2982.46853
796.776	2945.23098
797.191	2868.64087
797.605	2832.50966
798.02	2696.53634
798.434	2670.97836
798.848	2643.65184
799.262	2680.72676
799.676	2594.46512
800.09	2576.66993
800.504	2482.41405
800.918	2429.26246
801.331	2375.74334
801.745	2294.11171
802.158	2344.56076
802.572	2246.28278
802.985	2263.30329
803.398	2202.23625
803.811	2143.47022
804.224	2054.27937
804.637	2067.19688
805.05	2024.96462
805.462	1978.211
805.875	1897.42634
806.288	1886.12907
806.7	1906.2823
807.112	1883.85696
807.525	1758.04126
807.937	1771.07111
808.349	1772.12482
808.761	1696.98479
809.173	1659.87951
809.584	1571.83562
809.996	1600.88893
810.408	1523.99698
810.819	1602.76329
811.231	1510.0506
811.642	1596.88893
812.053	1540.81513
812.464	1459.66317
812.875	1370.73992
813.286	1353.74858
813.697	1399.47548
814.108	1352.55423
814.519	1240.14378
814.929	1227.50923
815.34	1218.41208
815.75	1165.43465
816.16	1116.27634
816.571	1099.34195
816.981	1101.1097
817.391	1152.27903
817.801	1069.24954
818.211	978.9294
818.62	1028.09848
819.03	976.0137
819.44	988.17631
819.849	905.9465
820.259	845.86322
820.668	849.83616
821.077	875.9101
821.486	818.71298
821.895	811.73454
822.304	762.80109
822.713	783.64287
823.122	764.69473
823.531	744.58394
823.939	747.6292
824.348	737.60805
824.756	702.58934
825.164	694.55785
825.573	706.6249
825.981	632.42205
826.389	606.4018
826.797	563.28703
827.205	604.2817
827.612	582.32918
828.02	528.16157
828.428	550.30527
828.835	524.28867
829.243	560.24649
829.65	476.11467
830.057	504.1499
830.464	478.09268
830.871	484.08376
831.278	448.017
831.685	461.97481
832.092	473.09704
832.499	416.86523
832.905	407.97969
833.312	457.98791
833.718	418.99262
834.124	370.80825
834.531	363.87547
834.937	324.79102
835.343	350.81774
835.749	345.764
836.155	356.89426
836.561	376.89429
836.966	294.70092
837.372	314.77573
837.777	331.80525
838.183	262.56751
838.588	226.54687
838.993	266.63223
839.399	279.66758
839.804	226.54481
840.209	294.7383
840.613	231.51072
841.018	244.60261
841.423	255.63935
841.828	294.7298
842.232	223.54133
842.637	224.52606
843.041	229.58345
843.445	200.49776
843.849	186.45601
844.253	259.60552
844.657	239.59665
845.061	229.51771
845.465	208.49952
845.869	229.52866
846.272	189.46104
846.676	147.3527
847.079	206.52458
847.483	167.41117
847.886	142.33947
848.289	182.48265
848.692	209.52309
849.095	209.50087
849.498	185.45834
849.901	141.32344
850.304	184.44055
850.707	148.37397
851.109	178.44172
851.512	169.41824
851.914	192.4898
852.316	141.35227
852.718	130.33852
853.121	142.34956
853.523	174.41247
853.925	146.38356
854.326	103.25827
854.728	132.34219
855.13	144.37522
855.531	197.47499
855.933	130.30889
856.334	137.34389
856.736	135.30782
857.137	115.26972
857.538	116.29635
857.939	132.33152
858.34	127.31039
858.741	114.29828
859.142	126.30548
859.542	129.34228
859.943	88.2207
860.343	80.20121
860.744	132.32195
861.144	75.18323
861.544	80.19796
861.945	178.45601
862.345	128.31312
862.745	159.39968
863.145	142.33805
863.544	78.19899
863.944	107.25292
864.344	123.30586
864.743	129.31785
865.143	109.28174
865.542	97.22928
865.941	122.30618
866.34	95.22941
866.74	98.26267
867.139	135.32896
867.537	103.26309
867.936	127.309
868.335	130.332
868.734	115.29941
869.132	129.30492
869.531	99.23826
869.929	75.177
870.327	101.24666
870.726	60.14988
871.124	139.32855
871.522	96.24689
871.92	114.28435
872.318	66.16373
872.715	62.15353
873.113	100.24817
873.511	140.35401
873.908	75.1948
874.306	128.3232
874.703	69.17407
875.1	73.18804
875.497	120.29323
875.894	102.25581
876.291	67.1663
876.688	118.30948
877.085	79.1907
877.482	57.14447
877.878	91.2229
878.275	88.22711
878.671	113.25474
879.068	101.24593
879.464	83.203
879.86	22.05334
880.256	63.1574
880.652	68.17543
881.048	53.13256
881.444	50.11981
881.84	55.14157
882.236	71.18002
882.631	91.22843
883.027	27.06623
883.422	31.08052
883.817	102.2636
884.213	58.15171
884.608	58.14604
885.003	90.22188
885.398	118.30103
885.793	27.06899
886.188	61.15631
886.582	55.14083
886.977	108.25918
887.371	31.07874
887.766	44.11233
888.16	71.17906
888.554	54.13416
888.949	72.18174
889.343	48.11847
889.737	47.12868
890.131	39.09874
890.525	93.23914
890.918	39.09899
891.312	45.1081
891.706	35.09166
892.099	71.18034
892.492	66.14675
892.886	53.13122
893.279	102.26296
893.672	24.06127
894.065	70.17669
894.458	95.24317
894.851	75.18555
895.244	33.08554
895.637	89.21808
896.029	33.08218
896.422	48.1189
896.814	52.13098
897.206	3.00736
897.599	61.15136
897.991	56.13699
898.383	78.18982
898.775	59.136
899.167	74.17759
899.559	64.16328
899.951	50.11999
900.342	77.19564
900.734	72.18414
901.125	43.11421
901.517	60.15064
901.908	18.04394
902.299	52.13177
902.69	68.16424
903.082	75.18378
903.473	43.10638
903.863	76.19587
904.254	51.12242
904.645	73.18364
905.036	79.19537
905.426	86.19811
905.817	76.18992
906.207	93.2267
906.597	24.05714
906.987	57.14957
907.378	11.02819
907.768	47.126
908.158	17.04244
908.547	26.06875
908.937	36.09288
909.327	82.20298
909.717	39.09969
910.106	47.11487
910.495	68.17195
910.885	94.24108
911.274	45.1143
911.663	25.0639
912.052	48.11921
912.441	18.04636
912.83	109.25495
913.219	47.12392
913.608	51.1265
913.997	37.09517
914.385	15.0365
914.774	53.13103
915.162	64.15662
915.55	43.10568
915.939	27.06955
916.327	26.06525
916.715	30.0778
917.103	25.0623
917.491	66.16361
917.878	18.04454
918.266	-4.01046
918.654	98.25388
919.041	49.13036
919.429	26.0632
919.816	33.0845
920.203	52.12891
920.591	15.03782
920.978	43.10537
921.365	49.13023
921.752	69.16814
922.139	78.17472
922.525	90.22164
922.912	13.03229
923.299	51.12935
923.685	72.19018
924.072	34.07907
924.458	19.04811
924.844	79.19866
925.231	76.18044
925.617	32.08336
926.003	63.16234
926.389	62.15873
926.774	46.11835
927.16	71.17854
927.546	35.09184
927.931	51.12926
928.317	23.05392
928.702	27.06476
929.088	46.11207
929.473	37.09541
929.858	2.00502
930.243	44.10824
930.628	59.14794
931.013	40.10133
931.398	45.10492
931.783	40.10576
932.167	91.22736
932.552	9.0228
932.937	57.14288
933.321	42.10768
933.705	29.0748
934.09	31.07868
934.474	76.18225
934.858	52.13648
935.242	58.13797
935.626	48.12564
936.009	-22.05905
936.393	64.1642
936.777	23.06009
937.16	24.06307
937.544	50.11912
937.927	40.10405
938.311	76.18647
938.694	49.13002
939.077	61.14864
939.46	-16.03929
939.843	89.19225
940.226	57.1481
940.609	69.1648
940.991	-16.04185
941.374	30.07513
941.757	24.05993
942.139	30.07062
942.522	37.08837
942.904	26.06398
943.286	37.09464
943.668	78.20409
944.05	23.05803
944.432	70.17707
944.814	29.07198
945.196	72.18051
945.578	87.21445
945.959	85.20255
946.341	-17.04189
946.722	52.12403
947.104	82.1991
947.485	7.01679
947.866	70.18153
948.247	-10.02564
948.628	12.02963
949.009	51.13328
949.39	40.10082
949.771	39.09301
950.152	70.17549
950.532	30.0764
950.913	75.18323
951.293	46.12612
951.674	112.27876
952.054	70.17814
952.434	53.13309
952.814	59.14296
953.194	46.12081
953.574	-21.05252
953.954	50.12127
954.334	64.16212
954.714	40.1001
955.093	45.11157
955.473	-14.0358
955.853	28.07329
956.232	-14.03865
956.611	17.04163
956.99	44.11336
957.37	41.10642
957.749	46.11257
958.128	90.23082
958.506	74.19625
958.885	64.16442
959.264	50.12706
959.643	14.03264
960.021	35.08899
960.4	49.11452
960.778	51.12733
961.156	40.10277
961.535	41.09736
961.913	55.13141
962.291	86.22632
962.669	-1.00258
963.047	46.11835
963.424	34.08793
963.802	69.17302
964.18	49.12516
964.557	65.15257
964.935	55.13272
965.312	35.09209
965.69	-23.05861
966.067	61.15147
966.444	31.0772
966.821	32.08333
967.198	25.06165
967.575	5.01239
967.952	32.07685
968.329	44.10931
968.705	25.05488
969.082	69.18002
969.458	45.11198
969.835	16.03972
970.211	55.14423
970.587	33.0834
970.963	23.05974
971.339	9.02398
971.715	22.05591
972.091	34.08536
972.467	48.12159
972.843	25.06341
973.219	29.07003
973.594	60.16056
973.97	27.06533
974.345	36.08846
974.721	45.1092
975.096	70.17156
975.471	63.15202
975.846	58.14109
976.221	71.18447
976.596	60.14738
976.971	8.02016
977.346	17.04029
977.72	36.09352
978.095	43.11303
978.469	39.09447
978.844	1.00254
979.218	-8.01971
979.593	25.06099
979.967	58.14326
980.341	70.16338
980.715	56.14357
981.089	14.03536
981.463	103.24384
981.837	2.00505
982.21	55.12955
982.584	35.08653
982.957	33.08456
983.331	66.15887
983.704	24.05915
984.078	47.11845
984.451	-11.02769
984.824	60.14923
985.197	10.02478
985.57	32.08158
985.943	37.09187
986.316	47.11687
986.688	25.06124
987.061	72.17305
987.434	15.03979
987.806	27.06702
988.179	69.16688
988.551	40.10334
988.923	37.09271
989.295	-41.1034
989.667	27.06685
990.039	49.12424
990.411	34.0802
990.783	30.07057
991.155	46.11507
991.527	51.1259
991.898	45.11462
992.27	-27.06855
992.641	66.16636
993.012	73.17409
993.384	11.02671
993.755	24.06275
994.126	9.02211
994.497	48.12038
994.868	71.16698
995.239	19.04683
995.61	23.05939
995.98	48.11999
996.351	-7.0178
996.722	82.19641
997.092	19.04644
997.462	21.05092
997.833	34.08191
998.203	-1.00247
998.573	7.01777
998.943	48.11581
999.313	56.13755
999.683	64.15819
1000.053	87.20421
1000.423	-4.00989
1000.792	40.10587
1001.162	-16.04027
1001.531	37.09304
1001.901	83.21164
1002.27	71.16189
1002.639	35.09138
1003.009	6.01456
1003.378	13.03359
1003.747	83.20081
1004.116	66.16116
1004.485	18.04371
1004.853	3.00776
1005.222	9.02297
1005.591	-14.03415
1005.959	75.17501
1006.328	46.10647
1006.696	59.14634
1007.064	31.07899
1007.433	47.1187
1007.801	37.09137
1008.169	18.04581
1008.537	86.19423
1008.905	21.05066
1009.273	-15.03761
1009.64	61.15014
1010.008	48.11725
1010.375	36.08623
1010.743	72.16751
1011.11	57.13832
1011.478	24.06028
1011.845	48.11467
1012.212	44.10294
1012.579	-2.005
1012.946	34.08231
1013.313	49.11761
1013.68	56.12797
1014.047	13.03209
1014.414	37.08996
1014.78	1.00253
1015.147	2.00489
1015.513	14.03464
1015.88	31.07946
1016.246	-7.01738
1016.612	3.00698
1016.978	39.0973
1017.344	50.12634
1017.71	-8.01968
1018.076	59.14059
1018.442	23.05951
1018.808	48.12203
1019.174	41.10506
1019.539	78.17789
1019.905	25.06042
1020.27	-8.02041
1020.636	81.19605
1021.001	42.10194
1021.366	17.04197
1021.731	25.06446
1022.096	8.02071
1022.461	10.02427
1022.826	35.08471
1023.191	1.00266
1023.556	43.10357
1023.92	34.08432
1024.285	61.15086
1024.649	51.12714
1025.014	48.12081
1025.378	53.13538
1025.742	79.19895
1026.107	7.01621
1026.471	18.04236
1026.835	30.07635
1027.199	112.27774
1027.562	73.17222
1027.926	47.11628
1028.29	65.16778
1028.654	-5.01188
1029.017	14.03478
1029.381	19.04661
1029.744	-19.04928
1030.107	22.053
1030.471	-13.03168
1030.834	-8.01869
1031.197	18.04369
1031.56	18.04328
1031.923	19.04986
1032.286	62.1472
1032.648	53.12987
1033.011	-12.02828
1033.374	26.06173
1033.736	25.06698
1034.099	65.16181
1034.461	5.01283
1034.823	27.06824
1035.185	43.10976
1035.548	49.12198
1035.91	17.0417
1036.272	3.00695
1036.634	11.02717
1036.995	77.1851
1037.357	14.03492
1037.719	0
1038.08	18.04346
1038.442	6.01456
1038.803	4.0098
1039.165	94.24108
1039.526	36.08849
1039.887	47.11487
1040.248	36.09019
1040.609	22.05462
1040.97	32.08017
1041.331	36.09242
1041.692	76.18398
1042.053	56.13044
1042.413	51.12111
1042.774	50.12291
1043.134	71.17165
1043.495	26.06598
1043.855	37.09127
1044.215	44.1115
1044.576	53.13098
1044.936	45.10509
1045.296	57.1437
1045.656	-15.03746
1046.016	42.10221
1046.375	-18.04456
1046.735	20.04692
1047.095	56.13316
1047.454	95.2038
1047.814	60.14629
1048.173	-8.0191
1048.533	21.04925
1048.892	59.1457
1049.251	42.10696
1049.61	17.04267
1049.969	66.16038
1050.328	37.08235
1050.687	33.08155
1051.046	-28.06941
1051.405	45.11466
1051.763	39.09222
1052.122	58.14661
1052.48	-22.0547
1052.839	30.07219
1053.197	25.06055
1053.555	-1.00227
1053.914	11.02712
1054.272	3.00731
1054.63	41.10299
1054.988	60.14558
1055.345	28.0622
1055.703	53.12891
1056.061	10.02611
1056.419	33.08654
1056.776	-4.0098
1057.134	38.09015
1057.491	6.01525
1057.848	20.05012
1058.206	39.09379
1058.563	45.1014
1058.92	55.12713
1059.277	16.04004
1059.634	65.15436
1059.991	61.1482
1060.348	34.07942
1060.704	28.0686
1061.061	22.05185
1061.418	21.05176
1061.774	56.14029
1062.131	32.08625
1062.487	17.04084
1062.843	-3.00759
1063.199	50.12697
1063.555	75.17824
1063.911	-15.03834
1064.267	14.02994
1064.623	26.06462
1064.979	60.14333
1065.335	46.11064
1065.691	4.00976
1066.046	-11.02436
1066.402	68.15939
1066.757	10.02555
1067.112	25.0619
1067.468	85.20913
1067.823	62.1519
1068.178	0
1068.533	30.07421
1068.888	17.04125
1069.243	23.05771
1069.598	30.07442
1069.952	35.08174
1070.307	70.17776
1070.662	-7.01701
1071.016	34.07835
1071.371	47.10868
1071.725	10.02436
1072.079	2.00489
1072.434	45.11182
1072.788	25.0611
1073.142	68.16968
1073.496	36.08692
1073.85	-10.02361
1074.203	86.21389
1074.557	19.05132
1074.911	52.12422
1075.265	-11.02629
1075.618	0
1075.971	33.0799
1076.325	26.06736
1076.678	38.09015
1077.031	32.07477
1077.385	32.0731
1077.738	31.07214
1078.091	39.09158
1078.444	23.05462
1078.796	17.04226
1079.149	39.09783
1079.502	61.1492
1079.855	70.16697
1080.207	34.08499
1080.56	38.09929
1080.912	55.13467
1081.264	41.10047
1081.617	42.10545
1081.969	28.07259
1082.321	-4.00994
1082.673	41.09699
1083.025	33.08026
1083.377	77.16939
1083.728	32.07551
1084.08	18.04561
1084.432	5.0124
1084.783	23.05483
1085.135	1.00257
1085.486	55.13056
1085.838	52.13027
1086.189	3.00741
1086.54	7.01703
1086.891	51.13151
1087.242	-19.04706
1087.593	54.13264
1087.944	12.02764
1088.295	71.16365
1088.646	55.13627
1088.996	-30.07437
1089.347	40.09974
1089.698	6.01463
1090.048	-16.04178
1090.398	-5.01182
1090.749	37.09033
1091.099	79.20476
1091.449	-10.02547
1091.799	49.12459
1092.149	26.06617
1092.499	37.0915
1092.849	37.09604
1093.199	19.0479
1093.548	27.06668
1093.898	18.04595
1094.248	12.03118
1094.597	27.07131
1094.947	6.01619
1095.296	-10.02517
1095.645	32.08407
1095.994	5.01221
1096.343	34.08665
1096.692	87.2359
1097.041	-52.14312
1097.39	72.18427
1097.739	4.01057
1098.088	30.08128
1098.437	20.05361
1098.785	7.01893
1099.134	-5.01343
1099.482	33.09167
1099.83	-23.06113
1100.179	34.09092
1100.527	6.0161
1100.875	-4.01077
1101.223	13.03491
1101.571	9.0252
1101.919	39.10469
1102.267	2.00569
1102.615	-7.02261
1102.962	-9.02902
1103.31	7.02255
1103.658	11.03549
