Data from N2 R0 105C sample4_Subt2__6__11-56-10-958.txt Node

Date: Tue Aug 19 11:56:10 PDT 2025
User: uwsun
Spectrometer: HDX01956
Trigger mode: 0
Integration Time (sec): 1.000000E-1
Scans to average: 1
Nonlinearity correction enabled: true
Boxcar width: 0
Storing dark spectrum: false
XAxis mode: Wavelengths
Number of Pixels in Spectrum: 2068
>>>>>Begin Spectral Data<<<<<
194.03	6.01761
194.578	12.03912
195.127	11.03541
195.676	10.03231
196.225	-413.21861
196.773	-326.98476
197.321	-273.82374
197.87	-402.17225
198.418	-428.24102
198.966	-370.08462
199.513	-502.44106
200.061	-444.28748
200.609	-380.11778
201.156	-749.02647
201.704	-447.29225
202.251	-327.96804
202.798	-396.15802
203.345	-502.43257
203.892	-472.36004
204.438	-561.57644
204.985	-541.52391
205.532	-354.03792
206.078	-485.37599
206.624	-512.46373
207.17	-614.70457
207.716	-526.49128
208.262	-925.39044
208.808	-461.32112
209.354	-522.48393
209.899	-488.40125
210.445	-472.35726
210.99	-531.5066
211.535	-582.63023
212.08	-568.58174
212.625	-450.29089
213.17	-451.29966
213.715	-625.72027
214.259	-599.66267
214.804	-508.44065
215.348	-659.81211
215.892	-573.61213
216.436	-618.71088
216.98	-682.85847
217.524	-596.66894
218.068	-436.25986
218.612	-480.38271
219.155	-595.65873
219.698	-583.63877
220.242	-508.45573
220.785	-632.75562
221.328	-495.40901
221.871	-500.437
222.414	-492.4036
222.956	-531.5066
223.499	-707.94035
224.041	-634.76118
224.583	-808.15474
225.126	-728.97043
225.668	-581.64603
226.21	-487.39859
226.751	-734.99496
227.293	-669.8575
227.835	-541.54233
228.376	-663.83056
228.918	-477.37306
229.459	-510.46361
230	-606.69694
230.541	-603.67585
231.082	-599.68323
231.622	-659.81496
232.163	-557.57565
232.704	-544.5525
233.244	-509.45019
233.784	-527.48896
234.324	-718.9671
234.864	-698.92141
235.404	-587.63794
235.944	-609.69933
236.484	-531.51066
237.023	-593.66282
237.563	-665.84353
238.102	-627.7393
238.641	-481.38661
239.18	-617.72483
239.719	-492.40984
240.258	-698.91053
240.797	-564.588
241.335	-543.54158
241.874	-937.42059
242.412	-538.51799
242.95	-580.63257
243.488	-643.77147
244.026	-647.78193
244.564	-840.20835
245.102	-700.91357
245.64	-592.66128
246.177	-691.89228
246.715	-562.57949
247.252	-655.80735
247.789	-984.49602
248.326	-542.53067
248.863	-708.92312
249.4	-674.85305
249.936	-861.26164
250.473	-627.75063
251.009	-636.76344
251.546	-718.94526
252.082	-736.99078
252.618	-713.93762
253.154	-552.56033
253.69	-709.93539
254.226	-586.64194
254.761	-648.78048
255.297	-762.05402
255.832	-594.64956
256.367	-581.6217
256.903	-758.03795
257.438	-618.71833
257.972	-680.85539
258.507	-635.75985
259.042	-718.94025
259.576	-725.95694
260.111	-639.76487
260.645	-766.04138
261.179	-628.74289
261.713	-681.86078
262.247	-634.75845
262.781	-795.11276
263.315	-514.46205
263.849	-461.32034
264.382	-664.82844
264.915	-578.61655
265.449	-477.36137
265.982	-657.81287
266.515	-539.5169
267.048	-757.02898
267.58	-720.94314
268.113	-744.00094
268.646	-495.40985
269.178	-690.88565
269.71	-743.01346
270.243	-658.80452
270.775	-454.30276
271.307	-578.62545
271.838	-615.70708
272.37	-525.4909
272.902	-666.82761
273.433	-777.09006
273.965	-542.53298
274.496	-526.49218
275.027	-515.46948
275.558	-540.52363
276.089	-481.36913
276.62	-461.32812
277.15	-549.55114
277.681	-731.97376
278.211	-571.59672
278.741	-735.00325
279.272	-641.75653
279.802	-494.40512
280.332	-608.69837
280.861	-560.57578
281.391	-678.86111
281.921	-565.59106
282.45	-488.39589
282.98	-385.1176
283.509	-703.91719
284.038	-670.84554
284.567	-645.77977
285.096	-538.51615
285.625	-654.80205
286.153	-622.72302
286.682	-650.78991
287.21	-531.49028
287.739	-586.64244
288.267	-546.53917
288.795	-417.20716
289.323	-593.66028
289.851	-573.59345
290.378	-667.8208
290.906	-525.48106
291.433	-503.42881
291.961	-654.78732
292.488	-496.40786
293.015	-563.56999
293.542	-449.29389
294.069	-535.51203
294.596	-510.44198
295.122	-562.57034
295.649	-697.8741
296.175	-520.47293
296.702	-549.54223
297.228	-533.49453
297.754	-602.64522
298.28	-644.76614
298.806	-556.55881
299.332	-676.83684
299.857	-654.7822
300.383	-441.25739
300.908	-526.48366
301.433	-522.45897
301.958	-632.73105
302.483	-480.36892
303.008	-499.41362
303.533	-420.21251
304.058	-572.58796
304.582	-579.61611
305.107	-386.12551
305.631	-676.84859
306.155	-587.62379
306.679	-621.71355
307.203	-561.54069
307.727	-553.53305
308.251	-490.38539
308.775	-558.56059
309.298	-522.47014
309.822	-436.24441
310.345	-520.44756
310.868	-560.56331
311.391	-491.38172
311.914	-463.32137
312.437	-622.69988
312.96	-569.57448
313.482	-576.60006
314.005	-449.27947
314.527	-345.00097
315.049	-469.33215
315.571	-629.71272
316.093	-456.28955
316.615	-526.47827
317.137	-696.8638
317.659	-471.32095
318.18	-560.56042
318.702	-602.65044
319.223	-744.96085
319.744	-634.72164
320.265	-490.37156
320.786	-445.2586
321.307	-453.28164
321.828	-606.65352
322.348	-530.46811
322.869	-509.4167
323.389	-1280.96024
323.909	-601.63961
324.43	-527.46048
324.95	-592.61737
325.47	-483.3534
325.989	-533.46975
326.509	-633.70207
327.029	-637.72451
327.548	-632.71401
328.067	-471.31651
328.587	-436.22547
329.106	-635.71133
329.625	-339.9737
330.144	-550.50641
330.662	-595.61858
331.181	-544.49044
331.7	-532.46354
332.218	-656.74981
332.736	-541.48573
333.255	-544.48429
333.773	-548.50805
334.291	-449.25725
334.808	-574.54365
335.326	-588.58902
335.844	-522.42695
336.361	-383.08265
336.879	-498.36691
337.396	-483.33427
337.913	-542.46229
338.43	-585.57093
338.947	-506.38186
339.464	-673.77708
339.981	-500.37067
340.497	-454.2574
341.014	-436.20748
341.53	-628.67844
342.046	-437.20478
342.562	-402.12183
343.078	-476.29114
343.594	-475.29567
344.11	-498.35262
344.626	-395.10617
345.141	-580.55063
345.657	-576.52778
346.172	-447.22037
346.687	-535.44175
347.202	-580.5435
347.717	-460.2521
348.232	-389.07728
348.747	-519.39133
349.261	-580.52406
349.776	-469.26168
350.29	-378.04333
350.805	-356.98571
351.319	-461.23649
351.833	-561.48377
352.347	-498.33869
352.861	-506.35178
353.374	-549.45733
353.888	-436.18441
354.401	-509.35286
354.915	-558.4746
355.428	-384.05127
355.941	-474.26745
356.454	-532.38748
356.967	-486.29915
357.48	-529.39767
357.993	-396.07764
358.505	-418.13215
359.018	-391.05667
359.53	-410.1083
360.042	-565.46784
360.554	-442.19069
361.066	-417.13253
361.578	-598.53632
362.09	-459.22225
362.602	-576.49106
363.113	-467.23823
363.625	-528.37704
364.136	-580.49781
364.647	-418.10794
365.158	-480.25981
365.669	-404.06898
366.18	-475.25654
366.691	-535.37174
367.201	-426.13518
367.712	-478.24438
368.222	-488.27175
368.733	-521.33721
369.243	-522.34187
369.753	-395.02992
370.263	-369.97721
370.773	-391.04193
371.282	-410.07583
371.792	-399.04214
372.301	-358.94794
372.811	-237.6434
373.32	-577.44333
373.829	-386.00383
374.338	-493.23966
374.847	-383.97808
375.356	-388.00456
375.865	-558.36581
376.373	-388.96971
376.882	-230.60174
377.39	-325.83439
377.898	-255.65814
378.407	-400.97977
378.915	-490.17519
379.423	-318.79223
379.93	-367.88445
380.438	-196.48745
380.946	-272.66607
381.453	-221.53929
381.96	-237.57143
382.468	-187.44559
382.975	-110.25834
383.482	-318.72108
383.989	-70.16914
384.495	-197.44464
385.002	-271.57634
385.509	-59.13186
386.015	-327.65421
386.521	-96.20341
387.028	-110.22757
387.534	-144.28896
388.04	-7.01448
388.546	-63.12505
389.051	-68.12977
389.557	58.11058
390.063	209.37998
390.568	238.43987
391.073	180.3147
391.578	351.62846
392.084	205.3359
392.589	100.1553
393.093	399.62182
393.598	422.60215
394.103	538.73898
394.607	661.80181
395.112	917.03956
395.616	943.98479
396.12	949.79704
396.624	1211.80697
397.128	1370.7883
397.632	1548.5358
398.136	1680.26485
398.639	1834.11118
399.143	2173.77768
399.646	2472.23298
400.15	2773.83529
400.653	2978.64638
401.156	3510.69099
401.659	4144.75972
402.162	5280.80774
402.664	5545.75948
403.167	7914.01873
403.67	8833.14157
404.172	2480.96044
404.674	0
405.176	0
405.678	0
406.18	0
406.682	0
407.184	0
407.686	25783.58453
408.187	36075.74073
408.688	19984.95609
409.19	12888.71348
409.691	10544.78793
410.192	8777.39607
410.693	7580.54289
411.194	6917.14474
411.694	6639.93227
412.195	6141.65935
412.696	5617.27036
413.196	5054.836
413.696	5082.1013
414.196	5176.05242
414.696	5183.97928
415.196	4880.1001
415.696	4450.76125
416.196	3461.81388
416.695	2446.77464
417.195	2080.1996
417.694	1780.11846
418.194	1615.33645
418.693	1605.61437
419.192	1606.75567
419.691	1539.78718
420.19	1519.83493
420.688	1399.87142
421.187	1111.62321
421.685	1173.8989
422.184	973.96976
422.682	677.77719
423.18	507.71743
423.678	421.65154
424.176	319.52478
424.674	175.29075
425.172	241.43505
425.669	300.57057
426.167	121.23209
426.664	31.06116
427.161	-18.03602
427.659	58.12445
428.156	-240.48672
428.652	-2.00464
429.149	-81.1841
429.646	-245.5342
430.143	-124.28394
430.639	-165.38077
431.135	-75.18071
431.632	-295.69129
432.128	-198.4775
432.624	-154.39093
433.12	-394.94464
433.616	-432.01422
434.111	-305.74894
434.607	-311.77663
435.103	-553.29853
435.598	-553.30005
436.093	-361.90177
436.588	-502.22451
437.083	-475.1708
437.578	-444.11927
438.073	-311.82368
438.568	-345.8962
439.062	-574.41435
439.557	-426.09403
440.051	-539.36851
440.546	-508.29496
441.04	-409.07374
441.534	-300.81003
442.028	-448.17293
442.522	-441.15985
443.015	-565.4209
443.509	-409.08855
444.002	-407.08465
444.496	-575.46308
444.989	-422.11782
445.482	-398.07093
445.975	-496.28733
446.468	-643.62755
446.961	-631.60733
447.454	-555.42653
447.947	-475.26324
448.439	-488.29334
448.931	-538.39836
449.424	-413.11949
449.916	-444.19181
450.408	-583.51929
450.9	-432.16106
451.392	-397.08227
451.884	-552.44311
452.375	-393.07408
452.867	-610.59157
453.358	-564.4795
453.849	-680.73125
454.341	-581.51717
454.832	-670.72313
455.323	-439.18432
455.814	-557.4722
456.304	-583.54301
456.795	-544.43085
457.285	-677.76309
457.776	-612.60655
458.266	-529.42187
458.756	-534.43508
459.247	-500.34626
459.737	-489.32111
460.226	-588.54509
460.716	-490.32659
461.206	-503.36292
461.695	-486.33815
462.185	-561.4976
462.674	-545.45342
463.163	-679.77251
463.653	-713.84036
464.142	-515.40444
464.63	-465.27321
465.119	-609.63006
465.608	-547.46164
466.096	-694.8132
466.585	-589.57238
467.073	-547.48033
467.561	-570.55626
468.05	-601.61654
468.538	-492.35
469.026	-562.5349
469.513	-616.64853
470.001	-650.72981
470.489	-547.48987
470.976	-593.59346
471.463	-492.36404
471.951	-512.42395
472.438	-584.57974
472.925	-608.64468
473.412	-541.48948
473.899	-681.8311
474.385	-539.48864
474.872	-562.53001
475.359	-532.47824
475.845	-808.09641
476.331	-794.0678
476.817	-537.47614
477.303	-625.69257
477.789	-552.5162
478.275	-554.55178
478.761	-548.51232
479.247	-669.79826
479.732	-487.36462
480.218	-413.17639
480.703	-508.42242
481.188	-778.04466
481.673	-648.75118
482.158	-752.98987
482.643	-501.40903
483.128	-677.8369
483.612	-645.76245
484.097	-574.58757
484.581	-649.75869
485.066	-557.55373
485.55	-725.93791
486.034	-785.06341
486.518	-624.7248
487.002	-500.40343
487.486	-545.51743
487.969	-536.50272
488.453	-528.48795
488.936	-681.84834
489.42	-762.03272
489.903	-525.48106
490.386	-1198.85215
490.869	-758.00476
491.352	-571.59182
491.835	-830.15423
492.318	-645.76357
492.8	-826.16063
493.283	-460.31572
493.765	-557.57233
494.247	-638.74415
494.73	-715.91371
495.212	-590.64099
495.694	-640.75961
496.175	-601.67752
496.657	-618.70608
497.139	-1076.62222
497.62	-597.6566
498.102	-550.55842
498.583	-512.44502
499.064	-682.8561
499.545	-666.81605
500.026	-712.9346
500.507	-635.74339
500.988	-520.47559
501.469	-502.43172
501.949	-525.48241
502.43	-604.68719
502.91	-813.13773
503.39	-536.51371
503.87	-589.6344
504.35	-650.79496
504.83	-733.97404
505.31	-610.71075
505.79	-577.61647
506.269	-627.73606
506.749	-664.81175
507.228	-586.62077
507.707	-743.00829
508.187	-618.70661
508.666	-548.55462
509.145	-621.72641
509.623	-659.82123
510.102	-556.55738
510.581	-611.70071
511.059	-501.42866
511.538	-455.30736
512.016	-583.63827
512.494	-582.64019
512.972	-585.62128
513.45	-636.76454
513.928	-521.46933
514.406	-534.50578
514.884	-436.25583
515.361	-571.59966
515.839	-681.87435
516.316	-582.63671
516.793	-473.34874
517.27	-606.6933
517.747	-447.28736
518.224	-632.7469
518.701	-695.90323
519.178	-550.55795
519.654	-607.68592
520.131	-535.51112
520.607	-543.53742
521.083	-662.81491
521.56	-581.62219
522.036	-727.96233
522.512	-582.63671
522.987	-591.65215
523.463	-588.64805
523.939	-551.55539
524.414	-652.78977
524.89	-621.73281
525.365	-662.81319
525.84	-555.55815
526.315	-538.50833
526.79	-703.92451
527.265	-638.76018
527.74	-542.52187
528.215	-593.65316
528.689	-742.02073
529.164	-772.06683
529.638	-438.26528
530.112	-596.66485
530.587	-787.11009
531.061	-571.60796
531.534	-587.64096
532.008	-560.57291
532.482	-714.95182
532.956	-485.3957
533.429	-563.58061
533.903	-741.9975
534.376	-756.04574
534.849	-625.72405
535.322	-618.72152
535.795	-558.57444
536.268	-608.70045
536.741	-596.6674
537.213	-649.78631
537.686	-520.46628
538.158	-715.94492
538.631	-597.6771
539.103	-687.88133
539.575	-855.24438
540.047	-742.99987
540.519	-582.62923
540.991	-565.59347
541.463	-570.60441
541.934	-663.82311
542.406	-584.63583
542.877	-662.81721
543.348	-545.52586
543.82	-573.61359
544.291	-643.77369
544.762	-597.65763
545.233	-482.37382
545.703	-710.9236
546.174	-626.72978
546.645	-558.5649
547.115	-533.49818
547.585	-654.79526
548.056	-524.48115
548.526	-555.54577
548.996	-595.66537
549.466	-543.52119
549.935	-569.5833
550.405	-718.93398
550.875	-585.6238
551.344	-537.50207
551.814	-602.65253
552.283	-739.95973
552.752	-593.6409
553.221	-655.77095
553.69	-694.86756
554.159	-454.28118
554.628	-648.76022
555.096	-383.09502
555.565	-637.72729
556.033	-558.53559
556.502	-500.39528
556.97	-665.78984
557.438	-569.57644
557.906	-553.52923
558.374	-605.65368
558.842	-539.49282
559.31	-638.72471
559.777	-514.43262
560.245	-520.42915
560.712	-541.48198
561.18	-564.51625
561.647	-596.60074
562.114	-551.49116
562.581	-407.13073
563.048	-522.41468
563.514	-383.06129
563.981	-509.3636
564.448	-523.39425
564.914	-456.23324
565.381	-511.36762
565.847	-417.12707
566.313	-414.11406
566.779	-507.33457
567.245	-354.94954
567.711	-301.8163
568.176	-405.06251
568.642	-228.6314
569.108	-190.51575
569.573	-229.61
570.038	-380.95829
570.504	-330.84855
570.969	-31.08376
571.434	-274.7041
571.899	-94.24612
572.363	-154.39176
572.828	-135.34179
573.293	-92.23305
573.757	-111.28003
574.222	-52.12975
574.686	-26.06507
575.15	17.04348
575.614	-19.04749
576.078	93.23387
576.542	7.01731
577.006	-22.0543
577.469	211.53532
577.933	77.18882
578.396	146.361
578.86	152.37638
579.323	226.56389
579.786	4.0095
580.249	123.30262
580.712	212.53337
581.175	227.57489
581.637	109.26282
582.1	61.14575
582.563	25.05845
583.025	226.56553
583.487	-61.14032
583.95	48.11445
584.412	-11.02575
584.874	153.38391
585.336	175.43214
585.797	-11.02618
586.259	127.31511
586.721	157.38598
587.182	82.20179
587.643	96.23231
588.105	190.47012
588.566	-42.09745
589.027	227.5669
589.488	144.34728
589.949	238.59081
590.41	-80.17854
590.87	170.40221
591.331	80.18451
591.791	246.59413
592.252	254.60604
592.712	314.7589
593.172	302.70478
593.632	293.6675
594.092	309.70963
594.552	304.67841
595.011	434.99561
595.471	418.9262
595.931	441.97817
596.39	690.57037
596.849	688.51593
597.308	648.34649
597.768	966.20022
598.227	869.86665
598.685	870.77866
599.144	1020.08775
599.603	1146.33025
600.062	1098.02082
600.52	1278.36261
600.978	1409.65386
601.437	1468.60684
601.895	1500.45332
602.353	1693.75427
602.811	1864.98291
603.269	2106.41976
603.727	2264.54222
604.184	2297.31409
604.642	2585.77582
605.099	2583.46636
605.557	2974.83571
606.014	2996.28086
606.471	3431.03527
606.928	3364.25834
607.385	3822.88782
607.842	3810.27213
608.299	4044.42096
608.755	4292.51066
609.212	4334.90264
609.668	4612.84946
610.125	4993.12019
610.581	5096.87349
611.037	5248.56088
611.493	5448.67013
611.949	5743.91542
612.405	5480.71206
612.861	5979.37711
613.316	6174.4555
613.772	6251.20832
614.227	6490.3184
614.683	6398.69474
615.138	6657.16787
615.593	6801.11408
616.048	6688.9634
616.503	7053.36464
616.958	7051.58888
617.412	7003.17346
617.867	6846.83655
618.321	6667.52016
618.776	6889.84794
619.23	6888.11407
619.684	6843.9233
620.138	6847.03454
620.592	6888.36904
621.046	6631.11594
621.5	6764.44349
621.954	6416.96665
622.407	6281.93636
622.861	6403.44287
623.314	6336.02423
623.768	6110.29852
624.221	5793.5198
624.674	5944.26296
625.127	5884.36653
625.58	5865.199
626.033	5718.01646
626.485	5756.63395
626.938	5701.57912
627.39	5620.52335
627.843	5470.52986
628.295	5408.48477
628.747	5499.68554
629.199	5381.45133
629.651	5422.45913
630.103	5532.47262
630.555	5257.0391
631.006	5494.56864
631.458	5533.63951
631.909	5444.36659
632.361	5556.51134
632.812	5664.44037
633.263	5494.99706
633.714	5578.88521
634.165	5940.66385
634.616	6122.41418
635.067	5810.95179
635.518	6167.33156
635.968	5972.36584
636.419	6291.73082
636.869	6516.16574
637.319	6762.99063
637.769	6859.85579
638.219	7191.05486
638.669	7562.24986
639.119	7810.49745
639.569	8038.52039
640.019	8259.5247
640.468	8549.77152
640.918	8941.48451
641.367	9190.82526
641.816	9481.44243
642.265	9907.49796
642.714	10394.9634
643.163	10716.04948
643.612	11280.09169
644.061	11410.26671
644.51	11888.23924
644.958	12331.15289
645.406	12835.55317
645.855	13178.60212
646.303	13515.62702
646.751	13935.96484
647.199	14427.34409
647.647	14566.36849
648.095	15103.1469
648.543	15078.91909
648.99	15685.67287
649.438	16262.89732
649.885	16389.21169
650.333	16499.99948
650.78	17015.50198
651.227	17168.05736
651.674	17184.18807
652.121	17417.54089
652.568	17608.60944
653.015	17735.66258
653.461	17489.79898
653.908	17568.16485
654.354	17663.08691
654.801	17486.99712
655.247	17222.20438
655.693	17563.42461
656.139	17256.72769
656.585	17309.63335
657.031	17312.86221
657.477	17065.5561
657.922	16991.39398
658.368	16891.97587
658.813	16698.29722
659.259	16669.86964
659.704	16364.28571
660.149	16394.24756
660.594	16226.20421
661.039	15864.17961
661.484	15833.21261
661.929	15660.65735
662.373	15818.51902
662.818	15754.30264
663.262	15408.52756
663.707	15546.03246
664.151	15501.21634
664.595	15226.89456
665.039	15472.59825
665.483	15667.0744
665.927	15423.20538
666.371	15425.26331
666.814	15697.6797
667.258	15637.7408
667.701	15593.48125
668.145	15846.42744
668.588	15893.26192
669.031	15950.19029
669.474	16024.88229
669.917	16102.44735
670.36	16574.07983
670.803	16607.4989
671.245	16594.68953
671.688	16951.15362
672.13	16795.70298
672.573	17010.07838
673.015	17151.44235
673.457	17241.72317
673.899	17461.37682
674.341	17558.35356
674.783	17578.81684
675.225	17883.15387
675.666	17836.42407
676.108	17876.83815
676.549	17992.36878
676.991	18212.29568
677.432	18090.69182
677.873	18008.15139
678.314	17848.14489
678.755	17939.89274
679.196	17666.84716
679.637	17719.32861
680.078	17286.05634
680.518	17226.34894
680.959	17132.21566
681.399	17112.30355
681.839	16978.38815
682.28	16795.87706
682.72	16340.18285
683.16	16222.62817
683.6	15836.20234
684.039	15622.39022
684.479	15652.64999
684.919	15378.75677
685.358	15418.88661
685.798	15338.47963
686.237	14862.39632
686.676	14668.51184
687.115	14634.86444
687.554	14447.05688
687.993	14162.5984
688.432	14045.06223
688.871	13808.10295
689.309	13840.92695
689.748	13504.08695
690.186	13543.75236
690.625	13449.21727
691.063	13381.32522
691.501	13314.71588
691.939	13175.58576
692.377	13119.41559
692.815	12976.56588
693.253	12860.79947
693.69	12564.63485
694.128	12787.15921
694.565	12480.53438
695.003	12413.61015
695.44	12273.35879
695.877	12285.38877
696.314	11854.75832
696.751	11735.75667
697.188	11694.40258
697.625	11489.47422
698.061	11657.95415
698.498	11452.02279
698.934	11354.53393
699.371	11100.52343
699.807	10962.994
700.243	10837.4215
700.679	10662.95986
701.115	10515.36751
701.551	10329.73104
701.987	10193.36245
702.422	10197.2951
702.858	10073.95036
703.294	9841.34042
703.729	9769.13998
704.164	9608.75875
704.599	9522.53392
705.035	9168.79167
705.47	9233.04128
705.904	9206.91332
706.339	8901.29849
706.774	8807.22431
707.209	8674.0113
707.643	8622.053
708.078	8550.0635
708.512	8453.04484
708.946	8171.50401
709.38	8261.58239
709.814	8020.23416
710.248	7938.42232
710.682	7882.34782
711.116	7825.38867
711.549	7754.63038
711.983	7502.01884
712.416	7333.05619
712.85	7440.41337
713.283	7211.09302
713.716	7138.33555
714.149	7016.0006
714.582	6681.82349
715.015	6713.29978
715.448	6725.43142
715.881	6365.56742
716.313	6295.10889
716.746	6294.1824
717.178	6255.26133
717.61	6147.58351
718.043	6078.53128
718.475	5960.37069
718.907	5955.7061
719.339	5565.25604
719.77	5576.52811
720.202	5665.87113
720.634	5461.84947
721.065	5329.63746
721.497	5287.8713
721.928	5251.96697
722.359	5241.9443
722.79	5054.99707
723.221	4983.17323
723.652	4861.36217
724.083	4743.71082
724.514	4648.79371
724.945	4623.98209
725.375	4521.08593
725.806	4512.32925
726.236	4506.57203
726.666	4259.17958
727.096	4388.40072
727.526	4393.64878
727.956	4133.96715
728.386	4120.4752
728.816	4106.71553
729.246	3994.58543
729.675	3960.64537
730.105	3913.4547
730.534	3688.32197
730.964	3789.72237
731.393	3732.57281
731.822	3846.86316
732.251	3739.80299
732.68	3515.3194
733.109	3610.63679
733.537	3503.5915
733.966	3646.81745
734.395	3419.29936
734.823	3259.10616
735.251	3395.63793
735.68	3443.79669
736.108	3397.83817
736.536	3187.41922
736.964	3132.40335
737.392	3257.81734
737.82	3139.57028
738.247	3114.51533
738.675	3030.49399
739.102	3197.86372
739.53	3117.96561
739.957	3103.02914
740.384	3034.62593
740.811	3068.8419
741.238	2931.66562
741.665	2823.33234
742.092	2831.51189
742.519	2881.74413
742.945	2825.56073
743.372	2830.75911
743.798	2924.97679
744.225	2690.47346
744.651	2800.78614
745.077	2717.73498
745.503	2775.60398
745.929	2724.51492
746.355	2704.67832
746.781	2619.66684
747.207	2602.49623
747.632	2631.69555
748.058	2627.71682
748.483	2480.26878
748.908	2615.66553
749.334	2651.66105
749.759	2480.31119
750.184	2481.46498
750.609	2599.6423
751.033	2505.3555
751.458	2346.06562
751.883	2494.60334
752.307	2458.39472
752.732	2486.75566
753.156	2534.68703
753.58	2487.42652
754.005	2477.68669
754.429	2341.33043
754.853	2408.58032
755.277	2222.21581
755.7	2372.58765
756.124	2452.62823
756.548	2297.36818
756.971	2298.3747
757.394	2499.86195
757.818	2384.74628
758.241	2330.66799
758.664	2329.67767
759.087	2084.99942
759.51	2321.52607
759.933	2285.42212
760.356	2297.66268
760.778	2237.52586
761.201	2210.38412
761.623	2124.26124
762.046	2100.19407
762.468	1996.09327
762.89	2108.34257
763.312	2133.40458
763.734	2051.23171
764.156	2097.38164
764.578	1985.03814
765	1993.26855
765.421	2093.53544
765.843	2047.59068
766.264	1901.12104
766.686	1903.24034
767.107	1846.0819
767.528	1914.36847
767.949	1891.34386
768.37	1719.97037
768.791	1747.00711
769.212	1813.24753
769.632	1638.79469
770.053	1815.4218
770.473	1661.93412
770.894	1652.98927
771.314	1505.6462
771.734	1455.59225
772.154	1551.96312
772.575	1417.48685
772.994	1317.34656
773.414	1503.70004
773.834	1519.88383
774.254	1411.71564
774.673	1350.56032
775.093	1377.66516
775.512	1336.58014
775.931	1353.69907
776.351	1301.5666
776.77	1266.48642
777.189	1144.22537
777.607	1293.64078
778.026	1191.43881
778.445	1169.42372
778.864	1181.47352
779.282	1003.05244
779.701	1067.23749
780.119	1124.42151
780.537	1056.22942
780.955	946.03949
781.373	953.01479
781.791	747.50386
782.209	728.4921
782.627	1005.29136
783.045	739.54025
783.462	901.01215
783.88	842.9218
784.297	825.8388
784.715	867.96498
785.132	687.52477
785.549	740.67473
785.966	675.54332
786.383	620.40412
786.8	500.09619
787.217	524.16818
787.633	534.25265
788.05	441.98508
788.466	325.72841
788.883	560.32546
789.299	438.00309
789.715	391.92156
790.131	457.08781
790.547	379.90229
790.963	435.03456
791.379	409.9927
791.795	191.4355
792.21	223.51604
792.626	175.41412
793.041	303.7377
793.457	320.77544
793.872	106.25303
794.287	149.36144
794.702	247.59734
795.117	240.59426
795.532	212.53203
795.947	129.31257
796.362	76.1855
796.776	-27.06476
797.191	102.2547
797.605	51.12608
798.02	34.08499
798.434	-156.36838
798.848	84.21241
799.262	70.17921
799.676	-25.06271
800.09	66.1685
800.504	-91.2304
800.918	-177.44492
801.331	48.12623
801.745	-203.50367
802.158	-43.11176
802.572	-170.43429
802.985	-129.32788
803.398	-185.47186
803.811	-103.27192
804.224	-169.44074
804.637	-173.44374
805.05	-325.82242
805.462	-170.44236
805.875	-92.24958
806.288	-235.61723
806.7	-180.48116
807.112	-360.91371
807.525	-221.58223
807.937	-228.6036
808.349	-213.5687
808.761	-282.75101
809.173	-309.81427
809.584	-309.8233
809.996	-322.86403
810.408	-203.5591
810.819	-371.97461
811.231	-141.39093
811.642	-331.89036
812.053	-332.89085
812.464	-382.01605
812.875	-246.67332
813.286	-261.72197
813.697	-454.18585
814.108	-367.98197
814.519	-600.54093
814.929	-324.89152
815.34	-389.05296
815.75	-324.89659
816.16	-393.06929
816.571	-323.89704
816.981	-515.3652
817.391	-455.23113
817.801	-386.06479
818.211	-533.41671
818.62	-438.1845
819.03	-472.28275
819.44	-348.9771
819.849	-421.15586
820.259	-415.1487
820.668	-451.23835
821.077	-424.172
821.486	-545.47634
821.895	-517.4144
822.304	-337.96223
822.713	-559.51136
823.122	-483.34053
823.531	-555.50635
823.939	-529.45642
824.348	-516.41591
824.756	-467.3005
825.164	-482.33504
825.573	-419.17349
825.981	-526.45566
826.389	-472.31789
826.797	-529.46694
827.205	-631.69116
827.612	-511.41611
828.02	-622.69014
828.428	-456.28488
828.835	-410.17565
829.243	-578.58162
829.65	-546.52655
830.057	-560.544
830.464	-593.63937
830.871	-604.64754
831.278	-617.69504
831.685	-734.9468
832.092	-553.53543
832.499	-802.10563
832.905	-506.41986
833.312	-714.91822
833.718	-543.51839
834.124	-729.95115
834.531	-533.49407
834.937	-518.45444
835.343	-626.73194
835.749	-730.96692
836.155	-433.23455
836.561	-579.61959
836.966	-598.65964
837.372	-519.46944
837.777	-556.56737
838.183	-817.1619
838.588	-636.7782
838.993	-616.70269
839.399	-610.69714
839.804	-630.7544
840.209	-505.44178
840.613	-793.113
841.018	-586.65796
841.423	-531.51111
841.828	-536.52284
842.232	-616.72071
842.637	-679.86473
843.041	-483.37769
843.445	-572.61444
843.849	-614.71881
844.253	-691.90484
844.657	-544.54188
845.061	-765.06444
845.465	-649.80199
845.869	-694.88572
846.272	-630.76143
846.676	-678.87166
847.079	-503.43351
847.483	-596.66485
847.886	-697.92257
848.289	-434.2628
848.692	-571.6211
849.095	-664.84505
849.498	-596.67812
849.901	-784.11674
850.304	-664.83647
850.707	-572.62224
851.109	-602.69706
851.512	-629.77397
851.914	-520.48486
852.316	-607.71245
852.718	-518.49095
853.121	-641.79575
853.523	-693.90676
853.925	-480.38756
854.326	-609.71394
854.728	-518.48571
855.13	-506.45767
855.531	-648.80173
855.933	-722.98555
856.334	-602.70271
856.736	-792.12868
857.137	-772.10914
857.538	-555.57708
857.939	-581.63762
858.34	-647.79923
858.741	-497.42859
859.142	-682.89387
859.542	-472.37114
859.943	-609.71029
860.343	-585.63888
860.744	-648.80061
861.144	-677.87562
861.544	-656.83241
861.945	-536.53646
862.345	-664.85304
862.745	-578.6363
863.145	-713.96482
863.544	-583.6522
863.944	-729.9912
864.344	-619.73784
864.743	-638.78434
865.143	-556.59428
865.542	-762.08577
865.941	-590.66173
866.34	-691.90603
866.74	-466.35836
867.139	-655.82146
867.537	-577.64156
867.936	-671.86593
868.335	-551.56758
868.734	-536.54324
869.132	-746.04712
869.531	-715.97527
869.929	-762.07587
870.327	-678.88568
870.726	-644.80443
871.124	-720.97382
871.522	-558.59058
871.92	-629.77075
872.318	-653.8232
872.715	-676.88999
873.113	-642.79937
873.511	-566.60281
873.908	-531.51561
874.306	-585.65637
874.703	-607.70779
875.1	-570.62431
875.497	-644.78784
875.894	-622.75397
876.291	-664.85816
876.688	-515.48816
877.085	-703.93729
877.482	-631.78552
877.878	-660.83224
878.275	-542.54403
878.671	-845.26187
879.068	-675.87182
879.464	-689.91655
879.86	-738.0309
880.256	-625.74719
880.652	-572.63146
881.048	-651.82598
881.444	-753.06601
881.84	-582.65604
882.236	-607.71556
882.631	-616.7339
883.027	-693.91693
883.422	-550.56403
883.817	-564.61723
884.213	-558.60472
884.608	-612.71741
885.003	-652.81733
885.398	-571.62498
885.793	-618.74954
886.188	-598.70055
886.582	-583.6517
886.977	-702.93363
887.371	-632.78485
887.766	-610.72793
888.16	-611.72009
888.554	-664.85589
888.949	-610.71857
889.343	-685.90837
889.737	-447.31426
890.131	-628.76981
890.525	-550.56497
890.918	-617.73961
891.312	-740.02874
891.706	-568.63205
892.099	-613.73669
892.492	-862.27071
892.886	-680.89941
893.279	-558.5953
893.672	-624.76599
894.065	-634.79212
894.458	-568.61475
894.851	-671.87688
895.244	-572.62952
895.637	-677.88436
896.029	-656.82903
896.422	-680.89883
896.814	-630.77168
897.206	-702.93787
897.599	-658.83743
897.991	-701.94568
898.383	-682.88564
898.775	-829.23352
899.167	-734.01799
899.559	-598.69496
899.951	-740.02874
900.342	-597.68933
900.734	-588.66962
901.125	-507.46333
901.517	-642.80596
901.908	-711.96116
902.299	-605.70371
902.69	-719.98383
903.082	-681.89255
903.473	-668.85846
903.863	-582.66294
904.254	-727.99268
904.645	-614.72617
905.036	-676.89288
905.426	-814.19631
905.817	-637.78782
906.207	-692.9234
906.597	-769.09528
906.987	-533.53123
907.378	-614.73717
907.768	-488.41684
908.158	-669.86842
908.547	-540.55613
908.937	-594.69169
909.327	-668.8705
909.717	-610.72845
910.106	-674.85888
910.495	-600.68938
910.885	-566.61099
911.274	-626.77005
911.663	-626.77431
912.052	-675.88748
912.441	-609.73105
912.83	-764.07801
913.219	-528.51975
913.608	-668.86477
913.997	-603.71553
914.385	-715.96724
914.774	-666.85404
915.162	-682.89034
915.55	-695.93084
915.939	-595.69025
916.327	-666.87003
916.715	-586.67288
917.103	-679.89866
917.491	-663.85281
917.878	-694.93134
918.266	-583.66753
918.654	-549.57304
919.041	-527.52904
919.429	-732.01817
919.816	-601.70167
920.203	-670.87035
920.591	-655.84
920.978	-713.98141
921.365	-510.47478
921.752	-676.86673
922.139	-868.30708
922.525	-675.88632
922.912	-691.92686
923.299	-606.70782
923.685	-524.51528
924.072	-819.21015
924.458	-638.79526
924.844	-620.74568
925.231	-763.0895
925.617	-576.64872
926.003	-589.6812
926.389	-602.71192
926.774	-596.69638
927.16	-639.80216
927.546	-553.58824
927.931	-617.74066
928.317	-803.17188
928.702	-748.04485
929.088	-715.97897
929.473	-590.6788
929.858	-672.88111
930.243	-682.89269
930.628	-641.80069
931.013	-634.78942
931.398	-792.13627
931.783	-535.54374
932.167	-629.76699
932.552	-633.77822
932.937	-663.86756
933.321	-598.69649
933.705	-604.72068
934.09	-642.81473
934.474	-735.02042
934.858	-548.57688
935.242	-783.14832
935.626	-555.59399
936.009	-525.51884
936.393	-610.74036
936.777	-582.66934
937.16	-569.63756
937.544	-769.10526
937.927	-564.6115
938.311	-675.87647
938.694	-525.51928
939.077	-705.95313
939.46	-726.00349
939.843	-922.40672
940.226	-563.61079
940.609	-751.06052
940.991	-576.64287
941.374	-676.89867
941.757	-676.8923
942.139	-783.12051
942.522	-751.05013
942.904	-699.94014
943.286	-615.74445
943.668	-542.56007
944.05	-648.82173
944.432	-625.76749
944.814	-684.90882
945.196	-649.82869
945.578	-667.86227
945.959	-739.02504
946.341	-722.99988
946.722	-752.05579
947.104	-722.00301
947.485	-769.1026
947.866	-565.61747
948.247	-632.78808
948.628	-705.95981
949.009	-549.57397
949.39	-655.84671
949.771	-760.07569
950.152	-658.856
950.532	-624.76386
950.913	-693.92469
951.293	-449.32201
951.674	-626.75776
952.054	-604.71145
952.434	-658.85376
952.814	-714.97097
953.194	-547.57331
953.574	-696.94348
953.954	-715.9728
954.334	-639.81141
954.714	-661.85402
955.093	-678.89325
955.473	-638.80179
955.853	-556.5924
956.232	-449.31903
956.611	-732.02761
956.99	-593.6886
957.37	-570.6272
957.749	-716.98944
958.128	-589.6812
958.506	-515.49291
958.885	-585.66482
959.264	-610.72274
959.643	-822.21646
960.021	-634.79374
960.4	-797.15704
960.778	-641.7919
961.156	-586.66194
961.535	-778.12418
961.913	-752.05969
962.291	-545.57901
962.669	-633.80086
963.047	-601.71188
963.424	-582.65752
963.802	-627.7603
964.18	-598.69293
964.557	-784.13037
964.935	-733.01808
965.312	-559.61066
965.69	-651.83377
966.067	-661.84779
966.444	-668.86534
966.821	-552.57394
967.198	-709.97396
967.575	-695.93263
967.952	-738.01815
968.329	-683.91159
968.705	-919.40255
969.082	-538.54174
969.458	-673.88362
969.835	-680.89299
970.211	-550.58264
970.587	-633.78093
970.963	-587.67648
971.339	-541.56605
971.715	-615.73082
972.091	-633.77118
972.467	-624.76067
972.843	-652.84298
973.219	-740.03257
973.594	-476.37998
973.97	-743.04434
974.345	-692.91923
974.721	-741.04905
975.096	-675.87299
975.471	-716.97154
975.846	-711.96791
976.221	-561.60791
976.596	-693.92886
976.971	-664.86555
977.346	-791.15248
977.72	-565.61173
978.095	-540.55203
978.469	-725.99786
978.844	-636.79018
979.218	-712.97159
979.593	-720.99
979.967	-679.894
980.341	-780.11001
980.715	-575.62903
981.089	-645.81192
981.463	-744.0352
981.837	-654.83523
982.21	-773.09947
982.584	-682.89797
982.957	-601.7027
983.331	-714.96233
983.704	-708.96966
984.078	-633.78038
984.451	-643.79363
984.824	-648.81008
985.197	-704.96217
985.57	-614.73508
985.943	-682.90558
986.316	-666.86147
986.688	-717.98759
987.061	-738.03217
987.434	-527.51754
987.806	-682.90207
988.179	-709.95565
988.551	-575.63587
988.923	-674.89536
989.295	-689.92955
989.667	-687.91335
990.039	-599.68528
990.411	-791.14973
990.783	-790.1405
991.155	-649.81815
991.527	-678.88801
991.898	-622.76192
992.27	-658.8487
992.641	-631.77961
993.012	-733.00415
993.384	-735.02105
993.755	-548.56531
994.126	-718.99066
994.497	-654.83803
994.868	-774.10521
995.239	-693.9223
995.61	-588.67111
995.98	-662.85767
996.351	-668.88818
996.722	-722.98367
997.092	-740.04978
997.462	-740.03704
997.833	-738.02389
998.203	-714.98327
998.573	-629.7686
998.943	-735.02169
999.313	-699.94615
999.683	-671.87228
1000.053	-788.15012
1000.423	-716.99128
1000.792	-511.47058
1001.162	-654.82571
1001.531	-661.8608
1001.901	-595.68975
1002.27	-830.22137
1002.639	-577.65572
1003.009	-758.08856
1003.378	-593.68507
1003.747	-718.98819
1004.116	-720.00116
1004.485	-721.98311
1004.853	-593.68356
1005.222	-636.79885
1005.591	-749.06344
1005.959	-785.12661
1006.328	-814.19064
1006.696	-654.82402
1007.064	-623.76183
1007.433	-633.78363
1007.801	-692.92756
1008.169	-649.83699
1008.537	-858.29477
1008.905	-729.99752
1009.273	-679.89691
1009.64	-699.95095
1010.008	-711.97158
1010.375	-764.09455
1010.743	-787.12655
1011.11	-708.95442
1011.478	-655.83664
1011.845	-761.08468
1012.212	-792.14179
1012.579	-669.8644
1012.946	-734.01989
1013.313	-759.08706
1013.68	-854.29303
1014.047	-700.94442
1014.414	-725.00042
1014.78	-649.82204
1015.147	-722.99303
1015.513	-679.88408
1015.88	-622.76773
1016.246	-703.95727
1016.612	-821.20697
1016.978	-666.86433
1017.344	-614.72669
1017.71	-712.96914
1018.076	-756.06869
1018.442	-604.72375
1018.808	-613.73199
1019.174	-597.69238
1019.539	-843.26388
1019.905	-739.0295
1020.27	-622.75025
1020.636	-710.96361
1021.001	-713.96544
1021.366	-712.98262
1021.731	-606.72535
1022.096	-599.70517
1022.461	-749.06279
1022.826	-711.95255
1023.191	-542.56645
1023.556	-733.01112
1023.92	-674.87804
1024.285	-686.91851
1024.649	-666.86661
1025.014	-647.82196
1025.378	-602.7063
1025.742	-611.72009
1026.107	-859.3143
1026.471	-816.2166
1026.835	-609.71654
1027.199	-649.82315
1027.562	-761.0715
1027.926	-668.85961
1028.29	-578.65004
1028.654	-785.13138
1029.017	-680.89358
1029.381	-711.96974
1029.744	-617.75693
1030.107	-754.06908
1030.471	-748.05907
1030.834	-829.23424
1031.197	-736.02539
1031.56	-782.15064
1031.923	-542.55046
1032.286	-756.06346
1032.648	-701.94749
1033.011	-825.23638
1033.374	-804.19863
1033.736	-521.51424
1034.099	-664.86214
1034.461	-631.79089
1034.823	-650.83179
1035.185	-611.7305
1035.548	-660.84528
1035.91	-707.95684
1036.272	-834.23863
1036.634	-713.98509
1036.995	-722.98804
1037.357	-669.86612
1037.719	-718.99005
1038.08	-741.0318
1038.442	-752.07073
1038.803	-722.99677
1039.165	-579.65118
1039.526	-715.99065
1039.887	-702.94453
1040.248	-664.86385
1040.609	-680.89475
1040.97	-669.87816
1041.331	-623.77454
1041.692	-708.95625
1042.053	-819.22083
1042.413	-772.10914
1042.774	-679.88408
1043.134	-715.97403
1043.495	-635.79143
1043.855	-680.8889
1044.215	-652.84686
1044.576	-679.89342
1044.936	-810.19397
1045.296	-642.81144
1045.656	-687.91512
1046.016	-719.98817
1046.375	-717.9919
1046.735	-817.2147
1047.095	-778.13158
1047.454	-961.51391
1047.814	-720.99992
1048.173	-794.1658
1048.533	-818.21777
1048.892	-698.95265
1049.251	-624.76705
1049.61	-686.92966
1049.969	-697.92558
1050.328	-908.40057
1050.687	-683.89987
1051.046	-711.9728
1051.405	-610.72534
1051.763	-801.18662
1052.122	-639.80652
1052.48	-700.94562
1052.839	-758.08202
1053.197	-716.96596
1053.555	-910.43055
1053.914	-717.99437
1054.272	-744.05254
1054.63	-653.8355
1054.988	-726.00724
1055.345	-917.42072
1055.703	-707.9538
1056.061	-574.64057
1056.419	-555.59305
1056.776	-732.02258
1057.134	-775.1123
1057.491	-641.80726
1057.848	-667.86912
1058.206	-753.06861
1058.563	-876.32986
1058.92	-838.26469
1059.277	-674.88729
1059.634	-756.06476
1059.991	-694.9146
1060.348	-802.16603
1060.704	-720.99806
1061.061	-804.18401
1061.418	-711.97831
1061.774	-663.86642
1062.131	-488.42051
1062.487	-748.04421
1062.843	-663.86472
1063.199	-612.72786
1063.555	-754.06322
1063.911	-644.81928
1064.267	-1000.59064
1064.623	-669.86383
1064.979	-752.06099
1065.335	-748.05584
1065.691	-741.04586
1066.046	-949.49592
1066.402	-783.12595
1066.757	-618.7448
1067.112	-689.91892
1067.468	-669.86498
1067.823	-697.93759
1068.178	-717.9845
1068.533	-701.95592
1068.888	-723.98798
1069.243	-672.88744
1069.598	-676.88361
1069.952	-814.20268
1070.307	-595.68063
1070.662	-748.05584
1071.016	-847.27904
1071.371	-835.25331
1071.725	-732.0169
1072.079	-730.01328
1072.434	-674.8844
1072.788	-701.93481
1073.142	-649.82037
1073.496	-746.05292
1073.85	-802.17022
1074.203	-636.78038
1074.557	-489.42363
1074.911	-753.06146
1075.265	-769.09061
1075.618	-711.97586
1075.971	-733.01682
1076.325	-597.70454
1076.678	-776.11536
1077.031	-815.20574
1077.385	-860.30162
1077.738	-811.18575
1078.091	-810.20171
1078.444	-771.09672
1078.796	-681.89841
1079.149	-666.87287
1079.502	-702.94997
1079.855	-774.12931
1080.207	-662.8537
1080.56	-563.61412
1080.912	-703.95304
1081.264	-706.95925
1081.617	-643.8041
1081.969	-581.65639
1082.321	-691.9227
1082.673	-772.0991
1083.025	-710.95687
1083.377	-906.38813
1083.728	-790.14667
1084.08	-636.79018
1084.432	-680.88831
1084.783	-772.10646
1085.135	-622.76086
1085.486	-781.13744
1085.838	-642.80047
1086.189	-694.92298
1086.54	-733.01618
1086.891	-598.70714
1087.242	-716.98944
1087.593	-688.9117
1087.944	-834.23062
1088.295	-816.19815
1088.646	-677.89191
1088.996	-710.96911
1089.347	-667.86684
1089.698	-730.01139
1090.048	-593.69312
1090.398	-794.14927
1090.749	-714.97651
1091.099	-565.6189
1091.449	-628.76552
1091.799	-625.76961
1092.149	-639.80815
1092.499	-681.89607
1092.849	-580.65723
1093.199	-644.80718
1093.548	-704.96157
1093.898	-634.79536
1094.248	-594.69622
1094.597	-543.56409
1094.947	-499.45068
1095.296	-674.88902
1095.645	-551.58296
1095.994	-722.99116
1096.343	-635.80008
1096.692	-445.30431
1097.041	-491.43927
1097.39	-568.60896
1097.739	-542.55595
1098.088	-465.35486
1098.437	-519.50756
1098.785	-491.42864
1099.134	-510.47649
1099.482	-412.21854
1099.83	-560.61425
1100.179	-507.47013
1100.527	-521.5125
1100.875	-503.45811
1101.223	-504.46164
1101.571	-400.18564
1101.919	-495.43863
1102.267	-367.09683
1102.615	3.00968
1102.962	-1.00322
1103.31	1.00322
1103.658	10.03227
