Data from N2 R0 105C sample5_Subt2__6__12-21-35-224.txt Node

Date: Tue Aug 19 12:21:35 PDT 2025
User: uwsun
Spectrometer: HDX01956
Trigger mode: 0
Integration Time (sec): 5.000000E-1
Scans to average: 1
Nonlinearity correction enabled: true
Boxcar width: 0
Storing dark spectrum: false
XAxis mode: Wavelengths
Number of Pixels in Spectrum: 2068
>>>>>Begin Spectral Data<<<<<
194.03	522.41331
194.578	538.64014
195.127	527.58556
195.676	506.5328
196.225	570.44039
196.773	648.68384
197.321	885.22097
197.87	1189.62947
198.418	1231.66163
198.966	1195.6776
199.513	1168.48212
200.061	1197.59797
200.609	1134.57972
201.156	1132.10124
201.704	1233.64229
202.251	1213.75874
202.798	1203.66701
203.345	1241.57313
203.892	1211.58074
204.438	1231.46664
204.985	1189.42489
205.532	1215.72127
206.078	1222.53203
206.624	1288.64412
207.17	1223.38107
207.716	1255.55505
208.262	1166.90715
208.808	1248.62364
209.354	1297.62877
209.899	1248.61565
210.445	1282.68225
210.99	1280.59135
211.535	1295.53221
212.08	1260.46999
212.625	1282.68576
213.17	1263.67425
213.715	1215.33316
214.259	1256.43452
214.804	1260.5739
215.348	1209.30277
215.892	1225.45573
216.436	1236.3866
216.98	1253.31567
217.524	1214.40971
218.068	1248.67045
218.612	1163.49864
219.155	1129.27025
219.698	1187.39141
220.242	1139.4262
220.785	1108.20811
221.328	1125.38708
221.871	1103.38181
222.414	1112.37528
222.956	1122.35243
223.499	1111.13503
224.041	1125.23223
224.583	1072.94762
225.126	1085.0441
225.668	1089.26968
226.21	1096.37421
226.751	1058.01593
227.293	1134.22566
227.835	1096.32199
228.376	1092.14908
228.918	1142.46344
229.459	1111.38484
230	1074.19549
230.541	1155.29399
231.082	1062.19141
231.622	1070.11061
232.163	1107.30521
232.704	1092.31751
233.244	1083.31478
233.784	1154.38995
234.324	1232.28745
234.864	1074.09582
235.404	1055.16386
235.944	1093.2118
236.484	1118.35531
237.023	1125.28491
237.563	1092.16112
238.102	1130.23854
238.641	1177.52334
239.18	1114.24566
239.719	1122.40693
240.258	1156.19362
240.797	1189.41072
241.335	1145.38442
241.874	1198.93476
242.412	1205.45646
242.95	1118.29377
243.488	1157.24594
244.026	1053.09105
244.564	1197.0413
245.102	1163.19787
245.64	1164.34661
246.177	1134.16841
246.715	1252.49674
247.252	1202.30758
247.789	1225.87959
248.326	1147.36965
248.863	1159.16691
249.4	1179.25305
249.936	1211.04325
250.473	1208.3734
251.009	1171.29144
251.546	1252.27317
252.082	1234.23473
252.618	1186.20178
253.154	1176.41183
253.69	1150.1706
254.226	1161.34002
254.761	1220.32098
255.297	1105.04641
255.832	1207.37088
256.367	1232.43194
256.903	1184.14387
257.438	1263.43944
257.972	1227.28769
258.507	1234.37821
259.042	1214.21615
259.576	1270.27813
260.111	1230.35808
260.645	1199.12893
261.179	1156.27741
261.713	1300.38559
262.247	1227.372
262.781	1192.09522
263.315	1218.51927
263.849	1248.62136
264.382	1211.3077
264.915	1332.57849
265.449	1262.61959
265.982	1309.44823
266.515	1236.49197
267.048	1273.24345
267.58	1296.31194
268.113	1262.24989
268.646	1277.62327
269.178	1251.31883
269.71	1294.31663
270.243	1285.39381
270.775	1286.69062
271.307	1284.53477
271.838	1275.45099
272.37	1268.58096
272.902	1287.39401
273.433	1220.1803
273.965	1291.58822
274.496	1275.58647
275.027	1336.70362
275.558	1351.66294
276.089	1325.69892
276.62	1287.70389
277.15	1307.60239
277.681	1371.3945
278.211	1266.49222
278.741	1269.31169
279.272	1289.406
279.802	1366.74566
280.332	1365.5982
280.861	1376.67266
281.391	1303.40838
281.921	1395.69753
282.45	1379.79136
282.98	1384.92855
283.509	1343.41758
284.038	1389.53239
284.567	1316.46437
285.096	1361.67272
285.625	1449.61449
286.153	1311.48676
286.682	1403.56057
287.21	1375.67889
287.739	1366.62696
288.267	1384.69962
288.795	1381.89132
289.323	1455.73014
289.851	1500.76768
290.378	1454.5726
290.906	1448.79958
291.433	1413.79827
291.961	1418.54476
292.488	1451.84978
293.015	1520.81025
293.542	1478.98586
294.069	1432.78035
294.596	1494.8778
295.122	1456.74331
295.649	1500.53874
296.175	1598.00326
296.702	1528.86267
297.228	1534.87255
297.754	1591.76941
298.28	1549.71133
298.806	1538.86046
299.332	1544.64305
299.857	1553.68036
300.383	1539.02023
300.908	1594.97513
301.433	1532.86321
301.958	1610.77717
302.483	1593.05977
303.008	1632.05851
303.533	1575.14123
304.058	1614.88796
304.582	1574.86466
305.107	1651.31406
305.631	1629.75642
306.155	1671.91861
306.679	1663.87296
307.203	1691.92319
307.727	1677.96103
308.251	1695.12554
308.775	1737.06033
309.298	1747.13492
309.822	1761.2893
310.345	1834.15892
310.868	1769.08038
311.391	1781.18986
311.914	1780.28707
312.437	1825.97123
312.96	1870.11734
313.482	1868.13072
314.005	1851.36281
314.527	1840.54319
315.049	1870.34608
315.571	1926.02426
316.093	1985.43649
316.615	1967.32217
317.137	1969.90773
317.659	2035.41459
318.18	2048.30426
318.702	2041.16685
319.223	2068.83682
319.744	2059.09516
320.265	2077.41733
320.786	2157.58333
321.307	2177.59182
321.828	2178.21929
322.348	2159.37221
322.869	2242.47357
323.389	1948.74609
323.909	2231.25156
324.43	2180.39114
324.95	2271.28948
325.47	2270.55979
325.989	2352.4478
326.509	2372.19242
327.029	2377.23313
327.548	2486.28762
328.067	2494.6704
328.587	2425.71531
329.106	2478.24066
329.625	2509.00022
330.144	2564.46725
330.662	2572.37316
331.181	2559.47446
331.7	2634.53876
332.218	2699.19704
332.736	2691.53062
333.255	2737.48985
333.773	2727.54548
334.291	2839.81849
334.808	2856.36566
335.326	2942.38954
335.844	2966.55843
336.361	2976.00319
336.879	2968.61992
337.396	3081.69521
337.913	3114.43213
338.43	3167.33729
338.947	3215.56856
339.464	3273.08062
339.981	3225.60673
340.497	3202.75382
341.014	3331.76942
341.53	3278.23042
342.046	3481.70824
342.562	3467.86761
343.078	3415.52701
343.594	3512.55673
344.11	3606.4652
344.626	3564.89375
345.141	3569.22902
345.657	3622.15326
346.172	3659.56811
346.687	3638.33732
347.202	3779.12108
347.717	3720.5055
348.232	3867.72148
348.747	3821.25401
349.261	3895.96882
349.776	3939.31172
350.29	4011.65619
350.805	4072.66863
351.319	3976.28244
351.833	4107.95642
352.347	4020.22939
352.861	4074.13923
353.374	4194.96389
353.888	4198.33928
354.401	4260.002
354.915	4328.84436
355.428	4330.43176
355.941	4404.03573
356.454	4369.74738
356.967	4433.99928
357.48	4459.81653
357.993	4522.25939
358.505	4560.15971
359.018	4694.10903
359.53	4786.0305
360.042	4675.49833
360.554	4781.94973
361.066	4683.1212
361.578	4776.29947
362.09	4764.82531
362.602	4841.35781
363.113	4955.66597
363.625	4994.40541
364.136	5116.17658
364.647	5216.5909
365.158	5227.40167
365.669	5180.6172
366.18	5281.44926
366.691	5229.12005
367.201	5307.57653
367.712	5316.28478
368.222	5345.26319
368.733	5495.00842
369.243	5661.93813
369.753	5658.24447
370.263	5741.35422
370.773	5723.41079
371.282	5802.20747
371.792	6163.03589
372.301	6229.16192
372.811	6097.61395
373.32	6192.45991
373.829	6518.91919
374.338	6783.51994
374.847	6943.73715
375.356	7146.86074
375.865	7452.48146
376.373	7754.88866
376.882	7864.33137
377.39	7973.22165
377.898	8321.60855
378.407	8718.90026
378.915	9090.5593
379.423	9277.9818
379.93	9535.58826
380.438	10258.57408
380.946	10692.20552
381.453	11177.20326
381.96	11561.13581
382.468	12602.17636
382.975	13271.83624
383.482	13646.84418
383.989	13566.57261
384.495	14281.97922
385.002	14940.55998
385.509	15724.83731
386.015	16790.72466
386.521	17599.23857
387.028	18177.39451
387.534	18967.01128
388.04	19530.21424
388.546	20062.15065
389.051	21007.80989
389.557	22673.2325
390.063	24221.64048
390.568	24828.54421
391.073	25855.04494
391.578	26972.03359
392.084	27445.40178
392.589	28260.49268
393.093	30809.12005
393.598	33607.1797
394.103	36338.14662
394.607	39937.74765
395.112	42554.80642
395.616	44962.37485
396.12	48847.32381
396.624	53553.4838
397.128	57897.24964
397.632	61103.02215
398.136	61650.28964
398.639	61850.40973
399.143	61679.31033
399.646	61269.15804
400.15	60904.11498
400.653	60560.14334
401.156	60136.25446
401.659	59550.50961
402.162	58431.12733
402.664	54480.21957
403.167	49329.08451
403.67	22278.45323
404.172	2696.20453
404.674	0
405.176	0
405.678	0
406.18	0
406.682	0
407.184	0
407.686	25783.58453
408.187	43316.52985
408.688	51225.60928
409.19	54389.01922
409.691	56215.4214
410.192	57270.57019
410.693	57845.40442
411.194	58219.2365
411.694	58633.01717
412.195	59215.68848
412.696	59364.60701
413.196	59341.61941
413.696	59632.46864
414.196	59367.6054
414.696	59763.40624
415.196	59913.34014
415.696	60584.13941
416.196	61381.18813
416.695	61808.38326
417.195	62018.52935
417.694	61837.40139
418.194	62001.51623
418.693	62262.74355
419.192	62059.97755
419.691	61803.74328
420.19	60674.78693
420.688	59367.67284
421.187	56856.50684
421.685	52598.90093
422.184	47625.57953
422.682	40620.95333
423.18	34656.55118
423.678	31038.35333
424.176	28936.09676
424.674	27205.36466
425.172	25940.12351
425.669	24586.11008
426.167	22694.99499
426.664	20793.2125
427.161	19059.6117
427.659	17650.77036
428.156	16433.70206
428.652	15587.38553
429.149	14944.63398
429.646	14355.39385
430.143	13506.00608
430.639	12654.83153
431.135	12103.81443
431.632	11447.85269
432.128	10700.24297
432.624	10210.3671
433.12	9860.49883
433.616	9674.00654
434.111	9197.80609
434.607	9018.47296
435.103	8799.96527
435.598	8519.47713
436.093	8180.26461
436.588	7858.79107
437.083	7394.5589
437.578	7034.61047
438.073	6766.09718
438.568	6466.95448
439.062	6411.31942
439.557	6114.87873
440.051	5937.69957
440.546	5710.86799
441.04	5624.29972
441.534	5510.75704
442.028	5489.28654
442.522	5324.42559
443.015	5169.95338
443.509	5220.64033
444.002	5124.70977
444.496	4919.1725
444.989	4964.72138
445.482	4890.94695
445.975	4916.45556
446.468	4790.10681
446.961	4871.12859
447.454	4612.45835
447.947	4546.90935
448.439	4330.97227
448.931	4469.6561
449.424	4423.24595
449.916	4384.12675
450.408	4374.66378
450.9	4266.21492
451.392	4086.48056
451.884	4034.90483
452.375	4032.53219
452.867	3996.82376
453.358	3917.9679
453.849	3869.59051
454.341	3863.92935
454.832	3786.71837
455.323	3872.40626
455.814	3775.09759
456.304	3585.13775
456.795	3610.13265
457.285	3578.88591
457.776	3535.04856
458.266	3525.35474
458.756	3389.37711
459.247	3360.44327
459.737	3319.49188
460.226	3310.1448
460.716	3223.51871
461.206	3187.51136
461.695	3105.66506
462.185	3094.32821
462.674	3097.34048
463.163	3039.0241
463.653	2980.91059
464.142	2870.54046
464.63	2937.63936
465.119	2893.29209
465.608	2803.34669
466.096	2878.02197
466.585	2732.28287
467.073	2639.40785
467.561	2579.42777
468.05	2681.31336
468.538	2603.55658
469.026	2592.44245
469.513	2653.25688
470.001	2427.12891
470.489	2472.40195
470.976	2480.26666
471.463	2316.50714
471.951	2318.50821
472.438	2230.21598
472.925	2160.15613
473.412	2196.3468
473.899	2098.01946
474.385	2099.30668
474.872	2134.22231
475.359	2084.33908
475.845	1983.66313
476.331	1917.65773
476.817	1861.10135
477.303	1881.96596
477.789	1833.0608
478.275	1789.12192
478.761	1765.02721
479.247	1763.79978
479.732	1796.18527
480.218	1687.21483
480.703	1701.06884
481.188	1668.54221
481.673	1610.70441
482.158	1569.50001
482.643	1569.95045
483.128	1550.64216
483.612	1521.66482
484.097	1499.74194
484.581	1449.54856
485.066	1466.75151
485.55	1412.40427
486.034	1327.21839
486.518	1417.60948
487.002	1384.71101
487.486	1295.53103
487.969	1344.63006
488.453	1284.57241
488.936	1257.30699
489.42	1223.1639
489.903	1228.49721
490.386	1206.56012
490.869	1185.09098
491.352	1169.34223
491.835	1226.03806
492.318	1226.31333
492.8	1175.00681
493.283	1122.4172
493.765	1092.27444
494.247	1047.06371
494.73	1012.91554
495.212	1101.22295
495.694	1053.08911
496.175	1032.12183
496.657	1031.07855
497.139	1006.4988
497.62	997.05022
498.102	975.09716
498.583	1008.15851
499.064	973.91997
499.545	958.90931
500.026	995.93504
500.507	965.95305
500.988	931.03829
501.469	903.01001
501.949	912.99046
502.43	927.95291
502.91	866.61881
503.39	868.90797
503.87	894.88541
504.35	850.77377
504.83	849.67814
505.31	867.85836
505.79	880.8915
506.269	843.7774
506.749	810.67157
507.228	837.78016
507.707	845.68036
508.187	781.66602
508.666	822.83098
509.145	815.74085
509.623	786.66185
510.102	826.80349
510.581	792.70663
511.059	825.86753
511.538	797.85004
512.016	783.72287
512.494	822.80155
512.972	795.71127
513.45	829.75474
513.928	850.87776
514.406	835.845
514.884	842.95102
515.361	804.75839
515.839	833.72483
516.316	816.78539
516.793	772.77614
517.27	771.67944
517.747	806.87645
518.224	800.69663
518.701	872.7715
519.178	713.61981
519.654	798.7137
520.131	722.63596
520.607	751.69448
521.083	706.50102
521.56	721.59367
522.036	751.52509
522.512	707.58218
522.987	733.61549
523.463	687.53487
523.939	712.61003
524.414	710.51411
524.89	686.51341
525.365	731.54378
525.84	758.6842
526.315	738.64922
526.79	700.47405
527.265	711.53099
527.74	654.48838
528.215	698.54311
528.689	690.43642
529.164	638.30329
529.638	656.5809
530.112	620.39559
530.587	658.3363
531.061	663.50311
531.534	631.42124
532.008	655.48556
532.482	617.317
532.956	608.45798
533.429	613.40033
533.903	604.26107
534.376	580.22213
534.849	637.39672
535.322	641.42495
535.795	668.52088
536.268	628.41015
536.741	639.43576
537.213	638.38746
537.686	614.42257
538.158	537.1579
538.631	595.3559
539.103	686.45466
539.575	564.11854
540.047	582.22044
540.519	656.47429
540.991	624.43034
541.463	604.38501
541.934	700.49599
542.406	650.46318
542.877	642.38611
543.348	657.48769
543.82	627.4312
544.291	661.43662
544.762	609.36269
545.233	682.59331
545.703	675.40671
546.174	719.55286
546.645	684.53978
547.115	791.75646
547.585	755.59382
548.056	734.66451
548.526	885.8937
548.996	816.76889
549.466	893.92807
549.935	828.78578
550.405	927.80604
550.875	895.88958
551.344	930.99045
551.814	935.91898
552.283	972.82182
552.752	997.04381
553.221	1090.08407
553.69	1087.04589
554.159	1117.366
554.628	1079.08627
555.096	1139.48458
555.565	1144.17813
556.033	1059.14094
556.502	1045.19035
556.97	1024.9722
557.438	940.9669
557.906	951.98686
558.374	959.94443
558.842	974.03374
559.31	946.87927
559.777	914.96292
560.245	1038.12274
560.712	1071.15343
561.18	1092.11498
561.647	1075.07161
562.114	1056.08876
562.581	1128.35571
563.048	1165.26685
563.514	1182.44366
563.981	1195.27713
564.448	1281.36524
564.914	1398.60691
565.381	1338.45801
565.847	1440.68154
566.313	1513.75112
566.779	1491.57138
567.245	1602.86638
567.711	1654.00983
568.176	1643.78473
568.642	1731.25029
569.108	1782.23435
569.573	1908.22411
570.038	1936.84533
570.504	1967.00317
570.969	1983.53808
571.434	2068.11532
571.899	2197.46755
572.363	2158.227
572.828	2224.25571
573.293	2334.35569
573.757	2393.33819
574.222	2518.38112
574.686	2473.41082
575.15	2541.61515
575.614	2576.44449
576.078	2621.62029
576.542	2594.41429
577.006	2580.36655
577.469	2667.8259
577.933	2652.45576
578.396	2612.57271
578.86	2665.60375
579.323	2586.70919
579.786	2615.18144
580.249	2579.50708
580.712	2510.71423
581.175	2452.74371
581.637	2469.33933
582.1	2486.24306
582.563	2412.06669
583.025	2375.63285
583.487	2287.86011
583.95	2294.14936
584.412	2369.02294
584.874	2213.48151
585.336	2188.40188
585.797	2146.0152
586.259	2097.32207
586.721	1985.22339
587.182	2052.20874
587.643	2004.10764
588.105	1912.22407
588.566	1890.72657
589.027	1846.23961
589.488	1900.0574
589.949	1850.22501
590.41	1783.47313
590.87	1694.82373
591.331	1735.6897
591.791	1725.99483
592.252	1644.87191
592.712	1540.85157
593.172	1572.74968
593.632	1636.7189
594.092	1571.69597
594.552	1509.53154
595.011	1507.71137
595.471	1432.50354
595.931	1450.54176
596.39	1483.83559
596.849	1444.68111
597.308	1424.45455
597.768	1408.92278
598.227	1385.6465
598.685	1402.52487
599.144	1382.60097
599.603	1399.68354
600.062	1419.4066
600.52	1450.56813
600.978	1336.56058
601.437	1335.45065
601.895	1349.29702
602.353	1394.45326
602.811	1431.56493
603.269	1411.72853
603.727	1465.81045
604.184	1434.61018
604.642	1446.834
605.099	1395.5892
605.557	1465.8372
606.014	1505.57793
606.471	1496.97721
606.928	1572.65717
607.385	1682.16633
607.842	1692.84933
608.299	1750.03205
608.755	1675.05811
609.212	1610.7015
609.668	1694.8283
610.125	1747.12228
610.581	1786.06432
611.037	1680.85018
611.493	1625.90258
611.949	1662.13457
612.405	1556.37242
612.861	1649.91429
613.316	1640.98531
613.772	1686.91982
614.227	1667.99915
614.683	1700.66747
615.138	1590.8578
615.593	1648.90132
616.048	1619.77889
616.503	1627.02915
616.958	1692.22823
617.412	1608.90052
617.867	1576.6711
618.321	1658.54898
618.776	1606.70779
619.23	1522.76963
619.684	1539.68256
620.138	1527.73086
620.592	1461.82677
621.046	1430.6459
621.5	1428.8104
621.954	1420.53931
622.407	1422.50925
622.861	1360.6776
623.314	1324.44067
623.768	1319.51766
624.221	1282.08638
624.674	1319.47423
625.127	1254.41914
625.58	1280.38388
626.033	1224.2132
626.485	1157.35531
626.938	1185.36781
627.39	1177.32156
627.843	1109.19737
628.295	1132.20406
628.747	1111.25746
629.199	1101.14306
629.651	1072.11063
630.103	1008.03627
630.555	1012.85973
631.006	1014.06892
631.458	997.06947
631.909	1006.98748
632.361	958.97372
632.812	953.96122
633.263	877.6891
633.714	860.64323
634.165	923.0106
634.616	898.92194
635.067	804.60281
635.518	744.62983
635.968	816.47411
636.419	793.5717
636.869	766.65692
637.319	766.62235
637.769	730.52382
638.219	755.62025
638.669	740.62583
639.119	771.73114
639.569	685.5304
640.019	704.49676
640.468	680.41181
640.918	696.53549
641.367	648.36323
641.816	674.41862
642.265	638.38099
642.714	658.41645
643.163	674.46645
643.612	704.60741
644.061	691.39927
644.51	667.45765
644.958	646.33875
645.406	633.42982
645.855	652.50055
646.303	618.357
646.751	658.42494
647.199	698.47305
647.647	627.36207
648.095	636.39481
648.543	648.25491
648.99	624.39085
649.438	673.47635
649.885	674.55676
650.333	696.27357
650.78	715.62108
651.227	659.52601
651.674	631.34925
652.121	637.44937
652.568	650.49059
653.015	659.53985
653.461	611.37503
653.908	668.46015
654.354	639.41991
654.801	623.38489
655.247	646.34232
655.693	638.56696
656.139	623.41463
656.585	610.3725
657.031	583.3082
657.477	579.208
657.922	662.4391
658.368	626.45097
658.813	597.29737
659.259	619.40952
659.704	596.31083
660.149	664.46605
660.594	651.45557
661.039	638.36982
661.484	637.41488
661.929	671.46208
662.373	650.55876
662.818	674.57338
663.262	642.45399
663.707	688.61738
664.151	647.48222
664.595	614.3877
665.039	671.5581
665.483	636.52286
665.927	678.47953
666.371	668.45769
666.814	650.45005
667.258	671.51695
667.701	669.34045
668.145	708.62627
668.588	659.50128
669.031	709.57168
669.474	709.5795
669.917	707.4402
670.36	743.70635
670.803	708.55873
671.245	688.35665
671.688	733.62627
672.13	724.51062
672.573	720.65714
673.015	795.74564
673.457	775.54385
673.899	779.69903
674.341	730.62262
674.783	736.61906
675.225	765.70292
675.666	799.77717
676.108	827.61019
676.549	809.72206
676.991	856.71844
677.432	827.53017
677.873	807.67616
678.314	864.84994
678.755	853.86206
679.196	850.75027
679.637	847.83729
680.078	906.85399
680.518	895.83518
680.959	968.04699
681.399	956.09176
681.839	939.00068
682.28	962.0802
682.72	982.96895
683.16	934.02131
683.6	986.92432
684.039	959.7291
684.479	998.13433
684.919	1063.13146
685.358	1088.34292
685.798	1078.41602
686.237	1114.27123
686.676	1102.1182
687.115	1040.07809
687.554	1130.23543
687.993	1168.11907
688.432	1183.23685
688.871	1218.29149
689.309	1170.31256
689.748	1172.96495
690.186	1224.36563
690.625	1231.33688
691.063	1299.5234
691.501	1274.52317
691.939	1291.59059
692.377	1365.63065
692.815	1384.62118
693.253	1425.67368
693.69	1435.44431
694.128	1474.79077
694.565	1458.67263
695.003	1544.99685
695.44	1529.73584
695.877	1563.78988
696.314	1550.43397
696.751	1650.69927
697.188	1642.77042
697.625	1622.70423
698.061	1762.05141
698.498	1689.9533
698.934	1712.01367
699.371	1784.01269
699.807	1797.99453
700.243	1784.08498
700.679	1890.92733
701.115	1898.02535
701.551	1896.06274
701.987	1908.92678
702.422	1995.22205
702.858	1998.16028
703.294	2001.9682
703.729	2052.3583
704.164	2046.28824
704.599	2058.96662
705.035	2167.12392
705.47	2222.53617
705.904	2209.3136
706.339	2163.07268
706.774	2229.26807
707.209	2212.21452
707.643	2294.43691
708.078	2322.58775
708.512	2368.71856
708.946	2379.36748
709.38	2277.31627
709.814	2442.20633
710.248	2341.4568
710.682	2435.45548
711.116	2443.53705
711.549	2477.825
711.983	2471.31459
712.416	2525.41791
712.85	2526.7298
713.283	2527.47274
713.716	2571.70806
714.149	2589.42176
714.582	2525.23702
715.015	2541.63709
715.448	2569.75396
715.881	2528.97821
716.313	2599.42005
716.746	2626.48506
717.178	2554.51449
717.61	2650.7585
718.043	2656.69893
718.475	2593.52021
718.907	2687.79789
719.339	2704.31502
719.77	2632.50905
720.202	2586.77621
720.634	2636.69944
721.065	2636.49217
721.497	2611.6373
721.928	2537.66408
722.359	2588.66308
722.79	2653.64576
723.221	2585.71998
723.652	2649.82885
724.083	2604.29558
724.514	2554.30512
724.945	2569.43585
725.375	2580.47429
725.806	2511.62104
726.236	2574.81612
726.666	2529.43003
727.096	2555.64454
727.526	2581.83464
727.956	2558.2368
728.386	2556.60965
728.816	2516.76491
729.246	2528.64303
729.675	2515.67273
730.105	2487.50796
730.534	2464.34185
730.964	2503.68293
731.393	2468.54328
731.822	2447.77335
732.251	2498.73074
732.68	2476.30565
733.109	2399.53627
733.537	2431.49808
733.966	2520.73382
734.395	2413.25057
734.823	2428.0755
735.251	2429.51831
735.68	2349.60663
736.108	2348.63288
736.536	2279.25966
736.964	2387.29039
737.392	2367.61826
737.82	2333.40195
738.247	2358.36861
738.675	2347.34532
739.102	2260.59169
739.53	2246.66246
739.957	2303.74973
740.384	2322.44124
740.811	2214.5487
741.238	2310.47357
741.665	2227.16398
742.092	2269.33407
742.519	2205.48235
742.945	2171.32039
743.372	2234.52006
743.798	2182.64578
744.225	2231.30232
744.651	2141.48596
745.077	2225.51644
745.503	2113.32534
745.929	2082.24166
746.355	2123.40533
746.781	2098.39912
747.207	2089.25551
747.632	2136.4464
748.058	2066.41465
748.483	2108.10441
748.908	2046.36112
749.334	2059.35799
749.759	1971.05306
750.184	2044.23231
750.609	2056.35395
751.033	1968.08067
751.458	1926.85589
751.883	1963.28195
752.307	1921.09076
752.732	1869.32321
753.156	1959.33309
753.58	1883.07768
754.005	1922.32045
754.429	1934.08694
754.853	1856.20214
755.277	1768.90526
755.7	1849.21576
756.124	1781.15286
756.548	1789.01557
756.971	1768.00134
757.394	1811.34213
757.818	1762.24888
758.241	1748.19762
758.664	1753.21078
759.087	1693.72235
759.51	1678.02028
759.933	1740.01773
760.356	1721.17995
760.778	1741.12251
761.201	1626.90659
761.623	1620.84587
762.046	1650.83469
762.468	1621.77941
762.89	1560.85184
763.312	1591.92104
763.734	1568.80525
764.156	1562.88961
764.578	1619.73791
765	1560.85893
765.421	1552.99685
765.843	1492.98966
766.264	1465.69019
766.686	1449.76249
767.107	1440.66578
767.528	1477.89014
767.949	1403.78997
768.37	1356.56429
768.791	1404.63352
769.212	1334.67882
769.632	1318.438
770.053	1397.89931
770.473	1345.56742
770.894	1331.60152
771.314	1279.37908
771.734	1333.44818
772.154	1209.49787
772.575	1272.31543
772.994	1209.21307
773.414	1247.38447
773.834	1228.49383
774.254	1217.44971
774.673	1170.31471
775.093	1163.36433
775.512	1123.27775
775.931	1198.47457
776.351	1114.29271
776.77	1076.2065
777.189	1083.1368
777.607	1034.23414
778.026	1094.28865
778.445	979.11476
778.864	1037.24015
779.282	1043.11525
779.701	974.08384
780.119	1051.29929
780.537	937.0291
780.955	934.01873
781.373	951.01143
781.791	914.77015
782.209	904.77991
782.627	922.13693
783.045	873.76589
783.462	865.94778
783.88	831.90088
784.297	831.84989
784.715	801.83958
785.132	834.79489
785.549	740.67473
785.966	745.67957
786.383	723.6034
786.8	775.60177
787.217	714.52989
787.633	635.46052
788.05	699.47613
788.466	642.34289
788.883	626.46298
789.299	627.38227
789.715	660.47177
790.131	630.45045
790.547	596.35737
790.963	625.43292
791.379	572.34346
791.795	537.1366
792.21	516.1223
792.626	522.14979
793.041	541.25599
793.457	572.31784
793.872	462.02507
794.287	468.06463
794.702	510.16969
795.117	507.19131
795.532	465.11112
795.947	499.12222
796.362	449.01701
796.776	458.99621
797.191	490.13452
797.605	419.96525
798.02	425.98648
798.434	388.81885
798.848	387.92522
799.262	437.04371
799.676	344.80498
800.09	396.9516
800.504	352.82015
800.918	385.86889
801.331	359.89385
801.745	361.80243
802.158	350.84748
802.572	346.80268
802.985	321.75015
803.398	306.71215
803.811	295.726
804.224	294.70521
804.637	319.74693
805.05	268.60574
805.462	282.67618
805.875	223.57377
806.288	256.61571
806.7	242.60118
807.112	240.54357
807.525	259.62635
807.937	225.54987
808.349	204.50661
808.761	257.62222
809.173	240.57307
809.584	253.61023
809.996	191.4687
810.408	221.56724
810.819	282.6576
811.231	388.98474
811.642	436.02005
812.053	485.12048
812.464	444.01645
812.875	325.80687
813.286	297.74811
813.697	294.67018
814.108	203.49131
814.519	213.46935
814.929	204.51361
815.34	233.56773
815.75	134.34378
816.16	229.56131
816.571	140.3603
816.981	161.37878
817.391	204.49327
817.801	190.47717
818.211	112.26591
818.62	191.46418
819.03	168.40974
819.44	134.34797
819.849	152.37982
820.259	137.34685
820.668	125.31219
821.077	136.34328
821.486	168.40255
821.895	146.35728
822.304	118.31367
822.713	160.38206
823.122	149.37293
823.531	123.29736
823.939	176.43053
824.348	172.42044
824.756	176.44138
825.164	91.22966
825.573	160.40861
825.981	127.31557
826.389	139.35167
826.797	51.12871
827.205	138.32296
827.612	119.29742
828.02	117.27998
828.428	155.39633
828.835	112.29673
829.243	149.36035
829.65	97.24436
830.057	121.29781
830.464	108.26567
830.871	135.32453
831.278	91.22191
831.685	151.34096
832.092	142.35149
832.499	63.14133
832.905	104.26467
833.312	140.32315
833.718	132.33068
834.124	95.21959
834.531	94.2382
834.937	66.16885
835.343	99.24268
835.749	70.16389
836.155	79.20828
836.561	123.30675
836.966	121.29803
837.372	61.15767
837.777	107.27119
838.183	84.18886
838.588	41.10266
838.993	90.22115
839.399	84.20846
839.804	63.15655
840.209	107.27772
840.613	64.14643
841.018	38.09739
841.423	70.18134
841.828	107.27465
842.232	104.25809
842.637	70.16933
843.041	109.28359
843.445	36.09226
843.849	53.13314
844.253	78.18882
844.657	77.19786
845.061	97.22519
845.465	90.22098
845.869	74.1761
846.272	57.14246
846.676	50.12218
847.079	72.18768
847.483	86.2149
847.886	19.04649
848.289	50.13551
848.692	71.18212
849.095	110.26859
849.498	84.21195
849.901	37.08664
850.304	99.24088
850.707	44.11324
851.109	39.09923
851.512	114.28497
851.914	82.21324
852.316	43.10933
852.718	34.08999
853.121	110.27239
853.523	131.31312
853.925	43.11493
854.326	35.08884
854.728	80.20925
855.13	58.15336
855.531	76.18744
855.933	28.06783
856.334	30.07675
856.736	89.20482
857.137	46.10934
857.538	74.19045
857.939	92.23272
858.34	75.18507
858.741	43.11387
859.142	91.22207
859.542	67.17961
859.943	45.11373
860.343	40.10133
860.744	54.13362
861.144	36.08859
861.544	46.11453
861.945	79.20589
862.345	80.19745
862.745	103.26152
863.145	49.11873
863.544	75.19144
863.944	58.1384
864.344	52.13098
864.743	40.10017
865.143	78.2027
865.542	60.14284
865.941	67.16981
866.34	72.17463
866.74	54.14578
867.139	70.17264
867.537	69.1773
867.936	70.17213
868.335	61.15767
868.734	103.26872
869.132	81.19324
869.531	43.10459
869.929	65.1537
870.327	69.16952
870.726	89.22115
871.124	92.21944
871.522	48.12448
871.92	77.19335
872.318	72.17842
872.715	37.09204
873.113	64.15987
873.511	93.23713
873.908	95.24589
874.306	85.21628
874.703	55.1391
875.1	41.1062
875.497	70.17264
875.894	58.14661
876.291	60.14912
876.688	86.22678
877.085	52.12617
877.482	35.08906
877.878	42.10381
878.275	90.23219
878.671	76.17263
879.068	50.12291
879.464	63.15466
879.86	27.0654
880.256	48.12025
880.652	75.19326
881.048	109.26986
881.444	50.11981
881.84	48.12371
882.236	45.11462
882.631	77.19377
883.027	41.10032
883.422	47.12174
883.817	128.3293
884.213	70.18272
884.608	50.12607
885.003	103.25332
885.398	69.17755
885.793	55.13985
886.188	45.11563
886.582	22.05666
886.977	93.22382
887.371	39.09892
887.766	45.11486
888.16	75.18901
888.554	45.11198
888.949	82.20661
889.343	60.14776
889.737	64.17475
890.131	44.1113
890.525	40.1038
890.918	32.08132
891.312	8.01935
891.706	32.08384
892.099	36.092
892.492	83.18389
892.886	36.08941
893.279	89.22997
893.672	13.03325
894.065	63.15922
894.458	93.23814
894.851	114.28001
895.244	30.0778
895.637	84.20602
896.029	29.07227
896.422	37.09184
896.814	26.06579
897.206	45.10957
897.599	72.17829
897.991	26.06396
898.383	99.23998
898.775	4.00932
899.167	55.13247
899.559	72.18343
899.951	30.07227
900.342	34.08705
900.734	71.18161
901.125	75.19814
901.517	72.18038
901.908	73.17635
902.299	108.27095
902.69	98.23536
903.082	38.09375
903.473	56.13821
903.863	38.09858
904.254	81.19331
904.645	74.18612
905.036	62.15381
905.426	78.17997
905.817	73.18252
906.207	78.19067
906.597	-6.01437
906.987	52.13657
907.378	29.07408
907.768	44.11801
908.158	57.14128
908.547	84.21993
908.937	39.10056
909.327	90.22245
909.717	59.15028
910.106	30.07355
910.495	81.20435
910.885	55.14202
911.274	39.09916
911.663	54.13733
912.052	66.16337
912.441	20.05149
912.83	93.21821
913.219	38.10034
913.608	80.19737
913.997	70.17902
914.385	71.17094
914.774	43.1065
915.162	73.17835
915.55	52.12759
915.939	31.0798
916.327	32.08023
916.715	27.07006
917.103	56.13877
917.491	67.16606
917.878	2.00496
918.266	41.10642
918.654	85.2207
919.041	32.08538
919.429	37.08976
919.816	87.22066
920.203	59.14607
920.591	46.11532
920.978	21.05167
921.365	47.12496
921.752	47.115
922.139	64.14378
922.525	86.21194
922.912	75.18419
923.299	73.18443
923.685	23.06125
924.072	23.05361
924.458	30.07581
924.844	49.12388
925.231	48.11458
925.617	57.14784
926.003	47.12144
926.389	49.12573
926.774	34.08766
927.16	41.10366
927.546	81.21089
927.931	50.12675
928.317	18.04224
928.702	72.17121
929.088	72.17456
929.473	48.12353
929.858	12.03005
930.243	43.1058
930.628	66.16529
931.013	37.09378
931.398	49.11416
931.783	35.09262
932.167	68.1706
932.552	26.06568
932.937	36.09058
933.321	49.12547
933.705	64.16408
934.09	56.14151
934.474	37.08939
934.858	22.05803
935.242	-11.02651
935.626	54.1412
936.009	-1.00267
936.393	63.16166
936.777	38.09902
937.16	64.16706
937.544	44.10495
937.927	78.20158
938.311	53.13059
938.694	21.05598
939.077	39.09542
939.46	5.01223
939.843	98.21128
940.226	29.07571
940.609	147.34584
940.991	13.03384
941.374	41.10247
941.757	20.04998
942.139	102.23675
942.522	43.10258
942.904	37.09087
943.286	54.13772
943.668	55.14447
944.05	58.14541
944.432	78.19703
944.814	22.05468
945.196	76.1904
945.578	99.24349
945.959	29.06985
946.341	55.13372
946.722	66.157
947.104	36.08817
947.485	43.10243
947.866	61.15844
948.247	4.01023
948.628	18.04439
949.009	53.13846
949.39	37.09331
949.771	76.17996
950.152	57.14324
950.532	11.02811
950.913	42.10324
951.293	50.137
951.674	121.30066
952.054	65.16556
952.434	34.08567
952.814	55.13337
953.194	64.16757
953.574	26.06448
953.954	59.14286
954.334	67.16963
954.714	47.11747
955.093	53.13122
955.473	18.04578
955.853	31.0811
956.232	19.05218
956.611	46.11203
956.99	55.14143
957.37	59.15266
957.749	80.19454
958.128	86.22071
958.506	68.18052
958.885	33.08524
959.264	107.26917
959.643	48.11115
960.021	65.16439
960.4	80.18583
960.778	47.11743
961.156	74.18899
961.535	53.12557
961.913	31.07441
962.291	82.21594
962.669	14.03597
963.047	26.06712
963.424	38.09821
963.802	86.21498
964.18	78.19822
964.557	70.16415
964.935	52.12555
965.312	25.06589
965.69	39.09829
966.067	113.27792
966.444	26.06481
966.821	79.20406
967.198	36.08859
967.575	52.12773
967.952	67.15984
968.329	58.14373
968.705	30.06579
969.082	67.17486
969.458	59.14645
969.835	19.04714
970.211	75.196
970.587	60.15091
970.963	49.1267
971.339	36.09551
971.715	72.18135
972.091	31.07787
972.467	46.11657
972.843	16.04065
973.219	27.06523
973.594	59.15791
973.97	55.13237
974.345	49.12011
974.721	20.04876
975.096	67.1643
975.471	56.13531
975.846	47.11457
976.221	39.10189
976.596	49.1206
976.971	54.13499
977.346	-6.01428
977.72	71.18333
978.095	65.17022
978.469	50.12086
978.844	40.10097
979.218	19.04658
979.593	32.07796
979.967	50.12368
980.341	20.04714
980.715	90.22936
981.089	27.06804
981.463	81.19257
981.837	40.10028
982.21	55.12955
982.584	58.14278
982.957	40.10237
983.331	68.16362
983.704	-1.00248
984.078	62.15583
984.451	26.06502
984.824	42.1048
985.197	0
985.57	24.06127
985.943	36.08941
986.316	54.13411
986.688	47.11466
987.061	97.23203
987.434	22.05829
987.806	51.12604
988.179	50.12136
988.551	77.19765
988.923	48.12003
989.295	-1.0025
989.667	21.05205
990.039	73.1843
990.411	55.1292
990.783	66.15416
991.155	55.13736
991.527	65.16004
991.898	26.06645
992.27	13.03277
992.641	47.11887
993.012	73.17409
993.384	1.00243
993.755	40.1043
994.126	4.00984
994.497	46.11541
994.868	73.17162
995.239	57.13952
995.61	30.07737
995.98	17.04273
996.351	8.02029
996.722	28.06776
997.092	62.15032
997.462	71.17055
997.833	85.20278
998.203	28.06875
998.573	33.0834
998.943	73.17529
999.313	56.13755
999.683	66.16307
1000.053	73.17182
1000.423	14.0345
1000.792	76.19994
1001.162	25.06246
1001.531	78.1947
1001.901	75.19151
1002.27	57.13034
1002.639	95.24547
1003.009	27.06525
1003.378	39.10032
1003.747	90.21746
1004.116	16.03943
1004.485	57.13739
1004.853	55.14093
1005.222	24.0611
1005.591	13.03155
1005.959	42.09864
1006.328	14.03261
1006.696	54.13406
1007.064	5.0128
1007.433	25.06339
1007.801	48.11829
1008.169	-10.02557
1008.537	86.19423
1008.905	42.10091
1009.273	61.15086
1009.64	57.1404
1010.008	50.12209
1010.375	11.02647
1010.743	105.2427
1011.11	42.10221
1011.478	23.05778
1011.845	66.15712
1012.212	42.0983
1012.579	36.08934
1012.946	69.16594
1013.313	52.12474
1013.68	21.04833
1014.047	33.08116
1014.414	33.08029
1014.78	15.03783
1015.147	28.06814
1015.513	48.11803
1015.88	1.00258
1016.246	-13.03232
1016.612	29.06717
1016.978	62.15403
1017.344	55.13885
1017.71	16.03918
1018.076	71.1688
1018.442	20.05178
1018.808	8.02048
1019.174	36.09233
1019.539	15.03464
1019.905	23.05561
1020.27	70.17612
1020.636	56.13618
1021.001	66.15947
1021.366	65.15904
1021.731	34.08753
1022.096	49.12595
1022.461	66.15851
1022.826	19.04613
1023.191	28.07423
1023.556	36.08682
1023.92	-11.0275
1024.285	54.13372
1024.649	65.16163
1025.014	35.0883
1025.378	67.17072
1025.742	43.10899
1026.107	82.18701
1026.471	-14.03315
1026.835	64.16189
1027.199	52.13037
1027.562	52.12318
1027.926	37.09171
1028.29	62.16012
1028.654	44.10358
1029.017	34.08416
1029.381	59.14366
1029.744	14.03611
1030.107	55.13166
1030.471	-2.00486
1030.834	29.06727
1031.197	17.04127
1031.56	35.08388
1031.923	36.09419
1032.286	78.18462
1032.648	84.20465
1033.011	3.00705
1033.374	29.06881
1033.736	27.07231
1034.099	91.22546
1034.461	-6.01543
1034.823	10.02535
1035.185	50.12747
1035.548	64.15889
1035.91	21.05148
1036.272	18.0416
1036.634	25.0616
1036.995	62.14947
1037.357	50.1239
1037.719	13.0319
1038.08	73.17442
1038.442	15.03635
1038.803	45.10941
1039.165	60.15479
1039.526	15.03701
1039.887	62.15111
1040.248	54.13484
1040.609	39.09652
1040.97	41.10255
1041.331	39.10007
1041.692	117.28104
1042.053	96.22185
1042.413	92.21675
1042.774	32.07892
1043.134	100.24044
1043.495	52.13135
1043.855	24.05934
1044.215	61.15411
1044.576	88.21607
1044.936	48.11203
1045.296	88.22062
1045.656	41.10136
1046.016	37.09013
1046.375	16.03936
1046.735	17.0399
1047.095	42.10014
1047.454	46.09973
1047.814	39.09546
1048.173	7.01666
1048.533	-6.01415
1048.892	6.01496
1049.251	63.15985
1049.61	21.05268
1049.969	119.28628
1050.328	91.20027
1050.687	32.0791
1051.046	18.04425
1051.405	57.14493
1051.763	19.0451
1052.122	-19.04869
1052.48	-7.01736
1052.839	25.06021
1053.197	27.06537
1053.555	-29.06623
1053.914	13.03204
1054.272	18.04376
1054.63	31.07801
1054.988	38.09258
1055.345	44.09743
1055.703	15.03674
1056.061	57.14764
1056.419	0
1056.776	26.06337
1057.134	20.04761
1057.491	15.03807
1057.848	20.05012
1058.206	45.1081
1058.563	50.11256
1058.92	42.09733
1059.277	62.15387
1059.634	22.05268
1059.991	29.07088
1060.348	46.10719
1060.704	62.15094
1061.061	63.1473
1061.418	14.03455
1061.774	41.10299
1062.131	34.09161
1062.487	40.09567
1062.843	22.05539
1063.199	61.15461
1063.555	32.07668
1063.911	1.00255
1064.267	38.08084
1064.623	21.05224
1064.979	79.18803
1065.335	48.11541
1065.691	18.04382
1066.046	-5.01106
1066.402	70.16402
1066.757	68.17195
1067.112	-6.01494
1067.468	86.21155
1067.823	78.19053
1068.178	25.06112
1068.533	37.0914
1068.888	43.10384
1069.243	18.04521
1069.598	44.10888
1069.952	41.09564
1070.307	41.10465
1070.662	2.00485
1071.016	-1.00232
1071.371	43.09951
1071.725	75.1805
1072.079	37.08982
1072.434	63.15603
1072.788	49.11922
1073.142	81.20164
1073.496	25.06049
1073.85	26.06097
1074.203	62.15488
1074.557	37.09965
1074.911	37.08864
1075.265	2.00477
1075.618	32.0786
1075.971	63.15168
1076.325	53.13666
1076.678	40.09486
1077.031	74.17149
1077.385	93.20983
1077.738	19.04432
1078.091	51.11948
1078.444	36.08528
1078.796	-5.01248
1079.149	37.09284
1079.502	83.20217
1079.855	66.15755
1080.207	57.1419
1080.56	12.03149
1080.912	5.01236
1081.264	54.132
1081.617	51.12784
1081.969	43.11119
1082.321	43.10595
1082.673	6.01429
1083.025	25.0609
1083.377	76.16723
1083.728	-8.01902
1084.08	24.06075
1084.432	60.14732
1084.783	41.0974
1085.135	56.14226
1085.486	52.12351
1085.838	43.1079
1086.189	27.06636
1086.54	65.15638
1086.891	52.13406
1087.242	7.01725
1087.593	44.10828
1087.944	31.07114
1088.295	45.10426
1088.646	42.10431
1088.996	25.06135
1089.347	25.06251
1089.698	19.04623
1090.048	-16.04178
1090.398	-21.04979
1090.749	30.07333
1091.099	80.20732
1091.449	20.05066
1091.799	63.15979
1092.149	49.12419
1092.499	55.13557
1092.849	43.11149
1093.199	20.05041
1093.548	50.12295
1093.898	52.13196
1094.248	62.15973
1094.597	54.14196
1094.947	14.03772
1095.296	-3.00754
1095.645	27.07099
1095.994	16.03898
1096.343	48.12203
1096.692	100.27058
1097.041	-23.06301
1097.39	85.21704
1097.739	21.05531
1098.088	95.25467
1098.437	13.03488
1098.785	23.06202
1099.134	31.08275
1099.482	30.08337
1099.83	5.01323
1100.179	79.20969
1100.527	45.12
1100.875	23.06164
1101.223	25.067
1101.571	31.08652
1101.919	92.2448
1102.267	21.05955
1102.615	10.03224
1102.962	9.02896
1103.31	13.04185
1103.658	21.06767
