Data from N2 R0 105C sample2_Subt2__2__11-49-13-668.txt Node

Date: Tue Aug 19 11:49:13 PDT 2025
User: uwsun
Spectrometer: HDX01956
Trigger mode: 0
Integration Time (sec): 5.000000E-1
Scans to average: 1
Nonlinearity correction enabled: true
Boxcar width: 0
Storing dark spectrum: false
XAxis mode: Wavelengths
Number of Pixels in Spectrum: 2068
>>>>>Begin Spectral Data<<<<<
194.03	587.5727
194.578	568.72476
195.127	588.75448
195.676	586.75616
196.225	616.54399
196.773	755.92584
197.321	996.44984
197.87	1296.80273
198.418	1330.81552
198.966	1393.99523
199.513	1200.53258
200.061	1224.64147
200.609	1362.95655
201.156	1273.28179
201.704	1252.67214
202.251	1325.94569
202.798	1340.88684
203.345	1328.70078
203.892	1359.80427
204.438	1381.67292
204.985	1416.74146
205.532	1345.93255
206.078	1378.7572
206.624	1378.77232
207.17	1359.5619
207.716	1391.74573
208.262	1341.08808
208.808	1415.86688
209.354	1424.80382
209.899	1404.84265
210.445	1386.83405
210.99	1401.7591
211.535	1422.69854
212.08	1395.64908
212.625	1393.84773
213.17	1449.94509
213.715	1391.56016
214.259	1374.58963
214.804	1290.61752
215.348	1357.49365
215.892	1348.6268
216.436	1331.51263
216.98	1306.38232
217.524	1356.60397
218.068	1406.90708
218.612	1321.74273
219.155	1304.51821
219.698	1277.52034
220.242	1250.59924
220.785	1194.3327
221.328	1212.5235
221.871	1205.54589
222.414	1213.53503
222.956	1259.5609
223.499	1195.25084
224.041	1221.36933
224.583	1221.13472
225.126	1234.2415
225.668	1193.42978
226.21	1205.5503
226.751	1231.24898
227.293	1274.41931
227.835	1180.45466
228.376	1278.40704
228.918	1239.61775
229.459	1261.6204
230	1186.36383
230.541	1274.46131
231.082	1155.33427
231.622	1255.36992
232.163	1220.47757
232.704	1192.47528
233.244	1190.4853
233.784	1190.44494
234.324	1211.25998
234.864	1174.23755
235.404	1196.37611
235.944	1177.33668
236.484	1200.48311
237.023	1246.46191
237.563	1253.38794
238.102	1224.37236
238.641	1286.69297
239.18	1249.44095
239.719	1245.60081
240.258	1279.35569
240.797	1336.61926
241.335	1307.62513
241.874	1304.04353
242.412	1297.58958
242.95	1262.5063
243.488	1300.43908
244.026	1236.35149
244.564	1258.11097
245.102	1288.36114
245.64	1249.46957
246.177	1317.40907
246.715	1301.56541
247.252	1201.30621
247.789	1312.96283
248.326	1318.62011
248.863	1358.41683
249.4	1305.41925
249.936	1269.10822
250.473	1313.517
251.009	1342.52179
251.546	1300.33216
252.082	1344.36731
252.618	1306.35369
253.154	1355.66836
253.69	1328.39956
254.226	1286.5187
254.761	1335.47016
255.297	1244.22563
255.832	1275.465
256.367	1368.61581
256.903	1261.23947
257.438	1382.59465
257.972	1351.44313
258.507	1333.5091
259.042	1379.41482
259.576	1381.40829
260.111	1323.48054
260.645	1362.31866
261.179	1318.49947
261.713	1386.48962
262.247	1454.6613
262.781	1375.30411
263.315	1366.73316
263.849	1401.8449
264.382	1378.52169
264.915	1463.74519
265.449	1418.84252
265.982	1468.64023
266.515	1351.65305
267.048	1421.41002
267.58	1382.41192
268.113	1348.35107
268.646	1397.79335
269.178	1366.46102
269.71	1422.464
270.243	1458.60226
270.775	1427.89382
271.307	1369.64965
271.838	1409.62299
272.37	1428.80257
272.902	1417.55264
273.433	1421.4113
273.965	1468.82493
274.496	1396.75498
275.027	1431.83396
275.558	1457.80172
276.089	1507.94483
276.62	1446.93304
277.15	1430.76731
277.681	1454.48544
278.211	1414.68849
278.741	1459.5331
279.272	1482.63721
279.802	1442.84854
280.332	1473.73178
280.861	1481.80609
281.391	1448.5817
281.921	1551.88966
282.45	1543.00702
282.98	1517.11659
283.509	1513.60817
284.038	1498.65765
284.567	1532.71966
285.096	1514.8681
285.625	1548.72432
286.153	1521.74082
286.682	1496.66768
287.21	1500.8374
287.739	1501.79483
288.267	1605.97019
288.795	1566.14535
289.323	1597.89437
289.851	1663.94671
290.378	1598.72454
290.906	1551.92638
291.433	1598.02942
291.961	1633.77356
292.488	1652.09314
293.015	1647.95105
293.542	1654.2081
294.069	1634.0222
294.596	1644.05421
295.122	1654.9689
295.649	1613.64912
296.175	1701.11816
296.702	1654.00383
297.228	1746.10233
297.754	1781.95002
298.28	1779.9323
298.806	1736.07346
299.332	1797.87529
299.857	1747.86494
300.383	1704.21718
300.908	1725.11707
301.433	1733.08144
301.958	1736.89746
302.483	1790.27971
303.008	1848.28479
303.533	1790.39637
304.058	1820.08876
304.582	1855.14287
305.107	1822.51667
305.631	1775.889
306.155	1851.08451
306.679	1833.02791
307.203	1894.10349
307.727	1877.1468
308.251	1850.28336
308.775	1880.19322
309.298	1933.30925
309.822	1981.506
310.345	2031.32259
310.868	2013.28919
311.391	2001.38914
311.914	2032.52498
312.437	2042.13137
312.96	1974.2009
313.482	2046.27005
314.005	2101.58475
314.527	2089.79046
315.049	2065.51716
315.571	2168.17948
316.093	2200.60197
316.615	2157.46452
317.137	2210.03838
317.659	2233.55496
318.18	2177.3912
318.702	2220.27498
319.223	2312.93889
319.744	2221.18621
320.265	2289.55688
320.786	2356.71178
321.307	2369.71287
321.828	2387.31925
322.348	2382.495
322.869	2503.60265
323.389	2230.76778
323.909	2464.35243
324.43	2576.57905
324.95	2523.39133
325.47	2509.68112
325.989	2570.53511
326.509	2681.27516
327.029	2664.31472
327.548	2743.34607
328.067	2704.74525
328.587	2804.85614
329.106	2798.30437
329.625	2830.13246
330.144	2765.5158
330.662	2888.42746
331.181	2911.54462
331.7	2965.59514
332.218	3087.20488
332.736	2977.57132
333.255	3042.5189
333.773	3055.58141
334.291	3181.8533
334.808	3215.3575
335.326	3319.36339
335.844	3359.53894
336.361	3368.02101
336.879	3451.59071
337.396	3316.68546
337.913	3474.38052
338.43	3513.27409
338.947	3573.50962
339.464	3597.99389
339.981	3617.54007
340.497	3629.694
341.014	3686.70518
341.53	3667.13039
342.046	3740.64749
342.562	3873.7724
343.078	3963.36589
343.594	3942.42635
344.11	3892.37299
344.626	3972.78371
345.141	3944.0951
345.657	4090.96723
346.172	4051.43283
346.687	4039.18938
347.202	4178.94848
347.717	4318.26473
348.232	4353.52509
348.747	4297.04543
349.261	4307.77396
349.776	4344.12892
350.29	4543.41566
350.805	4535.45719
351.319	4556.00374
351.833	4545.7317
352.347	4564.9627
352.861	4643.8504
353.374	4599.7523
353.888	4679.09567
354.401	4841.6885
354.915	4825.57225
355.428	4871.14793
355.941	5012.70019
356.454	5000.39613
356.967	4867.76123
357.48	4974.52926
357.993	5045.97092
358.505	5061.88097
359.018	5290.77312
359.53	5368.70182
360.042	5362.11461
360.554	5325.64274
361.066	5324.76028
361.578	5342.98477
362.09	5294.52622
362.602	5340.08033
363.113	5523.35162
363.625	5570.09366
364.136	5638.9041
364.647	5687.33924
365.158	5805.1049
365.669	5839.27217
366.18	5867.1518
366.691	5813.83096
367.201	5773.33278
367.712	5874.00888
368.222	5940.97514
368.733	6079.75558
369.243	6246.71425
369.753	6390.95718
370.263	6515.06463
370.773	6404.13731
371.282	6639.93413
371.792	6694.90587
372.301	7024.02292
372.811	7038.37048
373.32	7100.43706
373.829	7376.94183
374.338	7620.75602
374.847	7717.97409
375.356	7945.20239
375.865	8309.24858
376.373	8567.71994
376.882	8855.33795
377.39	8948.39476
377.898	9234.94366
378.407	9802.29393
378.915	10097.28166
379.423	10491.42359
379.93	10806.82056
380.438	11450.32267
380.946	11853.59963
381.453	12376.56664
381.96	12814.56192
382.468	14023.8095
382.975	14760.37577
383.482	15093.05901
383.989	15072.67539
384.495	15814.18576
385.002	16681.74122
385.509	17672.64866
386.015	18770.47593
386.521	19841.46361
387.028	20388.99186
387.534	21034.33703
388.04	21923.55698
388.546	22311.68343
389.051	23504.97673
389.557	25470.64088
390.063	27294.49512
390.568	27676.69238
391.073	28865.91133
391.578	30042.47071
392.084	30553.67434
392.589	32036.80645
393.093	34321.16678
393.598	37586.22036
394.103	41030.47438
394.607	44853.16286
395.112	47899.98633
395.616	50606.77095
396.12	54669.92698
396.624	60151.35714
397.128	61549.30841
397.632	61847.63078
398.136	61948.4768
398.639	61850.40973
399.143	61679.31033
399.646	61269.15804
400.15	60904.11498
400.653	60560.14334
401.156	60136.25446
401.659	59550.50961
402.162	58431.12733
402.664	54480.21957
403.167	49329.08451
403.67	22278.45323
404.172	2696.20453
404.674	0
405.176	0
405.678	0
406.18	0
406.682	0
407.184	0
407.686	25783.58453
408.187	43316.52985
408.688	51225.60928
409.19	54389.01922
409.691	56215.4214
410.192	57270.57019
410.693	57845.40442
411.194	58219.2365
411.694	58633.01717
412.195	59215.68848
412.696	59364.60701
413.196	59341.61941
413.696	59632.46864
414.196	59367.6054
414.696	59763.40624
415.196	59913.34014
415.696	60584.13941
416.196	61381.18813
416.695	61808.38326
417.195	62018.52935
417.694	61837.40139
418.194	62001.51623
418.693	62262.74355
419.192	62388.8736
419.691	62414.90212
420.19	62457.95056
420.688	62499.99943
421.187	62033.76851
421.685	58847.74748
422.184	53082.89078
422.682	45595.40457
423.18	38924.37074
423.678	34607.49278
424.176	32334.94767
424.674	30240.44321
425.172	28897.40313
425.669	27144.19204
426.167	25104.13913
426.664	22850.06526
427.161	21151.3164
427.659	19693.11228
428.156	18597.25721
428.652	17523.53647
429.149	16842.16967
429.646	16164.02872
430.143	15132.50419
430.639	14355.15345
431.135	13502.1319
431.632	12876.46966
432.128	11867.68885
432.624	11343.65334
433.12	11057.96354
433.616	10654.375
434.111	10277.72029
434.607	10059.98852
435.103	9875.66131
435.598	9509.58957
436.093	9061.54187
436.588	8526.56405
437.083	8238.22319
437.578	7870.97634
438.073	7527.16807
438.568	7235.9278
439.062	7050.34564
439.557	6864.73975
440.051	6636.53393
440.546	6386.63612
441.04	6324.01129
441.534	6159.44368
442.028	6062.0226
442.522	5878.14692
443.015	5837.63157
443.509	5758.35486
444.002	5655.42093
444.496	5464.87707
444.989	5389.48305
445.482	5484.61373
445.975	5454.15867
446.468	5328.81036
446.961	5213.93797
447.454	5094.18596
447.947	5180.55366
448.439	4875.67524
448.931	4886.42265
449.424	4784.05323
449.916	4938.82453
450.408	4847.40095
450.9	4717.97919
451.392	4565.25231
451.884	4539.64698
452.375	4424.35536
452.867	4395.62377
453.358	4361.75449
453.849	4293.37881
454.341	4292.72698
454.832	4272.48489
455.323	4181.27858
455.814	4130.94556
456.304	4110.92922
456.795	4041.96408
457.285	3907.7558
457.776	3984.87684
458.266	3864.2464
458.756	3712.29198
459.247	3755.34205
459.737	3705.40315
460.226	3626.05985
460.716	3586.4539
461.206	3556.45056
461.695	3422.63911
462.185	3421.28037
462.674	3433.29093
463.163	3364.96542
463.653	3370.83623
464.142	3252.54191
464.63	3283.63845
465.119	3155.28304
465.608	3169.34722
466.096	3141.9987
466.585	3072.29486
467.073	2976.45125
467.561	2953.48935
468.05	2979.33932
468.538	2893.61762
469.026	2797.48598
469.513	2886.28234
470.001	2814.19913
470.489	2809.48535
470.976	2791.33146
471.463	2660.6478
471.951	2577.62147
472.438	2489.3226
472.925	2442.2816
473.412	2349.42794
473.899	2321.1245
474.385	2281.41599
474.872	2432.3681
475.359	2310.47761
475.845	2290.78718
476.331	2111.75569
476.817	2080.26798
477.303	2216.17596
477.789	2109.26855
478.275	2036.33178
478.761	2030.24592
479.247	2024.986
479.732	2011.37567
480.218	1893.43273
480.703	1937.29183
481.188	1848.67307
481.673	1839.90384
482.158	1865.73182
482.643	1761.1586
483.128	1787.85911
483.612	1721.86214
484.097	1679.93571
484.581	1669.77194
485.066	1604.91076
485.55	1675.65707
486.034	1548.43636
486.518	1618.83355
487.002	1629.00921
487.486	1504.79701
487.969	1507.83763
488.453	1471.82199
488.936	1492.58056
489.42	1386.35094
489.903	1462.81736
490.386	1392.69125
490.869	1364.29732
491.352	1367.61577
491.835	1359.17878
492.318	1405.53733
492.8	1327.17631
493.283	1280.66518
493.765	1261.52915
494.247	1231.32335
494.73	1257.23808
495.212	1239.42364
495.694	1191.28805
496.175	1168.32896
496.657	1228.36549
497.139	1163.65257
497.62	1146.27871
498.102	1105.31118
498.583	1132.35992
499.064	1167.19796
499.545	1136.17016
500.026	1129.12516
500.507	1101.15823
500.988	1111.34106
501.469	1049.26513
501.949	1070.25606
502.43	1066.17617
502.91	1046.86958
503.39	1001.13753
503.87	1032.1095
504.35	1007.0273
504.83	1015.92916
505.31	992.06773
505.79	1070.20499
506.269	1060.12787
506.749	1010.99168
507.228	1018.07897
507.707	1001.91909
508.187	969.98346
508.666	1026.18768
509.145	976.01101
509.623	1018.04247
510.102	1016.12809
510.581	1040.1211
511.059	1055.2752
511.538	988.20524
512.016	1085.23544
512.494	1105.2767
512.972	1106.22138
513.45	1110.20496
513.928	1186.43562
514.406	1119.32509
514.884	1162.52041
515.361	1199.40353
515.839	1232.32468
516.316	1211.42873
516.793	1205.53155
517.27	1212.3935
517.747	1213.5961
518.224	1289.44374
518.701	1242.31176
519.178	1160.396
519.654	1231.3978
520.131	1158.39081
520.607	1174.41957
521.083	1176.24569
521.56	1200.38737
522.036	1165.144
522.512	1134.31415
522.987	1111.2544
523.463	1099.24616
523.939	1152.37101
524.414	1048.07098
524.89	1020.09244
525.365	1056.0713
525.84	987.08767
526.315	1039.1768
526.79	968.91946
527.265	989.00191
527.74	948.02815
528.215	952.99377
528.689	937.84454
529.164	901.73207
529.638	917.09902
530.112	885.88475
530.587	852.65462
531.061	905.95149
531.534	875.8731
532.008	869.88582
532.482	828.68737
532.956	841.92759
533.429	855.85857
533.903	867.70577
534.376	831.65555
534.849	801.69617
535.322	864.83245
535.795	815.8008
536.268	786.70816
536.741	801.74041
537.213	854.77268
537.686	793.77255
538.158	810.64542
538.631	788.72628
539.103	830.70523
539.575	793.48979
540.047	803.60266
540.519	853.84011
540.991	852.86419
541.463	831.81937
541.934	817.70222
542.406	874.87779
542.877	868.78417
543.348	855.85857
543.82	862.87498
544.291	901.85911
544.762	888.87357
545.233	899.00933
545.703	966.88435
546.174	953.95595
546.645	967.04976
547.115	974.07937
547.585	1021.02925
548.056	1058.24044
548.526	1130.28938
548.996	1172.34771
549.466	1129.31377
549.935	1235.43165
550.405	1239.23646
550.875	1230.40656
551.344	1220.44737
551.814	1301.45108
552.283	1325.27038
552.752	1342.5402
553.221	1546.6381
553.69	1477.52031
554.159	1539.96398
554.628	1549.6664
555.096	1478.9953
555.565	1533.6498
556.033	1535.77175
556.502	1485.81504
556.97	1472.53509
557.438	1455.70094
557.906	1457.70599
558.374	1519.69164
558.842	1474.74238
559.31	1530.6328
559.777	1579.91041
560.245	1653.91991
560.712	1695.93015
561.18	1766.88609
561.647	1680.78053
562.114	1785.94549
562.581	1824.23361
563.048	1909.07803
563.514	1919.32815
563.981	1988.08597
564.448	2059.09334
564.914	2157.29858
565.381	2199.20768
565.847	2285.40611
566.313	2298.38876
566.779	2346.18049
567.245	2503.5032
567.711	2517.63867
568.176	2588.34668
568.642	2640.91461
569.108	2770.85461
569.573	2882.69347
570.038	2958.13517
570.504	2951.32704
570.969	3121.07739
571.434	3180.38167
571.899	3204.75115
572.363	3248.45402
572.828	3366.42636
573.293	3389.48343
573.757	3397.42603
574.222	3543.39095
574.686	3529.45168
575.15	3558.67379
575.614	3502.45798
576.078	3574.64244
576.542	3603.38871
577.006	3621.32855
577.469	3686.85383
577.933	3631.41401
578.396	3502.60267
578.86	3601.59986
579.323	3659.74897
579.786	3522.11895
580.249	3590.51366
580.712	3385.84223
581.175	3341.91671
581.637	3330.40347
582.1	3280.28672
582.563	3210.10969
583.025	3156.83234
583.487	3110.91798
583.95	3049.28135
584.412	3066.09165
584.874	2886.73764
585.336	2869.65543
585.797	2831.2001
586.259	2815.62069
586.721	2725.57964
587.182	2567.45939
587.643	2643.39537
588.105	2538.60089
588.566	2427.96242
589.027	2488.67646
589.488	2363.33598
589.949	2397.61064
590.41	2293.69901
590.87	2196.18304
591.331	2170.96163
591.791	2234.38232
592.252	2125.26374
592.712	2063.34072
593.172	2084.17665
593.632	2119.07727
594.092	2044.08392
594.552	2029.94444
595.011	1940.11739
595.471	1852.89407
595.931	1855.91949
596.39	1905.28141
596.849	1865.11143
597.308	1826.82363
597.768	1806.42193
598.227	1757.0625
598.685	1791.91531
599.144	1732.98752
599.603	1797.12464
600.062	1781.7365
600.52	1707.82791
600.978	1731.00904
601.437	1763.89934
601.895	1756.67492
602.353	1789.83514
602.811	1857.97738
603.269	1788.15323
603.727	1850.22835
604.184	1828.00564
604.642	1836.27491
605.099	1838.04697
605.557	1877.28681
606.014	1866.89961
606.471	1944.47588
606.928	1999.00512
607.385	2125.58253
607.842	2090.15646
608.299	2206.38371
608.755	2106.44411
609.212	2106.07922
609.668	2139.1576
610.125	2199.4941
610.581	2244.40369
611.037	2130.19553
611.493	2086.3016
611.949	2112.5613
612.405	2093.71346
612.861	2116.30485
613.316	2082.3821
613.772	2109.26109
614.227	2107.38115
614.683	2118.94402
615.138	2094.29775
615.593	2101.28011
616.048	2059.13696
616.503	2031.41688
616.958	2077.60655
617.412	2036.28644
617.867	2015.02782
618.321	2021.79282
618.776	2011.03414
619.23	1980.20016
619.684	1943.0401
620.138	1964.13197
620.592	1935.33181
621.046	1893.11115
621.5	1911.3451
621.954	1911.00123
622.407	1883.93896
622.861	1794.18008
623.314	1824.9557
623.768	1748.99955
624.221	1746.48774
624.674	1686.88479
625.127	1715.95257
625.58	1664.81233
626.033	1555.58116
626.485	1558.88786
626.938	1559.85071
627.39	1547.79211
627.843	1504.71074
628.295	1441.60393
628.747	1442.71291
629.199	1321.43934
629.651	1362.50225
630.103	1287.43641
630.555	1260.17279
631.006	1232.39128
631.458	1303.52283
631.909	1238.31336
632.361	1216.36016
632.812	1220.36011
633.263	1165.08962
633.714	1139.03032
634.165	1171.41821
634.616	1099.24919
635.067	1118.06697
635.518	1052.15431
635.968	1042.77566
636.419	1039.94239
636.869	968.00251
637.319	999.00749
637.769	958.89961
638.219	962.97311
638.669	935.97063
639.119	965.07917
639.569	920.95635
640.019	951.91418
640.468	867.72576
640.918	895.89287
641.367	836.68673
641.816	872.75622
642.265	870.79069
642.714	875.79655
643.163	857.79273
643.612	876.93119
644.061	840.64368
644.51	885.84564
644.958	852.68526
645.406	799.74414
645.855	846.87203
646.303	868.80656
646.751	844.7558
647.199	868.76416
647.647	826.71908
648.095	863.80291
648.543	831.53988
648.99	799.71695
649.438	847.79052
649.885	787.77717
650.333	850.49585
650.78	818.81606
651.227	836.8683
651.674	782.61806
652.121	787.73674
652.568	830.83509
653.015	823.86149
653.461	791.71503
653.908	839.76819
654.354	825.76298
654.801	800.71357
655.247	835.66276
655.693	805.91625
656.139	811.77184
656.585	748.63585
657.031	756.63666
657.477	774.54578
657.922	796.68154
658.368	745.6864
658.813	726.53488
659.259	740.64419
659.704	725.55181
660.149	748.62278
660.594	768.67608
661.039	756.58234
661.484	741.61065
661.929	678.47516
662.373	752.76855
662.818	707.6398
663.262	681.53021
663.707	702.64582
664.151	722.62935
664.595	645.44866
665.039	718.65187
665.483	683.62086
665.927	656.43812
666.371	641.40668
666.814	651.45198
667.258	685.54423
667.701	733.44722
668.145	709.62824
668.588	664.51116
669.031	669.49524
669.474	667.49872
669.917	694.41785
670.36	714.64919
670.803	666.47904
671.245	709.39125
671.688	636.43922
672.13	652.38188
672.573	635.48605
673.015	638.44668
673.457	651.33379
673.899	660.47541
674.341	650.46855
674.783	663.4806
675.225	652.48502
675.666	687.56322
676.108	655.32688
676.549	709.54169
676.991	733.51285
677.432	732.38613
677.873	691.47196
678.314	735.6172
678.755	707.59061
679.196	670.4349
679.637	731.62451
680.078	651.40826
680.518	703.50338
680.959	700.56747
681.399	691.59699
681.839	692.55399
682.28	657.51356
682.72	731.54984
683.16	659.51033
683.6	665.39567
684.039	701.34641
684.479	728.64823
684.919	708.53593
685.358	711.65493
685.798	758.81093
686.237	735.62733
686.676	654.39216
687.115	734.57075
687.554	739.59541
687.993	758.51799
688.432	737.54491
688.871	774.61434
689.309	725.58185
689.748	704.32977
690.186	758.62774
690.625	749.58804
691.063	776.69427
691.501	770.7038
691.939	746.68422
692.377	753.66306
692.815	788.70816
693.253	810.74842
693.69	850.67424
694.128	851.85457
694.565	754.62539
695.003	786.79902
695.44	810.71561
695.877	806.71753
696.314	830.57281
696.751	831.66781
697.188	879.78776
697.625	862.73447
698.061	883.88292
698.498	846.80438
698.934	875.87471
699.371	874.83758
699.807	910.8823
700.243	904.92564
700.679	911.81176
701.115	919.87088
701.551	875.81752
701.987	914.80974
702.422	879.86306
702.858	909.884
703.294	896.77158
703.729	902.94543
704.164	931.96476
704.599	906.7705
705.035	978.9267
705.47	971.09033
705.904	965.98415
706.339	907.79461
706.774	959.94885
707.209	916.86013
707.643	985.04995
708.078	1007.14759
708.512	950.09516
708.946	955.95478
709.38	937.92395
709.814	986.92341
710.248	896.90117
710.682	1018.08178
711.116	964.02789
711.549	944.10438
711.983	963.93038
712.416	952.9482
712.85	954.07514
713.283	979.01225
713.716	943.04037
714.149	944.92921
714.582	1010.96193
715.015	947.02383
715.448	954.07776
715.881	962.78181
716.313	950.9371
716.746	957.97122
717.178	916.9234
717.61	912.99632
718.043	925.99632
718.475	862.829
718.907	955.08038
719.339	916.83396
719.77	920.9191
720.202	946.06986
720.634	988.10476
721.065	891.8639
721.497	903.94053
721.928	928.00234
722.359	927.99468
722.79	955.02604
723.221	843.86655
723.652	922.03841
724.083	907.81968
724.514	884.79101
724.945	853.78593
725.375	899.87651
725.806	833.82375
726.236	847.9088
726.666	874.82389
727.096	887.92245
727.526	854.92731
727.956	876.75217
728.386	877.8919
728.816	885.96929
729.246	850.85981
729.675	891.94585
730.105	857.82903
730.534	860.77564
730.964	840.85952
731.393	845.82362
731.822	862.9422
732.251	890.96858
732.68	854.75064
733.109	892.91484
733.537	818.76495
733.966	881.94989
734.395	829.69667
734.823	835.63965
735.251	889.89736
735.68	840.85875
736.108	867.91811
736.536	853.76156
736.964	845.74191
737.392	848.87412
737.82	882.85684
738.247	868.81536
738.675	889.84334
739.102	844.87999
739.53	854.92965
739.957	818.88049
740.384	839.79986
740.811	832.85249
741.238	843.82163
741.665	807.65681
742.092	846.78101
742.519	786.74428
742.945	862.82503
743.372	824.82182
743.798	830.89517
744.225	837.76089
744.651	784.75782
745.077	804.78571
745.503	769.6765
745.929	808.72179
746.355	880.90525
746.781	787.7418
747.207	801.71314
747.632	831.83082
748.058	822.82193
748.483	800.64648
748.908	806.77683
749.334	832.81888
749.759	808.67489
750.184	756.63527
750.609	787.73602
751.033	846.75217
751.458	851.67111
751.883	792.74523
752.307	777.65247
752.732	782.77841
753.156	806.79385
753.58	829.75092
754.005	745.6864
754.429	805.69575
754.853	735.64353
755.277	739.55933
755.7	808.78866
756.124	725.63313
756.548	774.66212
756.971	741.60451
757.394	778.80345
757.818	696.62286
758.241	751.71649
758.664	764.74516
759.087	731.49387
759.51	743.65529
759.933	702.55003
760.356	691.60268
760.778	722.63133
761.201	726.59638
761.623	705.53299
762.046	714.5312
762.468	718.52656
762.89	740.63059
763.312	712.5937
763.734	656.44717
764.156	673.51901
764.578	724.5193
765	725.60584
765.421	696.61714
765.843	666.58686
766.264	693.51771
766.686	607.39162
767.107	665.46735
767.528	668.5551
767.949	657.53158
768.37	658.45521
768.791	662.46711
769.212	610.42778
769.632	638.37923
770.053	612.49034
770.473	657.46176
770.894	546.26387
771.314	623.34648
771.734	617.33577
772.154	531.2623
772.575	601.27893
772.994	582.2328
773.414	609.3431
773.834	585.36093
774.254	589.3557
774.673	605.35429
775.093	554.28139
775.512	548.25646
775.931	536.27005
776.351	530.23308
776.77	521.20139
777.189	483.08618
777.607	512.22896
778.026	514.21224
778.445	436.05023
778.864	556.32408
779.282	486.11011
779.701	480.13587
780.119	515.25322
780.537	518.22168
780.955	446.06382
781.373	401.95135
781.791	472.00946
782.209	439.95955
782.627	482.21391
783.045	426.9506
783.462	421.03254
783.88	398.99037
784.297	421.01537
784.715	426.05041
785.132	413.96999
785.549	380.92389
785.966	397.95961
786.383	386.91701
786.8	380.85568
787.217	354.81831
787.633	354.86102
788.05	383.86579
788.466	257.58408
788.883	318.78907
789.299	364.84777
789.715	316.75566
790.131	340.82915
790.547	310.74782
790.963	342.82967
791.379	294.729
791.795	248.55894
792.21	280.64059
792.626	234.5474
793.041	316.76747
793.457	295.71823
793.872	282.65035
794.287	270.64001
794.702	249.60195
795.117	273.67187
795.532	244.6088
795.947	245.58065
796.362	269.63284
796.776	244.55487
797.191	256.62131
797.605	268.636
798.02	216.52208
798.434	210.46051
798.848	260.63669
799.262	234.58173
799.676	214.51354
800.09	257.6339
800.504	250.59421
800.918	205.47966
801.331	194.49751
801.745	166.38392
802.158	199.49554
802.572	154.37083
802.985	199.47618
803.398	165.39468
803.811	149.37656
804.224	197.48127
804.637	163.39332
805.05	132.30662
805.462	155.38065
805.875	125.32711
806.288	144.3537
806.7	198.49583
807.112	104.24206
807.525	129.31961
807.937	108.26968
808.349	133.33457
808.761	160.39445
809.173	92.22589
809.584	117.28945
809.996	131.32504
810.408	151.39232
810.819	261.61115
811.231	306.78795
811.642	335.80094
812.053	440.0254
812.464	404.93423
812.875	259.65078
813.286	211.53968
813.697	205.47571
814.108	114.28053
814.519	139.31104
814.929	133.33912
815.34	179.44055
815.75	148.37876
816.16	108.27066
816.571	107.27695
816.981	107.25439
817.391	118.28995
817.801	102.26022
818.211	104.2473
818.62	162.39585
819.03	104.25668
819.44	119.30982
819.849	76.19252
820.259	81.20712
820.668	95.23855
821.077	88.22403
821.486	103.24986
821.895	93.22983
822.304	92.24561
822.713	182.43276
823.122	74.18772
823.531	107.25946
823.939	135.33276
824.348	117.28892
824.756	96.24422
825.164	88.22221
825.573	118.30358
825.981	106.2644
826.389	125.31704
826.797	42.10617
827.205	114.26805
827.612	140.34857
828.02	91.21884
828.428	113.29107
828.835	100.26547
829.243	123.29893
829.65	87.21956
830.057	126.30983
830.464	102.25119
830.871	121.29165
831.278	81.19789
831.685	106.24155
832.092	86.21506
832.499	93.20734
832.905	89.22709
833.312	76.17766
833.718	110.27666
834.124	80.18547
834.531	58.14792
834.937	61.1562
835.343	110.26909
835.749	24.0567
836.155	44.11669
836.561	66.1663
836.966	60.14945
837.372	80.2061
837.777	97.24628
838.183	58.1311
838.588	-6.01515
838.993	76.18723
839.399	70.17416
839.804	28.07002
840.209	89.23172
840.613	68.15546
841.018	39.09993
841.423	57.148
841.828	81.20886
842.232	100.24835
842.637	107.25702
843.041	85.22206
843.445	79.20094
843.849	45.1132
844.253	98.23635
844.657	64.16483
845.061	109.25245
845.465	35.08681
845.869	95.22516
846.272	34.08533
846.676	85.20635
847.079	77.20054
847.483	57.14318
847.886	67.16247
848.289	54.14626
848.692	45.11595
849.095	85.20851
849.498	68.17207
849.901	63.14678
850.304	91.22174
850.707	37.09534
851.109	54.13704
851.512	66.16642
851.914	65.16952
852.316	42.10681
852.718	33.08736
853.121	79.19673
853.523	125.29912
853.925	56.14936
854.326	60.15161
854.728	113.2939
855.13	69.1821
855.531	99.24313
855.933	37.08949
856.334	82.20787
856.736	66.15258
857.137	48.11405
857.538	92.23603
857.939	89.22525
858.34	81.19966
858.741	72.18973
859.142	79.19322
859.542	52.13974
859.943	79.19845
860.343	23.05844
860.744	54.13362
861.144	10.02473
861.544	41.10218
861.945	78.20332
862.345	104.25555
862.745	96.24405
863.145	93.22348
863.544	69.17631
863.944	63.15018
864.344	53.13347
864.743	90.22335
865.143	77.20013
865.542	60.14284
865.941	55.1397
866.34	52.12659
866.74	80.21506
867.139	49.12131
867.537	90.23041
867.936	29.07185
868.335	66.17045
868.734	79.20695
869.132	66.15791
869.531	68.16462
869.929	77.18165
870.327	75.18405
870.726	43.10774
871.124	78.18655
871.522	56.14503
871.92	59.14863
872.318	60.14901
872.715	31.0772
873.113	96.23842
873.511	120.30452
873.908	57.14851
874.306	72.18362
874.703	67.16909
875.1	63.16256
875.497	87.21389
875.894	53.13409
876.291	36.08986
876.688	61.16153
877.085	51.12376
877.482	5.01279
877.878	64.15755
878.275	63.16329
878.671	74.16815
879.068	57.13993
879.464	33.08146
879.86	30.07262
880.256	58.14504
880.652	59.15245
881.048	18.04531
881.444	48.11506
881.84	16.04146
882.236	88.22244
882.631	91.22843
883.027	76.18474
883.422	35.09084
883.817	79.20498
884.213	91.23668
884.608	25.06332
885.003	34.08469
885.398	69.17755
885.793	62.15745
886.188	91.23195
886.582	50.12814
886.977	83.20013
887.371	-12.03071
887.766	75.19043
888.16	35.08884
888.554	55.13662
888.949	27.0687
889.343	45.11113
889.737	54.14768
890.131	9.02291
890.525	55.14236
890.918	3.00766
891.312	33.07945
891.706	-18.04756
892.099	27.06911
892.492	90.19911
892.886	21.0523
893.279	83.21469
893.672	-30.07732
894.065	70.17669
894.458	53.13666
894.851	61.1513
895.244	23.05972
895.637	69.1697
896.029	35.08713
896.422	44.10908
896.814	-9.02292
897.206	27.06596
897.599	41.1021
897.991	32.07863
898.383	85.20658
898.775	47.10859
899.167	67.161
899.559	22.05654
899.951	56.13424
900.342	8.02057
900.734	53.136
901.125	61.16153
901.517	42.10579
901.908	47.1141
902.299	91.229
902.69	81.19516
903.082	55.13527
903.473	19.04721
903.863	31.08052
904.254	43.10337
904.645	103.25771
905.036	40.09963
905.426	55.12748
905.817	96.23902
906.207	72.1762
906.597	-17.04079
906.987	61.15996
907.378	11.02819
907.768	36.09668
908.158	44.10931
908.547	40.10551
908.937	34.08775
909.327	71.1761
909.717	62.15784
910.106	-9.02223
910.495	95.23907
910.885	55.14202
911.274	56.14196
911.663	28.07153
912.052	60.14868
912.441	37.09498
912.83	112.26181
913.219	53.13959
913.608	34.08459
913.997	17.04388
914.385	49.11846
914.774	58.14326
915.162	75.18317
915.55	36.08859
915.939	35.09003
916.327	15.03772
916.715	29.07522
917.103	56.13877
917.491	71.17585
917.878	1.00248
918.266	16.04171
918.654	99.25642
919.041	37.09863
919.429	39.09457
919.816	29.07431
920.203	55.13627
920.591	15.03782
920.978	17.04186
921.365	57.15129
921.752	64.1561
922.139	86.19233
922.525	91.22406
922.912	25.06196
923.299	58.14693
923.685	55.14569
924.072	47.10903
924.458	39.09839
924.844	24.06095
925.231	50.11931
925.617	37.0963
926.003	44.11375
926.389	49.12573
926.774	44.11324
927.16	69.17358
927.546	21.05524
927.931	52.13177
928.317	32.07489
928.702	54.12885
929.088	52.12655
929.473	22.05688
929.858	31.07737
930.243	48.11799
930.628	41.10314
931.013	62.15644
931.398	105.24193
931.783	30.07946
932.167	50.12585
932.552	36.09077
932.937	60.15031
933.321	64.16345
933.705	64.16408
934.09	69.17395
934.474	47.11333
934.858	43.11303
935.242	57.13562
935.626	49.12823
936.009	-63.17022
936.393	27.06972
936.777	51.1326
937.16	27.07092
937.544	26.06223
937.927	55.14271
938.311	38.09389
938.694	64.16939
939.077	54.13176
939.46	15.03662
939.843	119.2554
940.226	46.11974
940.609	91.21643
940.991	4.01043
941.374	25.06266
941.757	34.08475
942.139	88.20482
942.522	38.09074
942.904	53.12977
943.286	20.05131
943.668	50.13145
944.05	55.13796
944.432	76.19204
944.814	4.00997
945.196	67.16812
945.578	39.09698
945.959	61.14603
946.341	11.02696
946.722	40.09563
947.104	40.09789
947.485	48.11423
947.866	67.17384
948.247	-19.04879
948.628	19.04685
949.009	56.14623
949.39	45.11332
949.771	58.13781
950.152	71.17797
950.532	29.07387
950.913	46.11299
951.293	34.0934
951.674	150.37075
952.054	86.21824
952.434	28.07063
952.814	30.07309
953.194	59.15461
953.574	39.09649
953.954	65.15721
954.334	43.10933
954.714	13.03269
955.093	48.11895
955.473	27.06855
955.853	33.0863
956.232	18.04945
956.611	45.10961
956.99	58.14906
957.37	58.1501
957.749	77.18735
958.128	54.13936
958.506	101.26664
958.885	62.15934
959.264	68.17226
959.643	40.09277
960.021	77.19433
960.4	24.05637
960.778	54.13475
961.156	71.18142
961.535	30.07139
961.913	44.10535
962.291	73.19253
962.669	38.09722
963.047	10.02589
963.424	41.1059
963.802	45.11332
964.18	103.26059
964.557	58.13633
964.935	66.15893
965.312	16.04223
965.69	18.04553
966.067	70.17353
966.444	36.08957
966.821	66.17086
967.198	76.18564
967.575	-2.00496
967.952	53.12678
968.329	45.11178
968.705	22.04833
969.082	76.19804
969.458	43.10704
969.835	11.02733
970.211	66.17275
970.587	-6.01527
970.963	59.15229
971.339	15.03993
971.715	54.13645
972.091	71.17707
972.467	46.11657
972.843	36.09113
973.219	58.1393
973.594	62.16585
973.97	69.16562
974.345	31.07624
974.721	19.04633
975.096	44.10836
975.471	80.19242
975.846	42.10248
976.221	63.16391
976.596	64.15709
976.971	53.13251
977.346	4.0095
977.72	48.12444
978.095	40.10519
978.469	13.03164
978.844	22.05571
979.218	3.00738
979.593	64.15499
979.967	26.0646
980.341	45.10554
980.715	31.07982
981.089	18.04544
981.463	80.19023
981.837	27.06785
982.21	41.09684
982.584	86.21062
982.957	11.0283
983.331	82.19679
983.704	-4.00991
984.078	33.08337
984.451	34.0849
984.824	21.0526
985.197	16.03961
985.57	32.08158
985.943	16.03988
986.316	89.21962
986.688	41.10013
987.061	77.18489
987.434	57.15013
987.806	83.20391
988.179	3.00735
988.551	80.20524
988.923	16.04024
989.295	12.02998
989.667	17.04217
990.039	35.08896
990.411	34.0802
990.783	80.18635
991.155	54.13489
991.527	67.16491
991.898	34.08677
992.27	3.00758
992.641	69.17383
993.012	103.24422
993.384	26.06297
993.755	48.12499
994.126	37.09043
994.497	43.10794
994.868	80.18781
995.239	50.12254
995.61	87.22215
995.98	51.12742
996.351	23.05819
996.722	92.21994
997.092	68.16468
997.462	49.1182
997.833	61.1462
998.203	7.01725
998.573	25.06327
998.943	77.18475
999.313	64.15697
999.683	106.25998
1000.053	76.17877
1000.423	31.07616
1000.792	71.18694
1001.162	5.01254
1001.531	37.09304
1001.901	95.24172
1002.27	55.12581
1002.639	45.11728
1003.009	19.04599
1003.378	41.10543
1003.747	75.18173
1004.116	37.09083
1004.485	15.03644
1004.853	36.09255
1005.222	2.00511
1005.591	73.17515
1005.959	62.14505
1006.328	7.01633
1006.696	66.16349
1007.064	34.08659
1007.433	42.10617
1007.801	30.07418
1008.169	12.03057
1008.537	83.18757
1008.905	69.16493
1009.273	38.09437
1009.64	87.2131
1010.008	67.16308
1010.375	-20.04842
1010.743	95.22002
1011.11	30.07317
1011.478	25.06278
1011.845	58.13829
1012.212	43.10062
1012.579	24.05969
1012.946	83.19907
1013.313	38.0914
1013.68	63.14377
1014.047	83.20225
1014.414	78.18818
1014.78	6.01516
1015.147	37.08989
1015.513	37.09117
1015.88	29.07436
1016.246	13.03216
1016.612	25.05795
1016.978	47.11709
1017.344	45.11381
1017.71	44.1072
1018.076	74.17583
1018.442	23.05951
1018.808	29.07397
1019.174	21.054
1019.539	76.1734
1019.905	32.07723
1020.27	36.09113
1020.636	16.0392
1021.001	57.13796
1021.366	28.06898
1021.731	0
1022.096	-7.01817
1022.461	38.09175
1022.826	45.10871
1023.191	11.02925
1023.556	98.23357
1023.92	16.03981
1024.285	-5.01251
1024.649	43.10736
1025.014	65.1631
1025.378	35.08968
1025.742	88.22125
1026.107	66.15101
1026.471	21.04939
1026.835	41.10414
1027.199	114.2826
1027.562	57.13489
1027.926	71.17488
1028.29	63.16267
1028.654	82.19161
1029.017	51.12585
1029.381	48.11712
1029.744	36.09249
1030.107	68.16238
1030.471	1.00243
1030.834	20.04648
1031.197	70.16824
1031.56	36.08626
1031.923	32.08379
1032.286	65.15424
1032.648	123.29748
1033.011	46.10719
1033.374	32.07589
1033.736	39.10424
1034.099	95.2352
1034.461	-7.01801
1034.823	12.03041
1035.185	68.17281
1035.548	62.15398
1035.91	24.0588
1036.272	37.08518
1036.634	17.04195
1036.995	35.08481
1037.357	30.07461
1037.719	10.02455
1038.08	44.10571
1038.442	36.08689
1038.803	52.12626
1039.165	70.18028
1039.526	37.09093
1039.887	32.07843
1040.248	-9.02273
1040.609	13.03233
1040.97	1.00252
1041.331	21.05406
1041.692	82.19828
1042.053	51.11891
1042.413	84.19821
1042.774	36.08872
1043.134	101.2428
1043.495	46.11632
1043.855	37.09127
1044.215	50.12657
1044.576	59.14564
1044.936	47.10972
1045.296	61.15367
1045.656	43.10627
1046.016	48.11668
1046.375	-3.00741
1046.735	22.05159
1047.095	47.11196
1047.454	93.1996
1047.814	16.03933
1048.173	-11.02627
1048.533	44.10273
1048.892	8.01994
1049.251	46.11707
1049.61	-7.01765
1049.969	58.14115
1050.328	67.1482
1050.687	25.06187
1051.046	-9.02223
1051.405	72.18258
1051.763	4.00952
1052.122	26.0661
1052.48	-5.01239
1052.839	46.11035
1053.197	43.1038
1053.555	-51.11699
1053.914	4.00988
1054.272	39.09443
1054.63	51.12788
1054.988	22.05376
1055.345	20.04451
1055.703	17.04163
1056.061	36.09358
1056.419	-5.0132
1056.776	32.0779
1057.134	70.16504
1057.491	40.10108
1057.848	13.03262
1058.206	28.06748
1058.563	54.12146
1058.92	30.06969
1059.277	52.12928
1059.634	40.09545
1059.991	55.13377
1060.348	13.03049
1060.704	21.05152
1061.061	77.17954
1061.418	-7.01734
1061.774	24.06047
1062.131	9.02435
1062.487	59.14059
1062.843	61.15252
1063.199	54.13704
1063.555	41.09808
1063.911	30.07608
1064.267	73.1541
1064.623	2.00499
1064.979	73.17395
1065.335	2.00485
1065.691	19.04625
1066.046	-30.0667
1066.402	46.10829
1066.757	45.11426
1067.112	1.00249
1067.468	123.3005
1067.823	49.12034
1068.178	-7.01722
1068.533	-13.03241
1068.888	52.12536
1069.243	-14.03536
1069.598	40.09905
1069.952	47.1095
1070.307	36.09197
1070.662	15.03629
1071.016	-1.00232
1071.371	31.07191
1071.725	40.09691
1072.079	0
1072.434	37.09207
1072.788	88.21255
1073.142	56.14004
1073.496	31.07492
1073.85	10.02352
1074.203	102.25295
1074.557	19.05132
1074.911	34.0815
1075.265	19.04515
1075.618	41.10054
1075.971	73.17542
1076.325	61.15707
1076.678	49.116
1077.031	15.03517
1077.385	68.15421
1077.738	65.15024
1078.091	-11.02608
1078.444	47.1111
1078.796	17.04226
1079.149	-5.01264
1079.502	64.15645
1079.855	17.04096
1080.207	81.20076
1080.56	-1.00263
1080.912	51.12497
1081.264	42.1029
1081.617	20.05041
1081.969	67.17252
1082.321	60.14738
1082.673	43.10168
1083.025	59.1428
1083.377	-164.37899
1083.728	68.15933
1084.08	11.02791
1084.432	42.10347
1084.783	55.13031
1085.135	23.05877
1085.486	50.1188
1085.838	34.08545
1086.189	-8.01979
1086.54	32.07747
1086.891	49.12639
1087.242	-23.05701
1087.593	73.17868
1087.944	10.02305
1088.295	104.23814
1088.646	29.07219
1088.996	-16.03956
1089.347	20.05005
1089.698	19.04623
1090.048	11.02859
1090.398	12.02827
1090.749	56.13623
1091.099	79.20476
1091.449	33.0834
1091.799	19.04857
1092.149	50.1267
1092.499	42.10377
1092.849	76.19593
1093.199	-5.01266
1093.548	61.1497
1093.898	49.12441
1094.248	26.0674
1094.597	48.12632
1094.947	21.05652
1095.296	23.05755
1095.645	52.13615
1095.994	24.05838
1096.343	25.06381
1096.692	100.27058
1097.041	-13.03556
1097.39	79.20193
1097.739	4.01057
1098.088	52.14039
1098.437	3.00806
1098.785	17.04589
1099.134	41.10926
1099.482	11.03066
1099.83	17.04488
1100.179	58.15449
1100.527	-8.02152
1100.875	40.1069
1101.223	20.05364
1101.571	32.08929
1101.919	50.13397
1102.267	12.03407
1102.615	14.04512
1102.962	12.0386
1103.31	14.04507
1103.658	19.06124
