Data from N2 R0 105C sample3_Subt2__1__11-55-36-760.txt Node

Date: Tue Aug 19 11:55:36 PDT 2025
User: uwsun
Spectrometer: HDX01956
Trigger mode: 0
Integration Time (sec): 1.000000E-1
Scans to average: 1
Nonlinearity correction enabled: true
Boxcar width: 0
Storing dark spectrum: false
XAxis mode: Wavelengths
Number of Pixels in Spectrum: 2068
>>>>>Begin Spectral Data<<<<<
194.03	11.03226
194.578	6.01957
195.127	1.00322
195.676	13.04199
196.225	-429.26872
196.773	-322.97216
197.321	-272.82061
197.87	-405.18152
198.418	-424.2287
198.966	-351.02604
199.513	-505.45032
200.061	-434.25663
200.609	-358.04967
201.156	-752.03557
201.704	-427.23077
202.251	-324.95876
202.798	-380.10862
203.345	-475.35002
203.892	-449.28935
204.438	-540.51255
204.985	-535.50563
205.532	-340.99788
206.078	-474.34253
206.624	-477.35652
207.17	-596.64997
207.716	-509.43937
208.262	-905.33078
208.808	-455.30275
209.354	-516.46555
209.899	-461.31839
210.445	-457.31119
210.99	-508.43632
211.535	-574.60585
212.08	-567.57871
212.625	-456.30928
213.17	-444.27815
213.715	-618.69913
214.259	-586.6233
214.804	-520.47736
215.348	-664.82729
215.892	-563.58158
216.436	-618.71088
216.98	-660.79223
217.524	-577.61102
218.068	-440.27217
218.612	-468.34575
219.155	-592.64961
219.698	-563.57772
220.242	-484.38198
220.785	-605.67359
221.328	-502.43045
221.871	-477.36622
222.414	-505.44349
222.956	-512.44851
223.499	-696.90687
224.041	-626.7368
224.583	-793.10953
225.126	-716.93423
225.668	-539.51736
226.21	-469.34328
226.751	-745.02535
227.293	-652.80554
227.835	-520.4778
228.376	-648.78496
228.918	-463.32999
229.459	-493.41125
230	-591.65113
230.541	-612.70323
231.082	-598.68017
231.622	-642.76344
232.163	-533.50228
232.704	-499.41447
233.244	-503.4318
233.784	-524.47981
234.324	-684.86392
234.864	-667.82717
235.404	-597.66841
235.944	-589.63846
236.484	-523.48611
237.023	-559.55931
237.563	-653.80691
238.102	-620.71802
238.641	-464.33423
239.18	-595.65771
239.719	-479.36992
240.258	-675.84087
240.797	-554.55747
241.335	-522.47727
241.874	-906.32813
242.412	-536.51188
242.95	-553.55016
243.488	-641.76541
244.026	-644.77283
244.564	-829.17542
245.102	-674.83492
245.64	-584.63683
246.177	-683.86802
246.715	-553.55206
247.252	-641.76485
247.789	-976.47228
248.326	-532.50014
248.863	-708.92312
249.4	-652.78638
249.936	-845.21367
250.473	-589.63491
251.009	-609.6815
251.546	-754.05146
252.082	-728.96662
252.618	-706.91646
253.154	-533.50228
253.69	-692.8839
254.226	-579.62058
254.761	-634.73817
255.297	-764.06008
255.832	-615.71343
256.367	-581.6217
256.903	-740.98672
257.438	-596.65152
257.972	-666.81315
258.507	-621.71731
259.042	-717.93724
259.576	-729.969
260.111	-627.72848
260.645	-778.07745
261.179	-609.68518
261.713	-673.83659
262.247	-592.63123
262.781	-769.03487
263.315	-487.3796
263.849	-460.31728
264.382	-654.79809
264.915	-577.6135
265.449	-456.29731
265.982	-630.73103
266.515	-538.51385
267.048	-759.035
267.58	-725.95821
268.113	-751.02207
268.646	-487.38539
269.178	-676.84331
269.71	-710.91679
270.243	-654.79242
270.775	-456.30889
271.307	-555.55529
271.838	-598.65551
272.37	-500.41454
272.902	-676.85796
273.433	-753.0176
273.965	-535.51157
274.496	-527.49524
275.027	-499.42041
275.558	-529.4901
276.089	-465.32038
276.62	-432.23919
277.15	-533.50228
277.681	-709.90759
278.211	-575.60889
278.741	-716.94857
279.272	-641.75653
279.802	-495.40817
280.332	-603.68311
280.861	-539.51182
281.391	-658.80053
281.921	-556.56357
282.45	-448.27376
282.98	-389.12989
283.509	-697.89902
284.038	-648.77879
284.567	-625.71919
285.096	-508.42504
285.625	-631.73241
286.153	-626.73518
286.682	-617.69023
287.21	-522.463
287.739	-558.55724
288.267	-532.4965
288.795	-409.18259
289.323	-569.58722
289.851	-554.53606
290.378	-655.78464
290.906	-517.45671
291.433	-480.35873
291.961	-652.78129
292.488	-470.32879
293.015	-551.53367
293.542	-406.16244
294.069	-504.41769
294.596	-506.4298
295.122	-542.50978
295.649	-703.89207
296.175	-497.40287
296.702	-513.43313
297.228	-524.46726
297.754	-608.6632
298.28	-618.68787
298.806	-525.46488
299.332	-655.7738
299.857	-664.81233
300.383	-441.25739
300.908	-495.3896
301.433	-510.42277
301.958	-614.67695
302.483	-451.28058
303.008	-465.31047
303.533	-401.15436
304.058	-533.47067
304.582	-558.55244
305.107	-370.0763
305.631	-625.6953
306.155	-574.5846
306.679	-594.63211
307.203	-584.60969
307.727	-571.5874
308.251	-465.30968
308.775	-519.44277
309.298	-491.37626
309.822	-428.22009
310.345	-508.41151
310.868	-517.43364
311.391	-471.32135
311.914	-436.23923
312.437	-615.67888
312.96	-548.51137
313.482	-528.45573
314.005	-440.25211
314.527	-310.89766
315.049	-451.27751
315.571	-607.647
316.093	-434.22318
316.615	-480.33942
317.137	-642.704
317.659	-460.2879
318.18	-508.40406
318.702	-565.5399
319.223	-701.83427
319.744	-583.57016
320.265	-447.24281
320.786	-402.12942
321.307	-426.20024
321.828	-556.50494
322.348	-489.34579
322.869	-473.30907
323.389	-1192.7094
323.909	-563.5266
324.43	-494.36191
324.95	-550.49253
325.47	-441.22762
325.989	-485.32719
326.509	-572.5227
327.029	-570.52639
327.548	-585.57452
328.067	-420.16456
328.587	-387.0794
329.106	-601.61075
329.625	-316.90459
330.144	-490.32916
330.662	-552.49121
331.181	-507.38084
331.7	-485.32424
332.218	-600.58564
332.736	-489.33177
333.255	-503.36336
333.773	-483.31541
334.291	-399.10847
334.808	-531.41793
335.326	-518.38387
335.844	-472.27987
336.361	-314.88087
336.879	-445.21102
337.396	-419.14563
337.913	-478.27606
338.43	-509.34972
338.947	-434.17138
339.464	-602.57069
339.981	-440.19452
340.497	-407.11877
341.014	-346.9472
341.53	-552.45678
342.046	-393.07579
342.562	-328.90737
343.078	-454.22703
343.594	-417.1267
344.11	-426.14342
344.626	-323.89704
345.141	-507.33905
345.657	-506.32634
346.172	-391.0577
346.687	-484.29337
347.202	-498.30711
347.717	-382.02645
348.232	-310.85032
348.747	-444.1754
349.261	-523.36097
349.776	-436.16647
350.29	-306.83748
350.805	-252.68643
351.319	-393.04208
351.833	-496.29746
352.347	-393.03791
352.861	-449.18806
353.374	-465.21689
353.888	-369.99414
354.401	-441.15868
354.915	-478.24608
355.428	-315.85536
355.941	-393.03653
356.454	-456.17364
356.967	-394.0369
357.48	-445.15895
357.993	-295.792
358.505	-328.87781
359.018	-325.87136
359.53	-275.72909
360.042	-448.14021
360.554	-338.8974
361.066	-298.79598
361.578	-508.28449
362.09	-387.01793
362.602	-442.11739
363.113	-371.97032
363.625	-417.06659
364.136	-434.09207
364.647	-346.9085
365.158	-344.88423
365.669	-323.84541
366.18	-324.83748
366.691	-451.13917
367.201	-297.77659
367.712	-391.00241
368.222	-395.01269
368.733	-427.07768
369.243	-388.97636
369.753	-283.72583
370.263	-271.70596
370.773	-236.61449
371.282	-289.74484
371.792	-258.65953
372.301	-251.65276
372.811	-109.28979
373.32	-448.09422
373.829	-270.6902
374.338	-346.84912
374.847	-268.6706
375.356	-185.46353
375.865	-394.93709
376.373	-217.52559
376.882	-72.1833
377.39	-161.40151
377.898	-82.20528
378.407	-257.61284
378.915	-239.54713
379.423	-95.22707
379.93	-128.29451
380.438	22.05254
380.946	15.03477
381.453	41.09515
381.96	40.09137
382.468	111.24931
382.975	169.37521
383.482	25.05273
383.989	309.69284
384.495	132.27786
385.002	50.0989
385.509	317.65331
386.015	82.14851
386.521	305.58955
387.028	314.5879
387.534	303.5453
388.04	475.87643
388.546	416.73355
389.051	413.69653
389.557	594.98594
390.063	741.16584
390.568	772.23687
391.073	788.15922
391.578	1030.52642
392.084	809.10523
392.589	743.94138
393.093	1090.36572
393.598	1211.31623
394.103	1497.45219
394.607	1654.34264
395.112	1894.42253
395.616	2021.28457
396.12	2070.91822
396.624	2344.70306
397.128	2818.42853
397.632	3056.9292
398.136	3345.44299
398.639	3620.17869
399.143	4063.82385
399.646	4647.5954
400.15	5054.92806
400.653	5650.10254
401.156	6477.18792
401.659	7836.96089
402.162	9372.50537
402.664	11264.12026
403.167	16020.22705
403.67	19820.73243
404.172	2696.20453
404.674	0
405.176	0
405.678	0
406.18	0
406.682	0
407.184	0
407.686	25783.58453
408.187	43316.52985
408.688	32986.19112
409.19	21873.2351
409.691	17998.92336
410.192	15345.08238
410.693	13068.57229
411.194	12063.45505
411.694	11569.30153
412.195	11020.5438
412.696	9917.47744
413.196	9249.10202
413.696	9166.08669
414.196	9321.45651
414.696	9517.69206
415.196	8892.05949
415.696	7997.14435
416.196	6072.5581
416.695	4580.80644
417.195	3862.26209
417.694	3502.22364
418.194	3280.54828
418.693	3217.95918
419.192	3171.18623
419.691	3081.27837
420.19	3129.32411
420.688	2916.50646
421.187	2534.3472
421.685	2500.81873
422.184	2244.19159
422.682	1645.25395
423.18	1412.45392
423.678	1125.39186
424.176	1043.37818
424.674	835.13871
425.172	841.28719
425.669	895.45705
426.167	631.06077
426.664	525.91593
427.161	417.75051
427.659	386.76957
428.156	140.25926
428.652	439.92911
429.149	293.61525
429.646	59.12034
430.143	155.33496
430.639	129.2802
431.135	164.37718
431.632	-17.03767
432.128	33.0761
432.624	100.24235
433.12	-135.30769
433.616	-193.43312
434.111	-116.27488
434.607	-84.20113
435.103	-302.6759
435.598	-348.78717
436.093	-191.46244
436.588	-309.72834
437.083	-345.83207
437.578	-269.65861
438.073	-134.34438
438.568	-193.48827
439.062	-436.04667
439.557	-278.69738
440.051	-389.96359
440.546	-361.8985
441.04	-282.72642
441.534	-136.35741
442.028	-313.80275
442.522	-316.81567
443.015	-470.16164
443.509	-285.74496
444.002	-277.72431
444.496	-474.18436
444.989	-311.81069
445.482	-262.69127
445.975	-378.96345
446.468	-551.37179
446.961	-529.32316
447.454	-484.2285
447.947	-352.91924
448.439	-363.94423
448.931	-455.16558
449.424	-285.75862
449.916	-340.89939
450.408	-452.15122
450.9	-344.91363
451.392	-290.77922
451.884	-463.19189
452.375	-290.78177
452.867	-512.3134
453.358	-467.2047
453.849	-582.4561
454.341	-516.33241
454.832	-596.51308
455.323	-367.981
455.814	-453.17619
456.304	-467.21177
456.795	-497.29677
457.285	-572.46285
457.776	-542.40588
458.266	-427.12826
458.756	-444.1754
459.247	-446.19013
459.737	-441.182
460.226	-539.40456
460.716	-431.15553
461.206	-454.22028
461.695	-383.03702
462.185	-502.32694
462.674	-501.32628
463.163	-595.531
463.653	-623.58305
464.142	-456.23165
464.63	-397.075
465.119	-528.39433
465.608	-527.40353
466.096	-599.53969
466.585	-549.45588
467.073	-484.29635
467.561	-494.33225
468.05	-499.31966
468.538	-445.2118
469.026	-485.30817
469.513	-556.47323
470.001	-571.49964
470.489	-495.3369
470.976	-549.46458
471.463	-436.19805
471.951	-461.27184
472.438	-541.4532
472.925	-542.45042
473.412	-473.28815
473.899	-612.62707
474.385	-493.35168
474.872	-531.43839
475.359	-450.23424
475.845	-749.92657
476.331	-743.92106
476.817	-504.37814
477.303	-581.56222
477.789	-519.41807
478.275	-462.2756
478.761	-506.38713
479.247	-607.61511
479.732	-464.29552
480.218	-362.02302
480.703	-457.26947
481.188	-749.96178
481.673	-607.62949
482.158	-699.83337
482.643	-467.30652
483.128	-624.67869
483.612	-602.63369
484.097	-541.48855
484.581	-607.63375
485.066	-500.38236
485.55	-682.81015
486.034	-764.00112
486.518	-570.5622
487.002	-468.30711
487.486	-508.40625
487.969	-514.43615
488.453	-485.35776
488.936	-643.73458
489.42	-723.91924
489.903	-496.39305
490.386	-1158.73616
490.869	-748.97798
491.352	-553.53734
491.835	-827.14534
492.318	-591.60203
492.8	-788.04799
493.283	-431.22738
493.765	-511.43236
494.247	-614.67214
494.73	-710.89878
495.212	-553.52923
495.694	-617.69023
496.175	-551.52608
496.657	-595.63666
497.139	-1081.63682
497.62	-589.63237
498.102	-490.37576
498.583	-512.44502
499.064	-641.7331
499.545	-658.79195
500.026	-667.7993
500.507	-615.68315
500.988	-472.32961
501.469	-485.3797
501.949	-502.41249
502.43	-563.56272
502.91	-789.06628
503.39	-493.38314
503.87	-565.56194
504.35	-623.71315
504.83	-703.88407
505.31	-556.5464
505.79	-548.52838
506.269	-604.66639
506.749	-668.82382
507.228	-577.59363
507.707	-719.93887
508.187	-604.6643
508.666	-523.47809
509.145	-580.60217
509.623	-624.71508
510.102	-548.53309
510.581	-601.67029
511.059	-477.3553
511.538	-443.2706
512.016	-539.50443
512.494	-538.50602
512.972	-596.6546
513.45	-594.63725
513.928	-531.49981
514.406	-522.46925
514.884	-422.21296
515.361	-545.52071
515.839	-644.76223
516.316	-557.56042
516.793	-470.33958
517.27	-586.63238
517.747	-450.29658
518.224	-604.66221
518.701	-665.81246
519.178	-532.50286
519.654	-590.63438
520.131	-532.50196
520.607	-526.48546
521.083	-647.7696
521.56	-585.63437
522.036	-729.96836
522.512	-547.53005
522.987	-568.58223
523.463	-559.55979
523.939	-528.48525
524.414	-637.74446
524.89	-600.6688
525.365	-655.79204
525.84	-549.53988
526.315	-552.5509
526.79	-667.81559
527.265	-636.75411
527.74	-563.58591
528.215	-569.58036
528.689	-689.86344
529.164	-769.05779
529.638	-421.2131
530.112	-604.68927
530.587	-741.97479
531.061	-570.6049
531.534	-591.65316
532.008	-549.53941
532.482	-690.87906
532.956	-462.32497
533.429	-567.59282
533.903	-734.97641
534.376	-746.01543
534.849	-617.69985
535.322	-609.6941
535.795	-528.48299
536.268	-584.62731
536.741	-582.62474
537.213	-640.75905
537.686	-516.45412
538.158	-707.92071
538.631	-569.59161
539.103	-652.77562
539.575	-817.13096
540.047	-735.97877
540.519	-576.61095
540.991	-535.50197
541.463	-554.55558
541.934	-637.74446
542.406	-574.60536
542.877	-646.76882
543.348	-549.538
543.82	-564.58608
544.291	-614.68601
544.762	-595.65157
545.233	-478.36159
545.703	-695.87844
546.174	-598.64518
546.645	-548.5345
547.115	-512.43451
547.585	-634.73487
548.056	-492.38391
548.526	-542.50651
548.996	-573.59838
549.466	-513.43049
549.935	-541.49883
550.405	-709.90697
550.875	-551.52132
551.344	-519.44768
551.814	-584.59855
552.283	-733.94189
552.752	-563.55057
553.221	-630.69648
553.69	-644.71894
554.159	-446.25705
554.628	-613.65579
555.096	-366.04368
555.565	-621.67957
556.033	-556.5296
556.502	-495.38026
556.97	-647.73631
557.438	-547.51027
557.906	-512.4067
558.374	-574.56119
558.842	-529.46283
559.31	-588.57667
559.777	-470.30096
560.245	-483.31962
560.712	-552.51476
561.18	-574.54566
561.647	-601.61549
562.114	-543.4676
562.581	-395.09529
563.048	-513.38825
563.514	-393.09075
563.981	-523.40435
564.448	-527.40585
564.914	-409.09753
565.381	-462.22638
565.847	-406.09533
566.313	-391.04811
566.779	-477.24918
567.245	-340.90991
567.711	-302.81914
568.176	-388.0149
568.642	-170.46652
569.108	-175.47388
569.573	-220.58515
570.038	-376.94753
570.504	-341.8785
570.969	-35.09463
571.434	-239.61043
571.899	-98.25676
572.363	-153.38915
572.828	-114.28755
573.293	-95.24078
573.757	-106.26718
574.222	-57.14236
574.686	-42.10541
575.15	56.14226
575.614	35.08662
576.078	105.26347
576.542	38.09344
577.006	39.09518
577.469	226.57185
577.933	153.36989
578.396	156.38501
578.86	159.39321
579.323	236.58777
579.786	48.11309
580.249	165.4028
580.712	229.57438
581.175	287.71904
581.637	132.31689
582.1	80.19045
582.563	19.04448
583.025	248.6181
583.487	-62.14265
583.95	68.16151
584.412	-14.03279
584.874	202.50237
585.336	207.50815
585.797	20.04732
586.259	155.38262
586.721	157.38598
587.182	130.31707
587.643	74.17981
588.105	171.42459
588.566	-99.23228
589.027	200.50192
589.488	87.21208
589.949	209.52158
590.41	-99.22181
590.87	147.34934
591.331	46.10681
591.791	234.56643
592.252	196.47285
592.712	254.62085
593.172	242.57143
593.632	170.39691
594.092	242.56323
594.552	190.434
595.011	354.82513
595.471	253.57988
595.931	320.72767
596.39	543.27205
596.849	446.03166
597.308	426.93016
597.768	778.84032
598.227	694.54638
598.685	662.41653
599.144	800.71947
599.603	926.97763
600.062	789.56449
600.52	982.94906
600.978	1088.20816
601.437	1135.18647
601.895	1095.99102
602.353	1225.24919
602.811	1454.59112
603.269	1702.0668
603.727	1819.19926
604.184	1890.0563
604.642	2158.54375
605.099	2124.25749
605.557	2417.66684
606.014	2370.17741
606.471	2765.97159
606.928	2686.27823
607.385	3051.96779
607.842	3052.42691
608.299	3353.61709
608.755	3566.76138
609.212	3519.23486
609.668	3771.24392
610.125	4069.5859
610.581	4278.31404
611.037	4269.09766
611.493	4660.11216
611.949	4768.45767
612.405	4612.18535
612.861	5093.84112
613.316	5281.90287
613.772	5332.64192
614.227	5549.72353
614.683	5562.00617
615.138	5787.47846
615.593	5901.38843
616.048	5997.1621
616.503	6079.61571
616.958	6259.79407
617.412	6182.35209
617.867	6078.00256
618.321	6113.6255
618.776	6195.97459
619.23	6172.28308
619.684	6259.03688
620.138	6228.17079
620.592	6236.54144
621.046	6117.26955
621.5	6197.61734
621.954	5809.18968
622.407	5830.10794
622.861	5941.6296
623.314	5759.25108
623.768	5716.4774
624.221	5333.73092
624.674	5519.47045
625.127	5490.56469
625.58	5397.43365
626.033	5233.2657
626.485	5410.81818
626.938	5378.75191
627.39	5310.69096
627.843	5166.69824
628.295	5086.66426
628.747	5107.90453
629.199	5043.64016
629.651	5047.66817
630.103	5087.71852
630.555	4834.27514
631.006	5053.81448
631.458	5204.82156
631.909	5045.58775
632.361	5210.70098
632.812	5220.68004
633.263	5149.18133
633.714	5282.03705
634.165	5626.82267
634.616	5658.6319
635.067	5563.06845
635.518	5807.48984
635.968	5604.5073
636.419	6051.80577
636.869	6233.25189
637.319	6418.05611
637.769	6655.87246
638.219	6886.04485
638.669	7207.17202
639.119	7489.38358
639.569	7694.32846
640.019	7830.18482
640.468	8149.32264
640.918	8586.99728
641.367	8808.15462
641.816	9123.70381
642.265	9566.64414
642.714	9912.51232
643.163	10328.72286
643.612	10797.19952
644.061	10968.27901
644.51	11405.87811
644.958	11835.33997
645.406	12357.63293
645.855	12937.99712
646.303	13160.05342
646.751	13462.29442
647.199	13955.34911
647.647	14202.20872
648.095	14671.13197
648.543	14940.56449
648.99	15340.20703
649.438	15732.26073
649.885	16136.48696
650.333	15906.30345
650.78	16511.77992
651.227	16947.48969
651.674	16872.50387
652.121	17184.76171
652.568	17288.75327
653.015	17519.02484
653.461	17248.89764
653.908	17238.16675
654.354	17378.61565
654.801	17273.4177
655.247	17239.41215
655.693	17474.35965
656.139	17296.19847
656.585	16998.95653
657.031	16875.70617
657.477	16841.9108
657.922	16695.97342
658.368	16773.624
658.813	16522.29618
659.259	16389.74657
659.704	16262.1606
660.149	16035.35056
660.594	15981.58547
661.039	15733.81441
661.484	15608.90554
661.929	15342.45743
662.373	15560.94165
662.818	15511.87643
663.262	15412.56735
663.707	15311.75382
664.151	15169.99783
664.595	15218.81669
665.039	15417.05415
665.483	15327.75466
665.927	15255.55403
666.371	15312.14432
666.814	15337.06657
667.258	15453.90204
667.701	15375.24078
668.145	15507.00268
668.588	15608.34628
669.031	15762.23393
669.474	15926.84954
669.917	15976.07669
670.36	16318.27491
670.803	16526.59021
671.245	16345.85163
671.688	16650.71464
672.13	16658.11736
672.573	17016.14868
673.015	16988.53341
673.457	17058.52017
673.899	17239.71286
674.341	17454.08712
674.783	17396.60305
675.225	17666.47278
675.666	17669.36248
676.108	17661.11858
676.549	18028.83011
676.991	17983.36227
677.432	17751.34139
677.873	17785.34313
678.314	17614.25094
678.755	17598.67161
679.196	17528.13555
679.637	17398.41512
680.078	17125.13192
680.518	16873.17959
680.959	16869.1517
681.399	16904.90196
681.839	16625.35016
682.28	16270.04104
682.72	16106.62822
683.16	16044.73091
683.6	15508.80762
684.039	15182.88247
684.479	15430.43729
684.919	15039.47009
685.358	15127.10038
685.798	15090.15544
686.237	14599.02601
686.676	14253.8536
687.115	14338.25799
687.554	14193.89522
687.993	13889.31361
688.432	13632.76922
688.871	13582.34579
689.309	13305.91004
689.748	13074.83783
690.186	13362.41543
690.625	13030.23137
691.063	13032.89718
691.501	12851.58628
691.939	12902.77273
692.377	12690.61572
692.815	12548.84115
693.253	12506.58217
693.69	12238.63771
694.128	12216.76579
694.565	12004.82565
695.003	12153.17046
695.44	11902.31843
695.877	11811.81785
696.314	11396.38181
696.751	11265.47644
697.188	11170.94999
697.625	11072.58795
698.061	11023.15083
698.498	10921.77687
698.934	10808.31425
699.371	10703.98217
699.807	10578.55579
700.243	10365.79762
700.679	10205.39428
701.115	10058.92134
701.551	9780.16135
701.987	9802.23186
702.422	9721.01709
702.858	9621.77732
703.294	9318.07906
703.729	9385.30287
704.164	9069.7029
704.599	8766.06095
705.035	8818.18653
705.47	8788.35633
705.904	8524.88515
706.339	8519.74043
706.774	8383.68756
707.209	8263.53156
707.643	8039.49346
708.078	7998.59376
708.512	8027.71391
708.946	7838.26253
709.38	7563.12542
709.814	7401.88625
710.248	7450.2071
710.682	7472.16607
711.116	7208.20144
711.549	7058.52805
711.983	6844.92075
712.416	6779.02772
712.85	6847.40182
713.283	6658.11095
713.716	6612.39728
714.149	6405.08163
714.582	6118.95977
715.015	6106.48931
715.448	6086.64316
715.881	5628.82536
716.313	5770.32238
716.746	5701.43374
717.178	5621.54411
717.61	5653.82086
718.043	5525.80503
718.475	5361.67491
718.907	5397.99872
719.339	5168.47036
719.77	5027.83233
720.202	5180.14104
720.634	4981.12066
721.065	4772.95169
721.497	4735.18263
721.928	4725.263
722.359	4624.28925
722.79	4506.29843
723.221	4578.39445
723.652	4465.57038
724.083	4171.01317
724.514	4192.03222
724.945	4143.22498
725.375	4093.29427
725.806	4017.55586
726.236	3992.79461
726.666	3847.35521
727.096	3884.61345
727.526	3942.83278
727.956	3591.18188
728.386	3734.61495
728.816	3695.84879
729.246	3695.68287
729.675	3603.7507
730.105	3438.58764
730.534	3360.40363
730.964	3481.79364
731.393	3350.65488
731.822	3455.94669
732.251	3426.8648
732.68	3302.36353
733.109	3240.69448
733.537	3291.62446
733.966	3350.86461
734.395	3058.34748
734.823	3005.13773
735.251	3162.65917
735.68	3155.81677
736.108	3136.85009
736.536	3003.42725
736.964	2970.40725
737.392	3040.8146
737.82	2965.56817
738.247	2925.5119
738.675	2961.49217
739.102	2970.85014
739.53	2974.95046
739.957	3005.01773
740.384	2885.61424
740.811	2985.83451
741.238	2940.66656
741.665	2731.32146
742.092	2799.50736
742.519	2820.73326
742.945	2761.54996
743.372	2969.78049
743.798	2903.97266
744.225	2781.49054
744.651	2846.79585
745.077	2879.77045
745.503	2813.61088
745.929	2799.52848
746.355	2871.71354
746.781	2785.71179
747.207	2745.53065
747.632	2854.75163
748.058	2853.77552
748.483	2732.32617
748.908	2873.72834
749.334	2851.70786
749.759	2696.36572
750.184	2723.53542
750.609	2870.70856
751.033	2776.41768
751.458	2718.14988
751.883	2892.71186
752.307	2811.48328
752.732	2998.90361
753.156	2920.79147
753.58	2810.50664
754.005	2892.81395
754.429	2811.46449
754.853	2915.73207
755.277	2738.38657
755.7	2876.75542
756.124	2919.76439
756.548	2816.53341
756.971	2895.55034
757.394	3032.024
757.818	3059.96095
758.241	3028.89943
758.664	3088.91731
759.087	2798.21881
759.51	2979.72697
759.933	2933.61945
760.356	3075.92147
760.778	3066.7935
761.201	2998.62926
761.623	2933.5343
762.046	2926.46604
762.468	2897.42092
762.89	2956.65581
763.312	3046.72171
763.734	2918.55734
764.156	2955.71721
764.578	2805.34923
765	2972.66949
765.421	3012.93299
765.843	3043.06367
766.264	2830.54962
766.686	2909.72639
767.107	2812.55639
767.528	2896.89279
767.949	2928.89353
768.37	2824.56295
768.791	2857.58426
769.212	2839.84495
769.632	2703.39423
770.053	2876.10871
770.473	2758.58429
770.894	2779.6893
771.314	2594.35259
771.734	2638.36522
772.154	2721.81745
772.575	2496.22476
772.994	2458.17155
773.414	2605.44602
773.834	2639.72533
774.254	2636.66778
774.673	2508.48991
775.093	2481.60013
775.512	2470.54196
775.931	2445.69753
776.351	2445.591
776.77	2385.50679
777.189	2329.3149
777.607	2438.74102
778.026	2335.59287
778.445	2302.60889
778.864	2309.67196
779.282	2210.33358
779.701	2277.54389
780.119	2281.7295
780.537	2149.48199
780.955	2150.47123
781.373	2014.29533
781.791	1861.81483
782.209	1837.8466
782.627	2194.82248
783.045	1821.90435
783.462	2029.49518
783.88	1972.48552
784.297	1835.24415
784.715	1889.39988
785.132	1739.02462
785.549	1708.10861
785.966	1754.14518
786.383	1671.98216
786.8	1570.67648
787.217	1477.6491
787.633	1578.94804
788.05	1413.52223
788.466	1327.35961
788.883	1532.94418
789.299	1437.63465
789.715	1422.67387
790.131	1413.74532
790.547	1354.6125
790.963	1368.6696
791.379	1371.71747
791.795	1141.09865
792.21	1074.0603
792.626	1143.19143
793.041	1225.45909
793.457	1154.34972
793.872	1014.99397
794.287	1082.1562
794.702	1044.13791
795.117	1041.19056
795.532	1058.24044
795.947	904.86572
796.362	885.82852
796.776	767.55691
797.191	875.8723
797.605	842.77336
798.02	791.70047
798.434	544.10697
798.848	794.74745
799.262	759.70209
799.676	683.48951
800.09	734.64769
800.504	618.36212
800.918	504.10776
801.331	695.62148
801.745	411.90406
802.158	569.31847
802.572	453.0265
802.985	481.08653
803.398	414.94289
803.811	499.17931
804.224	410.96163
804.637	385.88978
805.05	227.51737
805.462	377.88754
805.875	444.09568
806.288	314.74687
806.7	321.78589
807.112	79.18478
807.525	235.57089
807.937	184.45311
808.349	234.57792
808.761	173.42547
809.173	113.27638
809.584	112.27734
809.996	117.29104
810.408	214.54995
810.819	24.0588
811.231	227.59258
811.642	36.09097
812.053	39.09821
812.464	-19.04761
812.875	64.16643
813.286	81.2119
813.697	-142.35201
814.108	-46.11653
814.519	-301.7342
814.929	-48.12628
815.34	-93.2403
815.75	-40.10573
816.16	-137.35839
816.571	-62.16514
816.981	-279.71207
817.391	-229.59841
817.801	-98.25877
818.211	-289.73862
818.62	-237.62163
819.03	-255.67042
819.44	-127.34447
819.849	-215.57252
820.259	-218.58638
820.668	-244.64962
821.077	-214.57354
821.486	-355.93417
821.895	-319.84711
822.304	-156.43339
822.713	-409.07845
823.122	-306.82784
823.531	-376.99324
823.939	-350.93851
824.348	-376.00832
824.756	-310.84436
825.164	-335.90876
825.573	-275.75519
825.981	-395.07026
826.389	-310.84599
826.797	-407.10675
827.205	-534.4083
827.612	-395.0744
828.02	-503.34044
828.428	-346.96103
828.835	-289.8161
829.243	-492.32771
829.65	-431.18336
830.057	-463.25685
830.464	-497.35315
830.871	-518.39341
831.278	-508.37138
831.685	-664.74071
832.092	-460.25851
832.499	-711.84088
832.905	-432.19825
833.312	-630.66938
833.718	-443.21943
834.124	-655.73187
834.531	-464.28674
834.937	-462.28596
835.343	-526.4324
835.749	-651.73161
836.155	-397.12568
836.561	-507.40239
836.966	-546.50302
837.372	-470.32076
837.777	-486.35535
838.183	-747.95655
838.588	-547.50838
838.993	-582.60014
839.399	-551.51894
839.804	-577.59363
840.209	-426.2017
840.613	-747.9783
841.018	-503.40518
841.423	-460.29499
841.828	-463.30087
842.232	-580.61117
842.637	-617.6779
843.041	-441.2499
843.445	-531.48937
843.849	-577.60607
844.253	-648.7743
844.657	-498.40165
845.061	-738.98588
845.465	-606.67138
845.869	-670.81354
846.272	-589.63643
846.676	-640.75628
847.079	-477.35408
847.483	-579.61313
847.886	-662.81606
848.289	-404.17032
848.692	-524.47712
849.095	-608.67479
849.498	-560.56811
849.901	-743.99575
850.304	-629.73019
850.707	-544.53632
851.109	-583.63877
851.512	-579.62058
851.914	-496.41123
852.316	-566.58686
852.718	-479.37073
853.121	-600.67035
853.523	-655.79147
853.925	-467.34739
854.326	-584.63733
854.728	-491.40261
855.13	-500.43911
855.531	-629.74377
855.933	-709.94584
856.334	-578.62891
856.736	-776.08025
857.137	-737.00231
857.538	-560.59248
857.939	-558.56729
858.34	-622.72302
858.741	-516.48737
859.142	-660.82655
859.542	-451.3061
859.943	-594.66435
860.343	-608.7093
860.744	-647.79756
861.144	-654.80544
861.544	-661.84779
861.945	-510.45628
862.345	-629.74594
862.745	-542.52604
863.145	-697.91595
863.544	-565.59685
863.944	-724.97599
864.344	-606.69798
864.743	-629.75675
865.143	-522.48924
865.542	-726.97892
865.941	-576.61884
866.34	-678.86639
866.74	-447.29937
867.139	-644.78784
867.537	-563.59838
867.936	-661.8353
868.335	-540.53375
868.734	-503.44117
869.132	-728.9951
869.531	-707.95075
869.929	-754.05146
870.327	-669.85807
870.726	-651.82598
871.124	-719.97077
871.522	-556.5844
871.92	-621.74611
872.318	-654.82627
872.715	-673.88074
873.113	-644.80553
873.511	-566.60281
873.908	-553.58357
874.306	-585.65637
874.703	-617.73856
875.1	-569.62121
875.497	-635.7604
875.894	-630.77867
876.291	-681.91066
876.688	-498.43545
877.085	-705.9434
877.482	-609.71758
877.878	-683.90281
878.275	-567.62128
878.671	-831.21933
879.068	-680.88714
879.464	-676.87663
879.86	-721.98186
880.256	-633.77172
880.652	-566.61291
881.048	-645.8075
881.444	-733.00478
881.84	-585.66532
882.236	-609.72173
882.631	-613.72467
883.027	-694.91999
883.422	-576.64433
883.817	-551.57691
884.213	-545.56434
884.608	-641.80671
885.003	-654.82346
885.398	-571.62498
885.793	-614.73717
886.188	-580.64493
886.582	-583.6517
886.977	-706.94585
887.371	-631.78176
887.766	-602.70322
888.16	-608.71086
888.554	-659.84051
888.949	-622.75556
889.343	-667.8531
889.737	-436.27989
890.131	-620.74515
890.525	-573.63601
890.918	-627.77047
891.312	-749.05633
891.706	-542.55138
892.099	-610.72741
892.492	-879.32203
892.886	-667.8594
893.279	-539.53663
893.672	-630.78457
894.065	-626.76738
894.458	-561.59318
894.851	-660.84301
895.244	-577.64499
895.637	-675.87821
896.029	-655.82597
896.422	-669.86498
896.814	-631.77476
897.206	-720.9931
897.599	-650.81287
897.991	-704.95491
898.383	-683.8887
898.775	-842.27329
899.167	-734.01799
899.559	-610.73208
899.951	-728.9951
900.342	-610.72949
900.734	-590.6758
901.125	-512.47884
901.517	-642.80596
901.908	-717.97955
902.299	-609.71602
902.69	-740.04533
903.082	-668.85271
903.473	-677.8861
903.863	-572.63195
904.254	-728.99573
904.645	-618.73847
905.036	-684.91761
905.426	-795.13848
905.817	-637.78782
906.207	-684.89883
906.597	-783.13817
906.987	-539.54984
907.378	-613.73408
907.768	-483.4013
908.158	-670.8715
908.547	-526.51266
908.937	-591.6824
909.327	-656.83354
909.717	-613.73773
910.106	-717.99067
910.495	-608.71398
910.885	-571.62643
911.274	-623.76077
911.663	-602.70015
912.052	-667.86284
912.441	-600.70318
912.83	-760.06581
913.219	-533.53527
913.608	-668.86477
913.997	-583.65368
914.385	-727.00093
914.774	-680.89708
915.162	-692.92102
915.55	-704.95854
915.939	-599.70263
916.327	-656.83916
916.715	-557.58324
917.103	-664.85247
917.491	-674.88671
917.878	-697.94058
918.266	-565.61173
918.654	-551.57924
919.041	-510.47606
919.429	-703.93243
919.816	-584.64931
920.203	-665.85497
920.591	-650.82457
920.978	-692.91685
921.365	-510.47478
921.752	-711.97403
922.139	-870.31315
922.525	-685.91719
922.912	-667.8531
923.299	-627.77261
923.685	-510.47178
924.072	-823.22238
924.458	-619.73678
924.844	-641.81053
925.231	-759.07723
925.617	-558.59294
926.003	-578.64711
926.389	-603.71502
926.774	-577.63764
927.16	-632.78054
927.546	-548.57272
927.931	-620.74992
928.317	-813.20245
928.702	-750.05097
929.088	-727.01282
929.473	-619.76891
929.858	-675.89037
930.243	-683.89576
930.628	-628.76069
931.013	-633.78633
931.398	-798.15454
931.783	-526.51576
932.167	-628.76391
932.552	-642.80596
932.937	-643.80575
933.321	-603.71195
933.705	-591.68039
934.09	-632.78378
934.474	-732.01122
934.858	-541.55514
935.242	-768.10219
935.626	-547.56916
936.009	-523.51261
936.393	-594.69069
936.777	-569.62892
937.16	-551.58157
937.544	-730.98918
937.927	-557.58985
938.311	-663.83971
938.694	-519.5006
939.077	-691.91021
939.46	-728.00964
939.843	-909.36761
940.226	-567.6232
940.609	-720.96883
940.991	-577.64597
941.374	-644.80001
941.757	-669.87071
942.139	-789.13882
942.522	-776.12677
942.904	-696.93092
943.286	-593.6765
943.668	-547.57561
944.05	-623.7448
944.432	-617.74277
944.814	-673.87496
945.196	-633.7793
945.578	-658.83461
945.959	-747.04955
946.341	-712.96914
946.722	-755.06497
947.104	-684.8894
947.485	-769.1026
947.866	-545.55559
948.247	-608.71398
948.628	-698.93826
949.009	-548.57087
949.39	-646.81887
949.771	-739.0116
950.152	-642.80651
950.532	-619.74841
950.913	-682.89093
951.293	-425.24703
951.674	-633.7793
952.054	-605.71454
952.434	-645.81357
952.814	-707.94952
953.194	-548.57642
953.574	-677.88494
953.954	-736.03427
954.334	-615.73712
954.714	-664.86328
955.093	-674.88093
955.473	-636.7956
955.853	-559.60171
956.232	-456.34094
956.611	-706.95073
956.99	-600.71031
957.37	-559.59319
957.749	-709.96787
958.128	-590.6843
958.506	-520.50851
958.885	-572.62467
959.264	-615.73817
959.643	-822.21646
960.021	-627.77207
960.4	-794.14788
960.778	-654.83187
961.156	-601.70831
961.535	-775.11498
961.913	-734.00466
962.291	-513.47936
962.669	-623.76978
963.047	-595.69328
963.424	-578.64515
963.802	-638.79417
964.18	-596.68676
964.557	-779.11509
964.935	-725.99661
965.312	-530.5206
965.69	-646.81831
966.067	-660.84471
966.444	-670.8715
966.821	-562.60484
967.198	-691.91854
967.575	-705.96344
967.952	-744.03649
968.329	-669.86842
968.705	-928.42973
969.082	-539.54484
969.458	-656.83129
969.835	-693.93302
970.211	-537.54227
970.587	-644.81489
970.963	-572.63001
971.339	-526.5193
971.715	-626.76471
972.091	-640.79267
972.467	-620.74833
972.843	-611.71643
973.219	-740.03257
973.594	-496.44216
973.97	-741.0382
974.345	-696.93152
974.721	-732.02132
975.096	-689.91596
975.471	-724.99605
975.846	-699.9311
976.221	-559.60171
976.596	-688.91347
976.971	-662.85937
977.346	-766.07614
977.72	-572.6334
978.095	-547.57377
978.469	-732.01627
978.844	-655.84894
979.218	-711.96852
979.593	-717.98079
979.967	-670.86632
980.341	-802.17719
980.715	-607.72794
981.089	-647.81809
981.463	-739.01992
981.837	-666.8723
982.21	-783.13003
982.584	-691.92567
982.957	-608.72434
983.331	-713.95928
983.704	-720.00363
984.078	-631.77422
984.451	-668.8705
984.824	-663.85622
985.197	-684.90059
985.57	-614.73508
985.943	-683.90867
986.316	-651.81538
986.688	-711.96913
987.061	-720.98005
987.434	-552.59536
987.806	-666.8529
988.179	-704.94035
988.551	-557.5804
988.923	-663.86133
989.295	-694.94503
989.667	-692.92875
990.039	-624.76227
990.411	-807.1988
990.783	-799.168
991.155	-632.76594
991.527	-691.92804
991.898	-597.68475
992.27	-649.82093
992.641	-624.75801
993.012	-734.0072
993.384	-729.00266
993.755	-557.59315
994.126	-707.95684
994.497	-655.84112
994.868	-769.08994
995.239	-710.97461
995.61	-597.69897
995.98	-648.81452
996.351	-651.83544
996.722	-726.99591
997.092	-715.97588
997.462	-728.00023
997.833	-754.07299
998.203	-699.93713
998.573	-631.77476
998.943	-724.99104
999.313	-689.91536
999.683	-669.86612
1000.053	-769.09195
1000.423	-708.96662
1000.792	-541.56378
1001.162	-665.85954
1001.531	-644.80828
1001.901	-576.63113
1002.27	-831.22441
1002.639	-556.59052
1003.009	-743.04242
1003.378	-588.66962
1003.747	-710.96361
1004.116	-703.95183
1004.485	-713.95866
1004.853	-600.70522
1005.222	-628.7741
1005.591	-734.01735
1005.959	-794.15409
1006.328	-825.22419
1006.696	-665.85783
1007.064	-630.7835
1007.433	-652.84242
1007.801	-691.92448
1008.169	-635.79359
1008.537	-848.26434
1008.905	-740.0281
1009.273	-675.88459
1009.64	-673.87091
1010.008	-692.91327
1010.375	-746.03938
1010.743	-790.13569
1011.11	-725.00354
1011.478	-654.83355
1011.845	-749.04791
1012.212	-804.17843
1012.579	-683.90749
1012.946	-735.02296
1013.313	-734.01038
1013.68	-839.24728
1014.047	-684.89529
1014.414	-732.02195
1014.78	-661.8591
1015.147	-711.95932
1015.513	-693.92707
1015.88	-608.72434
1016.246	-700.94803
1016.612	-843.27416
1016.978	-681.91066
1017.344	-618.739
1017.71	-730.02144
1018.076	-764.09323
1018.442	-594.6927
1018.808	-620.75361
1019.174	-603.71093
1019.539	-841.25777
1019.905	-754.07559
1020.27	-629.77182
1020.636	-704.94521
1021.001	-715.97157
1021.366	-706.9641
1021.731	-596.69436
1022.096	-593.68658
1022.461	-737.02592
1022.826	-716.96782
1023.191	-543.56957
1023.556	-716.96224
1023.92	-692.9335
1024.285	-672.87535
1024.649	-661.85119
1025.014	-635.78492
1025.378	-598.69394
1025.742	-635.79413
1026.107	-854.29898
1026.471	-796.15537
1026.835	-633.79064
1027.199	-632.77081
1027.562	-787.15114
1027.926	-671.86882
1028.29	-578.65004
1028.654	-794.15892
1029.017	-700.95524
1029.381	-713.97589
1029.744	-631.80052
1030.107	-734.00784
1030.471	-747.05599
1030.834	-842.27402
1031.197	-743.0469
1031.56	-748.04615
1031.923	-553.58451
1032.286	-760.07569
1032.648	-696.93212
1033.011	-818.21493
1033.374	-780.12491
1033.736	-512.48614
1034.099	-657.84055
1034.461	-614.73822
1034.823	-649.82869
1035.185	-630.78939
1035.548	-648.80841
1035.91	-720.99682
1036.272	-844.26914
1036.634	-704.95733
1036.995	-720.98192
1037.357	-673.87843
1037.719	-739.05177
1038.08	-752.06554
1038.442	-740.03385
1038.803	-725.00292
1039.165	-586.67288
1039.526	-704.95673
1039.887	-714.98143
1040.248	-665.86694
1040.609	-676.88245
1040.97	-667.87198
1041.331	-600.70318
1041.692	-701.93481
1042.053	-787.12313
1042.413	-771.10607
1042.774	-699.94555
1043.134	-697.91896
1043.495	-639.8038
1043.855	-689.91655
1044.215	-608.71086
1044.576	-673.87496
1044.936	-793.14208
1045.296	-645.82073
1045.656	-690.92437
1046.016	-729.01585
1046.375	-708.96418
1046.735	-802.16883
1047.095	-767.0978
1047.454	-948.47452
1047.814	-707.95989
1048.173	-779.11982
1048.533	-827.24539
1048.892	-694.94028
1049.251	-610.72378
1049.61	-661.85232
1049.969	-700.93477
1050.328	-912.41273
1050.687	-702.95841
1051.046	-708.96357
1051.405	-609.72225
1051.763	-796.17125
1052.122	-635.79413
1052.48	-705.96102
1052.839	-751.06052
1053.197	-723.98736
1053.555	-888.3633
1053.914	-712.97894
1054.272	-738.03408
1054.63	-632.77081
1054.988	-731.02264
1055.345	-920.42984
1055.703	-692.90789
1056.061	-586.67784
1056.419	-545.56204
1056.776	-735.03182
1057.134	-762.07257
1057.491	-640.80416
1057.848	-668.87221
1058.206	-733.00732
1058.563	-888.36641
1058.92	-814.19135
1059.277	-674.88729
1059.634	-768.10153
1059.991	-713.97282
1060.348	-788.12342
1060.704	-710.96728
1061.061	-782.11679
1061.418	-704.95673
1061.774	-654.83859
1062.131	-483.40494
1062.487	-750.05032
1062.843	-659.85235
1063.199	-624.76493
1063.555	-739.01736
1063.911	-631.77907
1064.267	-990.5604
1064.623	-683.90691
1064.979	-750.05486
1065.335	-734.01292
1065.691	-725.99974
1066.046	-940.46856
1066.402	-775.10154
1066.757	-613.72938
1067.112	-703.9621
1067.468	-681.90191
1067.823	-698.94067
1068.178	-714.97528
1068.533	-682.89738
1068.888	-741.04011
1069.243	-655.83495
1069.598	-678.88976
1069.952	-820.22105
1070.307	-616.74545
1070.662	-749.05891
1071.016	-842.26376
1071.371	-815.19226
1071.725	-723.99236
1072.079	-712.96115
1072.434	-680.90291
1072.788	-713.97159
1073.142	-657.84505
1073.496	-738.02835
1073.85	-815.20999
1074.203	-629.75891
1074.557	-491.42987
1074.911	-749.04921
1075.265	-789.15182
1075.618	-702.94815
1075.971	-756.08761
1076.325	-595.69832
1076.678	-766.08478
1077.031	-803.16908
1077.385	-854.28334
1077.738	-827.23461
1078.091	-795.15577
1078.444	-781.1273
1078.796	-692.93231
1079.149	-660.85432
1079.502	-686.90083
1079.855	-734.00657
1080.207	-666.86604
1080.56	-569.63277
1080.912	-711.9777
1081.264	-722.00548
1081.617	-650.82568
1081.969	-585.66879
1082.321	-685.90425
1082.673	-773.10216
1083.025	-726.00287
1083.377	-905.38509
1083.728	-795.16198
1084.08	-638.79635
1084.432	-698.94366
1084.783	-770.10034
1085.135	-620.75467
1085.486	-770.10367
1085.838	-652.8313
1086.189	-724.01228
1086.54	-738.03153
1086.891	-590.6823
1087.242	-714.98327
1087.593	-703.95788
1087.944	-846.26713
1088.295	-831.24397
1088.646	-682.90733
1088.996	-731.03081
1089.347	-671.87918
1089.698	-730.01139
1090.048	-596.70244
1090.398	-801.17065
1090.749	-710.96422
1091.099	-575.64998
1091.449	-655.84894
1091.799	-614.7356
1092.149	-622.75556
1092.499	-686.91145
1092.849	-577.64792
1093.199	-674.89996
1093.548	-698.94306
1093.898	-628.77677
1094.248	-601.71799
1094.597	-539.55165
1094.947	-490.42265
1095.296	-663.85508
1095.645	-560.61095
1095.994	-734.02495
1096.343	-622.7598
1096.692	-443.29807
1097.041	-484.41733
1097.39	-586.66444
1097.739	-561.61501
1098.088	-485.41723
1098.437	-520.51068
1098.785	-504.46923
1099.134	-520.50763
1099.482	-416.23108
1099.83	-542.55824
1100.179	-514.49195
1100.527	-508.47197
1100.875	-510.47991
1101.223	-508.4741
1101.571	-423.25791
1101.919	-505.46982
1102.267	-366.09369
1102.615	8.0258
1102.962	-8.02579
1103.31	-2.00645
1103.658	14.04515
