Data from N2 R0 105C sample4_Subt2__5__11-56-09-958.txt Node

Date: Tue Aug 19 11:56:09 PDT 2025
User: uwsun
Spectrometer: HDX01956
Trigger mode: 0
Integration Time (sec): 1.000000E-1
Scans to average: 1
Nonlinearity correction enabled: true
Boxcar width: 0
Storing dark spectrum: false
XAxis mode: Wavelengths
Number of Pixels in Spectrum: 2068
>>>>>Begin Spectral Data<<<<<
194.03	2.00587
194.578	11.03587
195.127	-5.01613
195.676	14.04521
196.225	-437.29385
196.773	-326.98476
197.321	-286.86446
197.87	-400.16607
198.418	-438.27189
198.966	-390.1466
199.513	-504.44723
200.061	-455.32151
200.609	-376.10537
201.156	-758.05379
201.704	-455.31693
202.251	-352.04253
202.798	-403.1797
203.345	-503.43564
203.892	-451.29548
204.438	-558.56729
204.985	-548.54528
205.532	-371.09049
206.078	-500.42177
206.624	-520.48838
207.17	-634.76554
207.716	-529.50047
208.262	-936.42339
208.808	-477.37024
209.354	-536.52693
209.899	-483.38587
210.445	-459.31732
210.99	-543.54343
211.535	-584.63633
212.08	-611.71277
212.625	-454.30315
213.17	-454.30889
213.715	-638.75963
214.259	-637.77854
214.804	-531.51111
215.348	-667.83641
215.892	-581.63662
216.436	-633.75649
216.98	-708.93727
217.524	-615.72714
218.068	-422.21687
218.612	-481.3858
219.155	-607.69531
219.698	-569.596
220.242	-507.45264
220.785	-633.75867
221.328	-531.51965
221.871	-490.40618
222.414	-520.4897
222.956	-549.56189
223.499	-692.89472
224.041	-645.79477
224.583	-797.12156
225.126	-740.00372
225.668	-549.54787
226.21	-481.38012
226.751	-740.01015
227.293	-660.82996
227.835	-524.49006
228.376	-660.82143
228.918	-484.39465
229.459	-520.49452
230	-599.67554
230.541	-626.74595
231.082	-604.69858
231.622	-687.90034
232.163	-572.62175
232.704	-529.50631
233.244	-512.45939
233.784	-549.55629
234.324	-706.93058
234.864	-684.87875
235.404	-611.7112
235.944	-601.67494
236.484	-534.51987
237.023	-605.69958
237.563	-646.78559
238.102	-643.78811
238.641	-475.3681
239.18	-611.70648
239.719	-488.39755
240.258	-684.86808
240.797	-563.58495
241.335	-521.47422
241.874	-929.39666
242.412	-549.55161
242.95	-567.59282
243.488	-656.81096
244.026	-671.85495
244.564	-838.20235
245.102	-689.88023
245.64	-599.68272
246.177	-669.82568
246.715	-573.61311
247.252	-659.81952
247.789	-1000.54367
248.326	-543.53372
248.863	-702.905
249.4	-653.7894
249.936	-853.23763
250.473	-605.68349
251.009	-622.72088
251.546	-728.9755
252.082	-742.00591
252.618	-721.96186
253.154	-557.57565
253.69	-699.90507
254.226	-594.66639
254.761	-662.82294
255.297	-738.98459
255.832	-634.77153
256.367	-587.63996
256.903	-770.07425
257.438	-624.73662
257.972	-690.88565
258.507	-625.72945
259.042	-723.95533
259.576	-726.95995
260.111	-649.79528
260.645	-795.12876
261.179	-622.72463
261.713	-665.81246
262.247	-643.78589
262.781	-793.10675
263.315	-523.48966
263.849	-469.34487
264.382	-659.81326
264.915	-579.61959
265.449	-464.32167
265.982	-643.77036
266.515	-553.55962
267.048	-767.05914
267.58	-703.89207
268.113	-757.04021
268.646	-501.42823
269.178	-711.94948
269.71	-711.9198
270.243	-654.79242
270.775	-465.33652
271.307	-563.57965
271.838	-598.65551
272.37	-524.48784
272.902	-655.79431
273.433	-778.09309
273.965	-546.54522
274.496	-526.49218
275.027	-505.43879
275.558	-565.60022
276.089	-505.44264
276.62	-471.35894
277.15	-556.57259
277.681	-729.96773
278.211	-581.62718
278.741	-695.88511
279.272	-659.81097
279.802	-498.41735
280.332	-583.62227
280.861	-563.58495
281.391	-671.83987
281.921	-569.6033
282.45	-478.36524
282.98	-408.18841
283.509	-683.85674
284.038	-684.88821
284.567	-657.81627
285.096	-538.51615
285.625	-643.76869
286.153	-631.7504
286.682	-640.75961
287.21	-564.59089
287.739	-579.62108
288.267	-548.54528
288.795	-444.29045
289.323	-584.63283
289.851	-583.62377
290.378	-679.85708
290.906	-531.49936
291.433	-517.47168
291.961	-677.8569
292.488	-506.43842
293.015	-585.63688
293.542	-442.27239
294.069	-520.46628
294.596	-505.42676
295.122	-568.58857
295.649	-705.89807
296.175	-513.45156
296.702	-537.50575
297.228	-558.57063
297.754	-629.72637
298.28	-626.7119
298.806	-560.57099
299.332	-687.87
299.857	-679.85767
300.383	-459.31228
300.908	-536.51417
301.433	-559.57129
301.958	-651.78843
302.483	-457.2988
303.008	-494.39839
303.533	-392.12692
304.058	-581.6152
304.582	-572.59485
305.107	-381.11011
305.631	-672.83649
306.155	-590.63285
306.679	-624.72264
307.203	-598.6519
307.727	-571.5874
308.251	-503.42496
308.775	-552.54239
309.298	-522.47014
309.822	-439.25354
310.345	-519.44455
310.868	-568.5876
311.391	-494.3908
311.914	-442.25743
312.437	-619.69087
312.96	-591.64097
313.482	-573.59098
314.005	-454.2947
314.527	-364.05911
315.049	-476.35347
315.571	-645.76077
316.093	-475.34719
316.615	-513.43885
317.137	-709.90263
317.659	-495.39341
318.18	-592.65774
318.702	-608.66848
319.223	-744.96085
319.744	-659.79668
320.265	-511.43499
320.786	-453.2828
321.307	-458.29678
321.828	-588.59979
322.348	-545.51321
322.869	-512.42572
323.389	-1296.00366
323.909	-604.64859
324.43	-524.45148
324.95	-609.66832
325.47	-498.39867
325.989	-548.51469
326.509	-628.68725
327.029	-645.74842
327.548	-622.68418
328.067	-457.27458
328.587	-438.23148
329.106	-655.77095
329.625	-369.06146
330.144	-546.4945
330.662	-607.6544
331.181	-549.50534
331.7	-541.49042
332.218	-645.71736
332.736	-549.50962
333.255	-550.50211
333.773	-518.41871
334.291	-441.23331
334.808	-609.64711
335.326	-577.55651
335.844	-540.48041
336.361	-390.10364
336.879	-499.36987
337.396	-500.38495
337.913	-564.5271
338.43	-583.56505
338.947	-517.4144
339.464	-669.76534
339.981	-511.40329
340.497	-450.24553
341.014	-438.21341
341.53	-625.6696
342.046	-456.26098
342.562	-407.13669
343.078	-476.29114
343.594	-474.29273
344.11	-511.39086
344.626	-378.05571
345.141	-588.57409
345.657	-594.58025
346.172	-450.22916
346.687	-537.44762
347.202	-575.52892
347.717	-454.23456
348.232	-392.08611
348.747	-522.40006
349.261	-596.57033
349.776	-491.32566
350.29	-378.04333
350.805	-334.92164
351.319	-497.341
351.833	-546.44045
352.347	-505.35907
352.861	-521.39532
353.374	-531.4053
353.888	-421.14084
354.401	-530.41362
354.915	-540.42271
355.428	-397.08917
355.941	-457.21852
356.454	-572.50201
356.967	-486.29915
357.48	-518.36607
357.993	-395.07474
358.505	-437.18732
359.018	-404.09417
359.53	-394.06221
360.042	-570.48211
360.554	-443.19358
361.066	-401.0862
361.578	-612.57612
362.09	-484.29422
362.602	-561.44846
363.113	-467.23823
363.625	-526.37135
364.136	-553.42139
364.647	-453.20784
365.158	-477.25129
365.669	-455.21438
366.18	-471.24511
366.691	-570.47045
367.201	-427.13804
367.712	-486.26696
368.222	-513.34266
368.733	-519.3316
369.243	-518.33065
369.753	-419.09707
370.263	-381.00818
370.773	-397.059
371.282	-424.11526
371.792	-398.03934
372.301	-363.96197
372.811	-262.71412
373.32	-557.38825
373.829	-391.01773
374.338	-478.19867
374.847	-410.0492
375.356	-390.0101
375.865	-571.40102
376.373	-441.10991
376.882	-247.64808
377.39	-347.89427
377.898	-275.71221
378.407	-426.04579
378.915	-462.10205
379.423	-312.77644
379.93	-373.89992
380.438	-227.56772
380.946	-261.63784
381.453	-231.56474
381.96	-219.52624
382.468	-153.3622
382.975	-160.37943
383.482	-288.64908
383.989	-33.07918
384.495	-190.42823
385.002	-309.66258
385.509	-22.04879
386.015	-349.70178
386.521	-74.15604
387.028	-58.11859
387.534	-133.26621
388.04	17.03497
388.546	-32.06306
389.051	-61.11621
389.557	136.25437
390.063	161.29629
390.568	284.51885
391.073	187.32634
391.578	366.65279
392.084	183.30169
392.589	131.2016
393.093	374.5871
393.598	426.60709
394.103	579.78481
394.607	662.80274
395.112	914.0373
395.616	964.99839
396.12	952.79844
396.624	1196.80355
397.128	1403.79113
397.632	1566.53331
398.136	1655.27214
398.639	1717.15423
399.143	2227.74957
399.646	2442.24997
400.15	2603.91923
400.653	2944.65686
401.156	3495.688
401.659	4180.80315
402.162	5304.89865
402.664	5344.88962
403.167	8015.49478
403.67	8640.97367
404.172	2475.83925
404.674	0
405.176	0
405.678	0
406.18	0
406.682	0
407.184	0
407.686	25783.58453
408.187	36189.33987
408.688	19958.71618
409.19	12920.17109
409.691	10470.83821
410.192	8876.39048
410.693	7357.86606
411.194	6689.75804
411.694	6692.21142
412.195	6310.32841
412.696	5479.86886
413.196	4758.1843
413.696	4996.92919
414.196	5161.01534
414.696	5260.13751
415.196	4865.07686
415.696	4514.79865
416.196	3457.81556
416.695	2522.73337
417.195	2056.2094
417.694	1745.13134
418.194	1638.33064
418.693	1603.61461
419.192	1658.75197
419.691	1603.78562
420.19	1557.83562
420.688	1483.87978
421.187	1143.62826
421.685	1120.88089
422.184	988.97868
422.682	649.75278
423.18	486.69226
423.678	432.66641
424.176	307.50672
424.674	159.26533
425.172	234.42317
425.669	274.52442
426.167	159.30218
426.664	49.09626
427.161	-42.08451
427.659	21.04542
428.156	-259.52754
428.652	63.14429
429.149	-42.0947
429.646	-198.42742
430.143	-134.30745
430.639	-187.43343
431.135	-110.26679
431.632	-303.71114
432.128	-260.63433
432.624	-125.31569
433.12	-342.81189
433.616	-429.00658
434.111	-312.76712
434.607	-283.70314
435.103	-554.30113
435.598	-518.20939
436.093	-379.94979
436.588	-516.26197
437.083	-494.22194
437.578	-414.03793
438.073	-279.73499
438.568	-357.92927
439.062	-596.47451
439.557	-419.07471
440.051	-523.3241
440.546	-520.32837
441.04	-406.06531
441.534	-291.78459
442.028	-429.1195
442.522	-457.20523
443.015	-583.47091
443.509	-344.90814
444.002	-395.05052
444.496	-575.46308
444.989	-439.16621
445.482	-404.08816
445.975	-515.34105
446.468	-623.57133
446.961	-603.52843
447.454	-573.47742
447.947	-463.22884
448.439	-501.3307
448.931	-552.43821
449.424	-390.05311
449.916	-449.20623
450.408	-572.48782
450.9	-459.23916
451.392	-411.12301
451.884	-546.42596
452.375	-391.06826
452.867	-599.55994
453.358	-569.49388
453.849	-682.73695
454.341	-593.55167
454.832	-656.68303
455.323	-452.22202
455.814	-560.48087
456.304	-565.49086
456.795	-557.46826
457.285	-677.76309
457.776	-627.65009
458.266	-511.36941
458.756	-521.39715
459.247	-513.38422
459.737	-501.35619
460.226	-600.57981
460.716	-504.36761
461.206	-510.38346
461.695	-471.29375
462.185	-574.53559
462.674	-537.43018
463.163	-680.77542
463.653	-679.74234
464.142	-504.37201
464.63	-475.30269
465.119	-596.59185
465.608	-587.57888
466.096	-681.77532
466.585	-580.54605
467.073	-533.43916
467.561	-529.43482
468.05	-582.56058
468.538	-518.42724
469.026	-523.41944
469.513	-620.66032
470.001	-652.73571
470.489	-535.45437
470.976	-602.62002
471.463	-488.3521
471.951	-487.34912
472.438	-588.59159
472.925	-628.70426
473.412	-535.47156
473.899	-657.75968
474.385	-539.48864
474.872	-570.55378
475.359	-533.48125
475.845	-784.02579
476.331	-774.00885
476.817	-560.54497
477.303	-620.67768
477.789	-540.48041
478.275	-518.44288
478.761	-530.45849
479.247	-669.79826
479.732	-509.43111
480.218	-422.20368
480.703	-514.44056
481.188	-765.0061
481.673	-668.81104
482.158	-731.92758
482.643	-512.4424
483.128	-665.80088
483.612	-651.78053
484.097	-572.58155
484.581	-657.78265
485.066	-544.51441
485.55	-722.92895
486.034	-779.04558
486.518	-605.66731
487.002	-506.42159
487.486	-536.49029
487.969	-522.46031
488.453	-515.44843
488.936	-681.84834
489.42	-739.96687
489.903	-525.48106
490.386	-1177.79109
490.869	-763.01966
491.352	-534.48012
491.835	-873.28238
492.318	-635.73347
492.8	-820.14277
493.283	-461.31878
493.765	-540.5204
494.247	-646.76826
494.73	-737.97964
495.212	-577.60159
495.694	-620.69926
496.175	-580.61367
496.657	-612.68793
497.139	-1085.64851
497.62	-591.63842
498.102	-526.48501
498.583	-513.44806
499.064	-659.78693
499.545	-671.83114
500.026	-715.94368
500.507	-652.79485
500.988	-501.41758
501.469	-500.42559
501.949	-521.47022
502.43	-589.6415
502.91	-828.18264
503.39	-527.48626
503.87	-579.60415
504.35	-644.77673
504.83	-721.93796
505.31	-588.64351
505.79	-565.57994
506.269	-606.67243
506.749	-689.88741
507.228	-610.69347
507.707	-721.94489
508.187	-624.7248
508.666	-550.56076
509.145	-613.70206
509.623	-640.76348
510.102	-582.63671
510.581	-614.70985
511.059	-490.39498
511.538	-435.24615
512.016	-561.57115
512.494	-565.58816
512.972	-597.65763
513.45	-640.77674
513.928	-519.46324
514.406	-543.53326
514.884	-436.25583
515.361	-577.61795
515.839	-658.80452
516.316	-570.60003
516.793	-488.39466
517.27	-593.65367
517.747	-460.32737
518.224	-616.69843
518.701	-667.81849
519.178	-552.56409
519.654	-625.74075
520.131	-537.51723
520.607	-521.47022
521.083	-680.86954
521.56	-593.65876
522.036	-731.9744
522.512	-579.62752
522.987	-600.67962
523.463	-589.6511
523.939	-545.53705
524.414	-659.81097
524.89	-612.70534
525.365	-690.89821
525.84	-561.57644
526.315	-555.56005
526.79	-676.84272
527.265	-641.76928
527.74	-554.55842
528.215	-590.64403
528.689	-705.9116
529.164	-760.03071
529.638	-440.27144
530.112	-596.66485
530.587	-782.09497
531.061	-548.53778
531.534	-594.66232
532.008	-565.58816
532.482	-708.93358
532.956	-487.40187
533.429	-573.61115
533.903	-741.9975
534.376	-732.97614
534.849	-647.79087
535.322	-617.71847
535.795	-555.56526
536.268	-613.71575
536.741	-614.72249
537.213	-658.81363
537.686	-557.57945
538.158	-726.97829
538.631	-587.6465
539.103	-678.85406
539.575	-842.20544
540.047	-749.01799
540.519	-569.58966
540.991	-558.57206
541.463	-569.60136
541.934	-663.82311
542.406	-583.63278
542.877	-652.78694
543.348	-554.5532
543.82	-564.58608
544.291	-644.77673
544.762	-622.73373
545.233	-498.42284
545.703	-704.90552
546.174	-616.69949
546.645	-563.58013
547.115	-557.57138
547.585	-635.73788
548.056	-514.45067
548.526	-567.58212
548.996	-552.53479
549.466	-543.52119
549.935	-559.55306
550.405	-716.92797
550.875	-585.6238
551.344	-532.48693
551.814	-617.69772
552.283	-760.01939
552.752	-596.64997
553.221	-644.73812
553.69	-699.88253
554.159	-454.28118
554.628	-642.74224
555.096	-380.08594
555.565	-643.74524
556.033	-565.55657
556.502	-516.44351
556.97	-674.81671
557.438	-566.56739
557.906	-563.55933
558.374	-604.65069
558.842	-547.51688
559.31	-601.61496
559.777	-505.40556
560.245	-519.42618
560.712	-528.44336
561.18	-582.56924
561.647	-587.57425
562.114	-537.44996
562.581	-410.13961
563.048	-513.38825
563.514	-403.12029
563.981	-515.38105
564.448	-528.40875
564.914	-461.24779
565.381	-470.2493
565.847	-414.1184
566.313	-423.13998
566.779	-480.25768
567.245	-375.00645
567.711	-294.79642
568.176	-417.09626
568.642	-204.56283
569.108	-211.57468
569.573	-232.61829
570.038	-372.93678
570.504	-329.84583
570.969	-59.16014
571.434	-214.54418
571.899	-81.21161
572.363	-185.47319
572.828	-153.3886
573.293	-108.27436
573.757	-123.31097
574.222	-76.19047
574.686	-50.12567
575.15	68.17238
575.614	-3.00748
576.078	126.31497
576.542	30.07388
577.006	11.02698
577.469	180.45919
577.933	90.22017
578.396	158.38981
578.86	184.45294
579.323	223.55671
579.786	32.07562
580.249	131.32183
580.712	245.61273
581.175	275.69047
581.637	111.26754
582.1	84.19982
582.563	-19.04481
583.025	233.5823
583.487	-44.10087
583.95	70.1662
584.412	-7.01637
584.874	194.48318
585.336	170.42018
585.797	25.05909
586.259	166.40894
586.721	166.40743
587.182	111.27169
587.643	75.18221
588.105	205.50584
588.566	-40.09277
589.027	261.64778
589.488	185.44269
589.949	229.56941
590.41	-96.21496
590.87	142.33779
591.331	75.17315
591.791	266.64
592.252	244.58329
592.712	360.8625
593.172	315.73324
593.632	262.60062
594.092	285.65766
594.552	327.72626
595.011	446.01859
595.471	438.96647
595.931	471.03619
596.39	689.56841
596.849	669.47987
597.308	602.26356
597.768	1008.2766
598.227	915.94614
598.685	918.85658
599.144	1070.16567
599.603	1177.37664
600.062	1096.01814
600.52	1259.33831
600.978	1401.64387
601.437	1484.6246
601.895	1537.48868
602.353	1705.76479
602.811	1928.03087
603.269	2145.44686
603.727	2318.5733
604.184	2410.3637
604.642	2709.81853
605.099	2701.49635
605.557	3024.84101
606.014	2997.28084
606.471	3485.02944
606.928	3455.23794
607.385	3853.87876
607.842	3853.25625
608.299	4207.35012
608.755	4325.49529
609.212	4383.87728
609.668	4671.81691
610.125	4902.17142
610.581	5154.84057
611.037	5341.50932
611.493	5477.65434
611.949	5821.87516
612.405	5738.59491
612.861	6029.35544
613.316	6210.44136
613.772	6356.17392
614.227	6606.28878
614.683	6522.67155
615.138	6806.14514
615.593	6848.10939
616.048	6838.94867
616.503	7051.3647
616.958	7214.58344
617.412	7045.17318
617.867	7027.84058
618.321	6776.51759
618.776	6969.84912
619.23	7032.11002
619.684	6838.92356
620.138	6782.04037
620.592	6836.37586
621.046	6830.08758
621.5	6858.42787
621.954	6568.93313
622.407	6365.91262
622.861	6518.40777
623.314	6247.05189
623.768	6183.27023
624.221	5891.4826
624.674	6027.2276
625.127	5943.33979
625.58	5889.18828
626.033	5724.01367
626.485	5762.63093
626.938	5861.50011
627.39	5687.489
627.843	5638.44159
628.295	5566.40076
628.747	5482.69477
629.199	5426.42698
629.651	5528.40266
630.103	5464.50886
630.555	5355.98643
631.006	5464.58481
631.458	5634.58614
631.909	5547.31246
632.361	5503.53948
632.812	5545.502
633.263	5506.99101
633.714	5523.91205
634.165	6013.62995
634.616	6006.46354
635.067	5946.89477
635.518	6165.33234
635.968	6217.29944
636.419	6413.70178
636.869	6730.1233
637.319	6841.98388
637.769	7010.85826
638.219	7258.06459
638.669	7574.25398
639.119	7861.52248
639.569	8072.54449
640.019	8357.62489
640.468	8591.82746
640.918	8994.56828
641.367	9260.96518
641.816	9593.7038
642.265	10037.8608
642.714	10520.3879
643.163	10928.86003
643.612	11472.933
644.061	11552.96455
644.51	12097.36135
644.958	12368.37775
645.406	12965.40111
645.855	13352.81408
646.303	13745.38193
646.751	14189.05008
647.199	14512.09254
647.647	14851.96754
648.095	15247.54144
648.543	15354.68897
648.99	16112.14743
649.438	16311.42886
649.885	16508.523
650.333	16386.69259
650.78	17187.51647
651.227	17368.43235
651.674	17424.08811
652.121	17529.90103
652.568	17913.37211
653.015	18009.05249
653.461	17966.7008
653.908	17753.45389
654.354	17797.756
654.801	17670.24422
655.247	17532.99975
655.693	17727.40528
656.139	17639.35415
656.585	17388.58276
657.031	17311.85006
657.477	17107.05234
657.922	17119.90971
658.368	17015.40129
658.813	16867.24865
659.259	16862.06113
659.704	16457.32068
660.149	16444.80811
660.594	16343.4838
661.039	15951.10085
661.484	15938.31406
661.929	15589.93557
662.373	15839.73489
662.818	15763.39503
663.262	15697.42307
663.707	15664.20754
664.151	15396.18096
664.595	15514.72187
665.039	15633.19274
665.483	15675.15518
665.927	15577.75816
666.371	15600.02273
666.814	15774.46934
667.258	15736.74802
667.701	15683.42098
668.145	15965.66327
668.588	15952.88425
669.031	16123.02562
669.474	16177.5123
669.917	16277.37411
670.36	16701.50396
670.803	16928.16875
671.245	16573.4447
671.688	17004.7773
672.13	16939.37957
672.573	17222.56135
673.015	17490.49943
673.457	17502.91864
673.899	17537.30001
674.341	17906.65642
674.783	17814.72843
675.225	18032.01989
675.666	17926.54657
676.108	17952.80518
676.549	18215.20545
676.991	18162.65605
677.432	17911.3815
677.873	18022.33153
678.314	18033.47215
678.755	18154.60114
679.196	17770.13283
679.637	17811.46969
680.078	17434.85788
680.518	17311.37096
680.959	17268.83438
681.399	17280.28068
681.839	17040.10738
682.28	16898.0456
682.72	16448.38686
683.16	16384.38457
683.6	16132.3807
684.039	15628.45401
684.479	15777.92381
684.919	15506.02629
685.358	15570.37499
685.798	15396.0294
686.237	15073.35932
686.676	14728.0555
687.115	14587.43997
687.554	14562.0668
687.993	14345.18003
688.432	13913.99051
688.871	14007.71398
689.309	13815.72901
689.748	13618.99925
690.186	13833.98551
690.625	13590.27668
691.063	13595.90353
691.501	13386.22545
691.939	13408.21281
692.377	13169.76098
692.815	13027.90995
693.253	13007.77036
693.69	12732.72197
694.128	12892.83726
694.565	12600.26529
695.003	12673.1377
695.44	12436.31476
695.877	12347.75028
696.314	11889.95268
696.751	11957.93861
697.188	11817.03075
697.625	11685.44179
698.061	11842.87259
698.498	11450.01357
698.934	11419.82563
699.371	11291.3386
699.807	11108.58887
700.243	10929.77275
700.679	10694.076
701.115	10636.79625
701.551	10534.4105
701.987	10251.54663
702.422	10318.66448
702.858	10182.26759
703.294	10076.01093
703.729	9938.563
704.164	9680.92453
704.599	9270.97465
705.035	9328.11013
705.47	9484.52017
705.904	9281.05411
706.339	8934.3538
706.774	9051.61498
707.209	8886.32346
707.643	8806.29526
708.078	8578.09457
708.512	8677.28314
708.946	8332.65482
709.38	8326.64581
709.814	8187.38191
710.248	8018.47509
710.682	7934.38006
711.116	7885.42161
711.549	7774.63808
711.983	7466.00609
712.416	7518.10896
712.85	7461.41768
713.283	7266.10097
713.716	7227.3399
714.149	6980.99995
714.582	6834.81247
715.015	6812.28365
715.448	6768.4231
715.881	6306.5804
716.313	6485.05542
716.746	6367.15934
717.178	6261.25922
717.61	6300.52307
718.043	6147.50223
718.475	6021.34411
718.907	6001.68458
719.339	5750.165
719.77	5645.49228
720.202	5570.92219
720.634	5564.79329
721.065	5427.58355
721.497	5368.82591
721.928	5363.90392
722.359	5159.99079
722.79	5154.94028
723.221	5148.0797
723.652	4970.30143
724.083	4743.71082
724.514	4694.76815
724.945	4671.95581
725.375	4616.03506
725.806	4610.27804
726.236	4569.54024
726.666	4265.17669
727.096	4336.42585
727.526	4500.597
727.956	4201.9344
728.386	4236.42401
728.816	4171.68906
729.246	4138.52745
729.675	4008.62757
730.105	3896.46096
730.534	3834.27184
730.964	3943.67216
731.393	3798.55235
731.822	3865.85743
732.251	3820.78001
732.68	3696.26666
733.109	3750.5988
733.537	3583.57362
733.966	3681.80918
734.395	3436.29556
734.823	3402.07488
735.251	3441.63051
735.68	3471.79247
736.108	3470.82849
736.536	3248.41263
736.964	3312.3828
737.392	3373.80825
737.82	3232.56458
738.247	3194.51083
738.675	3215.48588
739.102	3181.86374
739.53	3267.96861
739.957	3246.03557
740.384	3083.62694
740.811	3158.84533
741.238	3115.67526
741.665	2906.33781
742.092	2866.51612
742.519	3007.75927
742.945	2917.57178
743.372	3015.78495
743.798	3049.99562
744.225	2852.50026
744.651	2960.81412
745.077	2941.77961
745.503	2775.60398
745.929	2780.52538
746.355	2800.70075
746.781	2791.71308
747.207	2669.51402
747.632	2719.7216
748.058	2753.75371
748.483	2640.30998
748.908	2767.7078
749.334	2760.68979
749.759	2577.33948
750.184	2615.50883
750.609	2697.67184
751.033	2569.37453
751.458	2485.10768
751.883	2592.63994
752.307	2524.41758
752.732	2595.8021
753.156	2667.73426
753.58	2564.4519
754.005	2611.74061
754.429	2470.38211
754.853	2516.62738
755.277	2354.27704
755.7	2493.644
756.124	2521.65772
756.548	2397.41449
756.971	2357.40299
757.394	2528.87583
757.818	2508.80942
758.241	2487.74962
758.664	2455.74518
759.087	2227.0711
759.51	2334.53296
759.933	2360.45983
760.356	2423.73339
760.778	2340.58533
761.201	2267.41643
761.623	2145.27421
762.046	2191.24757
762.468	2122.17395
762.89	2134.35988
763.312	2230.46642
763.734	2241.34888
764.156	2167.429
764.578	1985.03814
765	2118.35867
765.421	2144.57386
765.843	2181.69749
766.264	2017.2096
766.686	2031.34433
767.107	1994.19999
767.528	2023.46301
767.949	2020.45692
768.37	1887.11976
768.791	1818.07226
769.212	1889.31989
769.632	1754.90253
770.053	1960.5682
770.473	1731.00279
770.894	1699.03752
771.314	1571.71589
771.734	1523.66696
772.154	1646.07289
772.575	1430.50133
772.994	1463.51087
773.414	1505.70228
773.834	1611.99159
774.254	1495.82042
774.673	1436.66752
775.093	1428.73083
775.512	1390.65036
775.931	1426.79734
776.351	1367.65577
776.77	1287.51536
777.189	1255.37797
777.607	1332.69674
778.026	1236.50557
778.445	1222.50403
778.864	1230.54862
779.282	1107.21272
779.701	1150.36794
780.119	1175.504
780.537	1035.19502
780.955	1025.17285
781.373	917.95545
781.791	781.56014
782.209	819.64446
782.627	1119.49309
783.045	801.6467
783.462	915.03758
783.88	957.13207
784.297	854.89208
784.715	835.90468
785.132	717.58152
785.549	798.78483
785.966	729.64883
786.383	655.47294
786.8	539.17215
787.217	519.15821
787.633	642.47458
788.05	479.05955
788.466	388.85831
788.883	611.43208
789.299	480.09022
789.715	485.12004
790.131	501.18268
790.547	462.08014
790.963	405.97082
791.379	447.07495
791.795	200.45519
792.21	268.61462
792.626	244.56967
793.041	371.89172
793.457	336.81175
793.872	202.47329
794.287	199.47818
794.702	233.56497
795.117	253.62495
795.532	258.64209
795.947	151.36437
796.362	83.20233
796.776	-14.0335
797.191	156.38572
797.605	73.17974
798.02	85.21052
798.434	-161.38055
798.848	61.15488
799.262	104.26467
799.676	-1.0025
800.09	49.12547
800.504	-26.06507
800.918	-134.33424
801.331	104.27091
801.745	-180.44473
802.158	-33.08562
802.572	-133.33757
802.985	-159.40627
803.398	-176.4482
803.811	-93.24511
804.224	-153.39792
804.637	-170.43582
805.05	-288.72402
805.462	-174.45308
805.875	-44.11844
806.288	-190.49524
806.7	-138.36634
807.112	-395.00598
807.525	-242.6398
807.937	-264.70309
808.349	-208.5549
808.761	-258.68437
809.173	-324.85594
809.584	-280.74247
809.996	-271.72113
810.408	-175.47986
810.819	-356.93285
811.231	-140.3881
811.642	-324.87054
812.053	-267.70883
812.464	-384.02172
812.875	-267.73322
813.286	-244.67316
813.697	-459.19995
814.108	-406.09036
814.519	-580.48436
814.929	-330.90889
815.34	-375.01269
815.75	-295.81266
816.16	-392.06639
816.571	-300.8302
816.981	-527.39982
817.391	-451.21951
817.801	-378.04137
818.211	-541.43989
818.62	-456.23683
819.03	-482.31206
819.44	-351.98597
819.849	-449.2383
820.259	-408.12806
820.668	-465.27966
821.077	-425.17496
821.486	-531.43514
821.895	-494.34648
822.304	-332.94726
822.713	-579.57051
823.122	-460.27206
823.531	-550.49157
823.939	-522.43556
824.348	-498.36259
824.756	-464.29153
825.164	-496.37686
825.573	-432.21236
825.981	-499.37506
826.389	-476.32988
826.797	-530.46994
827.205	-640.71781
827.612	-500.38322
828.02	-608.64839
828.428	-454.27885
828.835	-415.19088
829.243	-576.57565
829.65	-534.49023
830.057	-567.56502
830.464	-580.60016
830.871	-627.71654
831.278	-643.77369
831.685	-741.96763
832.092	-546.51434
832.499	-790.06994
832.905	-512.43802
833.312	-702.88232
833.718	-551.54266
834.124	-737.97513
834.531	-522.46076
834.937	-518.45444
835.343	-586.61114
835.749	-728.9609
836.155	-481.38134
836.561	-581.62568
836.966	-592.64145
837.372	-509.43894
837.777	-534.50031
838.183	-810.14089
838.588	-598.66221
838.993	-619.71178
839.399	-619.72457
839.804	-626.74219
840.209	-488.38969
840.613	-783.08292
841.018	-561.58123
841.423	-517.46817
841.828	-518.46771
842.232	-604.68408
842.637	-660.80714
843.041	-507.45136
843.445	-560.57769
843.849	-616.72494
844.253	-691.90484
844.657	-533.50819
845.061	-741.99491
845.465	-638.76844
845.869	-744.03456
846.272	-602.67592
846.676	-673.85641
847.079	-494.40595
847.483	-625.75361
847.886	-692.9073
848.289	-430.25043
848.692	-556.57496
849.095	-639.76873
849.498	-573.60771
849.901	-765.05911
850.304	-675.87008
850.707	-574.6284
851.109	-610.7217
851.512	-608.7093
851.914	-515.46948
852.316	-585.64489
852.718	-518.49095
853.121	-618.72524
853.523	-678.86111
853.925	-474.369
854.326	-601.68937
854.728	-522.49807
855.13	-498.43293
855.531	-644.7895
855.933	-708.94279
856.334	-584.64732
856.736	-784.10444
857.137	-756.06018
857.538	-558.58632
857.939	-580.63455
858.34	-648.80228
858.741	-504.45021
859.142	-664.83876
859.542	-469.36182
859.943	-594.66435
860.343	-627.7678
860.744	-639.77314
861.144	-680.8848
861.544	-649.81092
861.945	-511.45936
862.345	-652.81621
862.745	-560.58104
863.145	-700.92509
863.544	-585.65836
863.944	-728.98816
864.344	-608.7041
864.743	-639.78741
865.143	-533.52313
865.542	-744.03069
865.941	-587.65252
866.34	-694.9152
866.74	-458.33349
867.139	-665.85212
867.537	-587.67251
867.936	-681.89665
868.335	-552.57066
868.734	-518.48746
869.132	-726.989
869.531	-728.01215
869.929	-749.03623
870.327	-668.85501
870.726	-634.7737
871.124	-734.01355
871.522	-562.60293
871.92	-628.76767
872.318	-655.82934
872.715	-658.83461
873.113	-638.78707
873.511	-576.63358
873.908	-549.57119
874.306	-578.63483
874.703	-601.68937
875.1	-562.5996
875.497	-655.82146
875.894	-608.71086
876.291	-660.84584
876.688	-517.49438
877.085	-728.0109
877.482	-611.72374
877.878	-667.85367
878.275	-550.5687
878.671	-823.19509
879.068	-669.85347
879.464	-673.86744
879.86	-708.94218
880.256	-635.77786
880.652	-568.61909
881.048	-652.82906
881.444	-749.05374
881.84	-576.6375
882.236	-615.74026
882.631	-604.69703
883.027	-694.91999
883.422	-569.62266
883.817	-538.53674
884.213	-548.57365
884.608	-614.72354
885.003	-657.83267
885.398	-553.56951
885.793	-607.71556
886.188	-591.67889
886.582	-601.70729
886.977	-700.92752
887.371	-635.79413
887.766	-605.71248
888.16	-620.7478
888.554	-672.88054
888.949	-626.76791
889.343	-661.83473
889.737	-444.30488
890.131	-622.75131
890.525	-566.61434
890.918	-634.79212
891.312	-731.00121
891.706	-568.63205
892.099	-610.72741
892.492	-872.30087
892.886	-688.9241
893.279	-557.59221
893.672	-646.83427
894.065	-624.7612
894.458	-579.64873
894.851	-648.80618
895.244	-584.66668
895.637	-683.90281
896.029	-661.84439
896.422	-663.84655
896.814	-624.75321
897.206	-709.95932
897.599	-681.90833
897.991	-710.97339
898.383	-690.91012
898.775	-832.24269
899.167	-746.05485
899.559	-609.72898
899.951	-740.02874
900.342	-623.76978
900.734	-598.70055
901.125	-500.44164
901.517	-645.81523
901.908	-704.93974
902.299	-630.78082
902.69	-713.96544
903.082	-693.92945
903.473	-670.8646
903.863	-571.62885
904.254	-745.0447
904.645	-621.7477
905.036	-658.83743
905.426	-807.17497
905.817	-638.7909
906.207	-678.88043
906.597	-780.12897
906.987	-539.54984
907.378	-616.74335
907.768	-499.4511
908.158	-671.87458
908.547	-538.54991
908.937	-597.701
909.327	-662.852
909.717	-609.72536
910.106	-707.95989
910.495	-609.71706
910.885	-564.60481
911.274	-628.77624
911.663	-634.79913
912.052	-666.85976
912.441	-590.67229
912.83	-761.06886
913.219	-526.51355
913.608	-677.89249
913.997	-606.72484
914.385	-721.9856
914.774	-673.87554
915.162	-693.92409
915.55	-702.95238
915.939	-602.71192
916.327	-673.89168
916.715	-582.66048
917.103	-674.88324
917.491	-671.87745
917.878	-683.89752
918.266	-586.67685
918.654	-541.54829
919.041	-513.48539
919.429	-736.03047
919.816	-629.78842
920.203	-668.8642
920.591	-659.85235
920.978	-704.9537
921.365	-518.49966
921.752	-694.92179
922.139	-866.301
922.525	-681.90483
922.912	-691.92686
923.299	-626.76951
923.685	-542.57145
924.072	-823.22238
924.458	-648.82615
924.844	-626.76418
925.231	-756.06804
925.617	-583.67048
926.003	-592.69051
926.389	-607.72743
926.774	-595.69328
927.16	-639.80216
927.546	-559.60689
927.931	-617.74066
928.317	-808.18715
928.702	-754.06322
929.088	-728.0159
929.473	-613.75021
929.858	-654.82571
930.243	-707.96962
930.628	-646.81611
931.013	-632.78324
931.398	-795.1454
931.783	-534.54063
932.167	-651.83488
932.552	-636.78746
932.937	-664.87065
933.321	-594.68413
933.705	-602.71448
934.09	-633.78687
934.474	-751.06959
934.858	-547.57377
935.242	-770.10833
935.626	-561.61264
936.009	-550.59695
936.393	-596.69689
936.777	-572.63824
937.16	-567.63133
937.544	-787.16066
937.927	-565.6146
938.311	-674.8734
938.694	-532.54111
939.077	-710.9685
939.46	-736.03427
939.843	-907.3616
940.226	-567.6232
940.609	-732.00237
940.991	-580.65526
941.374	-649.81537
941.757	-665.8584
942.139	-789.13882
942.522	-780.13908
942.904	-716.99251
943.286	-617.75064
943.668	-561.61925
944.05	-647.81864
944.432	-620.75203
944.814	-672.87189
945.196	-642.80706
945.578	-655.8254
945.959	-740.0281
946.341	-718.98757
946.722	-752.05579
947.104	-717.99067
947.485	-766.09341
947.866	-548.56485
948.247	-617.74171
948.628	-722.0092
949.009	-548.57087
949.39	-643.8096
949.771	-766.09407
950.152	-632.77568
950.532	-620.7515
950.913	-689.9124
951.293	-441.29696
951.674	-636.78855
952.054	-597.68984
952.434	-642.80432
952.814	-710.95871
953.194	-546.5702
953.574	-686.91263
953.954	-719.98507
954.334	-602.69706
954.714	-647.81089
955.093	-675.88401
955.473	-627.7678
955.853	-571.63899
956.232	-456.34094
956.611	-709.95993
956.99	-591.6824
957.37	-580.65821
957.749	-701.94327
958.128	-584.66569
958.506	-501.44936
958.885	-586.66792
959.264	-626.77218
959.643	-836.25928
960.021	-636.79994
960.4	-793.14484
960.778	-660.85037
961.156	-589.6712
961.535	-778.12418
961.913	-748.04744
962.291	-514.48246
962.669	-617.75117
963.047	-592.68399
963.424	-586.66991
963.802	-635.78492
964.18	-600.6991
964.557	-774.09984
964.935	-726.99967
965.312	-532.52679
965.69	-645.81523
966.067	-666.86319
966.444	-682.9085
966.821	-573.63892
967.198	-698.94007
967.575	-702.95419
967.952	-757.07633
968.329	-672.87766
968.705	-953.50559
969.082	-550.57893
969.458	-653.82208
969.835	-680.89299
970.211	-536.53918
970.587	-644.81489
970.963	-570.62382
971.339	-526.5193
971.715	-632.78324
972.091	-648.81729
972.467	-622.7545
972.843	-637.79653
973.219	-744.04485
973.594	-502.46088
973.97	-721.97999
974.345	-707.96536
974.721	-732.02132
975.096	-697.94058
975.471	-722.98991
975.846	-697.92498
976.221	-552.58001
976.596	-675.87357
976.971	-629.75783
977.346	-779.11577
977.72	-579.6551
978.095	-551.58621
978.469	-723.99173
978.844	-631.77476
979.218	-703.94396
979.593	-713.96852
979.967	-673.87554
980.341	-802.17719
980.715	-595.69076
981.089	-647.81809
981.463	-741.02603
981.837	-646.81058
982.21	-775.10558
982.584	-681.8949
982.957	-617.75221
983.331	-720.98067
983.704	-716.99436
984.078	-630.77114
984.451	-662.852
984.824	-674.89017
985.197	-669.85462
985.57	-639.8125
985.943	-653.81647
986.316	-653.82151
986.688	-698.92924
987.061	-739.03524
987.434	-537.54861
987.806	-659.83145
988.179	-722.99552
988.551	-576.63896
988.923	-665.86751
989.295	-672.87708
989.667	-692.92875
990.039	-611.72217
990.411	-788.14055
990.783	-795.15577
991.155	-639.78741
991.527	-683.90339
991.898	-618.74954
992.27	-656.84252
992.641	-631.77961
993.012	-739.02248
993.384	-741.03947
993.755	-561.60554
994.126	-715.98143
994.497	-651.82877
994.868	-768.08689
995.239	-706.96228
995.61	-610.73932
995.98	-669.8793
996.351	-636.78909
996.722	-716.96534
997.092	-711.96361
997.462	-741.04011
997.833	-740.03002
998.203	-715.98635
998.573	-641.80561
998.943	-725.9941
999.313	-675.8724
999.683	-666.8569
1000.053	-763.07364
1000.423	-708.96662
1000.792	-520.49847
1001.162	-676.89346
1001.531	-658.85151
1001.901	-592.68047
1002.27	-849.27924
1002.639	-574.64639
1003.009	-740.03321
1003.378	-600.70675
1003.747	-709.96054
1004.116	-707.96415
1004.485	-709.94645
1004.853	-598.69903
1005.222	-622.75556
1005.591	-743.04498
1005.959	-789.13882
1006.328	-809.17542
1006.696	-670.87322
1007.064	-599.68784
1007.433	-634.78672
1007.801	-680.89065
1008.169	-639.80598
1008.537	-836.22792
1008.905	-756.07718
1009.273	-673.87843
1009.64	-689.9201
1010.008	-717.99005
1010.375	-769.10991
1010.743	-803.17537
1011.11	-712.96668
1011.478	-667.87369
1011.845	-744.03263
1012.212	-800.1662
1012.579	-682.90441
1012.946	-734.01989
1013.313	-749.05633
1013.68	-852.28692
1014.047	-696.93212
1014.414	-731.01887
1014.78	-655.84056
1015.147	-739.04224
1015.513	-703.95788
1015.88	-623.77084
1016.246	-697.93879
1016.612	-847.28642
1016.978	-657.83661
1017.344	-621.74823
1017.71	-717.9845
1018.076	-763.09016
1018.442	-594.6927
1018.808	-632.79077
1019.174	-601.70474
1019.539	-843.26388
1019.905	-746.05099
1020.27	-654.84919
1020.636	-728.0159
1021.001	-709.9532
1021.366	-706.9641
1021.731	-606.72535
1022.096	-594.68968
1022.461	-738.02899
1022.826	-722.98617
1023.191	-525.51354
1023.556	-727.99583
1023.92	-697.94895
1024.285	-692.93706
1024.649	-662.85427
1025.014	-638.79417
1025.378	-609.72795
1025.742	-617.73856
1026.107	-861.32044
1026.471	-804.17982
1026.835	-616.7381
1027.199	-640.79541
1027.562	-785.14499
1027.926	-691.93041
1028.29	-573.63456
1028.654	-794.15892
1029.017	-692.93053
1029.381	-710.96667
1029.744	-604.71658
1030.107	-749.05374
1030.471	-744.04677
1030.834	-821.20983
1031.197	-750.06845
1031.56	-759.07985
1031.923	-553.58451
1032.286	-771.10941
1032.648	-705.95981
1033.011	-811.19351
1033.374	-774.10655
1033.736	-513.48926
1034.099	-661.85289
1034.461	-615.74131
1034.823	-635.78547
1035.185	-616.74597
1035.548	-656.83298
1035.91	-710.96606
1036.272	-847.2783
1036.634	-717.99745
1036.995	-732.01564
1037.357	-685.91543
1037.719	-735.0394
1038.08	-737.01955
1038.442	-762.10155
1038.803	-719.98755
1039.165	-588.67909
1039.526	-697.93519
1039.887	-712.97527
1040.248	-647.81144
1040.609	-696.94407
1040.97	-662.85654
1041.331	-596.69081
1041.692	-700.93175
1042.053	-784.11401
1042.413	-757.06323
1042.774	-705.96405
1043.134	-719.98631
1043.495	-646.82548
1043.855	-695.93502
1044.215	-624.76014
1044.576	-680.8965
1044.936	-796.15122
1045.296	-637.79598
1045.656	-692.93053
1046.016	-711.96361
1046.375	-723.00733
1046.735	-826.24232
1047.095	-774.11929
1047.454	-953.48965
1047.814	-707.95989
1048.173	-789.15045
1048.533	-804.17493
1048.892	-689.92483
1049.251	-619.75158
1049.61	-667.87084
1049.969	-694.9164
1050.328	-888.33994
1050.687	-696.93989
1051.046	-707.9605
1051.405	-608.71916
1051.763	-795.16818
1052.122	-625.76323
1052.48	-711.97953
1052.839	-749.05439
1053.197	-727.9996
1053.555	-877.32983
1053.914	-712.97894
1054.272	-739.03715
1054.63	-655.84168
1054.988	-722.99801
1055.345	-911.40249
1055.703	-735.03687
1056.061	-567.61888
1056.419	-551.58064
1056.776	-735.03182
1057.134	-775.1123
1057.491	-636.79181
1057.848	-678.90312
1058.206	-755.07476
1058.563	-854.26315
1058.92	-818.20354
1059.277	-676.89346
1059.634	-757.06782
1059.991	-699.9299
1060.348	-815.20574
1060.704	-739.05367
1061.061	-806.19014
1061.418	-718.99992
1061.774	-632.77081
1062.131	-483.40494
1062.487	-768.10551
1062.843	-654.83691
1063.199	-610.7217
1063.555	-762.08775
1063.911	-651.84098
1064.267	-987.55135
1064.623	-685.91308
1064.979	-746.04261
1065.335	-744.04356
1065.691	-732.01817
1066.046	-949.49592
1066.402	-793.15654
1066.757	-629.7788
1067.112	-691.92508
1067.468	-680.89883
1067.823	-694.92836
1068.178	-721.9968
1068.533	-682.89738
1068.888	-754.08013
1069.243	-670.88125
1069.598	-674.87746
1069.952	-820.22105
1070.307	-606.71454
1070.662	-745.04663
1071.016	-841.26071
1071.371	-810.17705
1071.725	-730.01076
1072.079	-739.04097
1072.434	-677.89365
1072.788	-735.03624
1073.142	-655.83888
1073.496	-743.0437
1073.85	-805.17939
1074.203	-634.77424
1074.557	-494.43923
1074.911	-757.07372
1075.265	-777.11506
1075.618	-703.95123
1075.971	-742.04447
1076.325	-578.64564
1076.678	-754.04819
1077.031	-806.17824
1077.385	-865.31688
1077.738	-815.19794
1078.091	-800.17106
1078.444	-763.07231
1078.796	-695.94158
1079.149	-648.81729
1079.502	-672.85801
1079.855	-745.04019
1080.207	-673.88766
1080.56	-570.63588
1080.912	-698.93766
1081.264	-706.95925
1081.617	-644.80718
1081.969	-572.62855
1082.321	-699.94735
1082.673	-766.08079
1083.025	-717.97831
1083.377	-905.38509
1083.728	-794.15892
1084.08	-650.83345
1084.432	-697.94058
1084.783	-757.06061
1085.135	-632.79185
1085.486	-760.07306
1085.838	-643.80355
1086.189	-711.97525
1086.54	-750.06845
1086.891	-597.70403
1087.242	-706.95864
1087.593	-716.99804
1087.944	-843.25799
1088.295	-826.22868
1088.646	-664.8519
1088.996	-720.99992
1089.347	-661.84836
1089.698	-736.02983
1090.048	-595.69933
1090.398	-806.18594
1090.749	-725.00728
1091.099	-554.5848
1091.449	-656.85204
1091.799	-620.75414
1092.149	-621.75247
1092.499	-681.89607
1092.849	-576.64482
1093.199	-658.85039
1093.548	-704.96157
1093.898	-625.76749
1094.248	-585.66829
1094.597	-525.50824
1094.947	-490.42265
1095.296	-675.89211
1095.645	-557.60161
1095.994	-724.9973
1096.343	-624.76599
1096.692	-434.27004
1097.041	-484.41733
1097.39	-596.69537
1097.739	-546.56836
1098.088	-479.39849
1098.437	-504.4608
1098.785	-493.43487
1099.134	-509.47338
1099.482	-407.20289
1099.83	-553.59244
1100.179	-496.43593
1100.527	-505.46264
1100.875	-510.47991
1101.223	-496.43676
1101.571	-393.16372
1101.919	-481.39509
1102.267	-370.10627
1102.615	12.03868
1102.962	-3.00967
1103.31	0
1103.658	11.03549
